'Id: "" Comment: "" Operator: "Lab Manager" Anode: "Mo" Scantype: "Still (Eiger2R_500K (1D mode))" TimePerStep: "300" X: "11.8" Y: "9.4" Z: "11.284" 
7.2532 18.725
7.2684 19.047
7.2836 19.380
7.2987 18.955
7.3139 19.413
7.3291 19.059
7.3443 18.975
7.3594 19.228
7.3746 19.176
7.3898 19.451
7.4050 19.582
7.4201 19.858
7.4353 19.437
7.4505 19.701
7.4657 19.719
7.4808 19.387
7.4960 19.757
7.5112 19.974
7.5264 19.526
7.5415 19.283
7.5567 19.808
7.5719 20.009
7.5871 20.072
7.6022 19.741
7.6174 20.185
7.6326 20.253
7.6478 20.043
7.6629 20.057
7.6781 20.480
7.6933 20.218
7.7085 20.363
7.7236 20.701
7.7388 20.415
7.7540 20.322
7.7692 20.455
7.7843 20.822
7.7995 20.765
7.8147 20.842
7.8299 21.132
7.8450 20.988
7.8602 21.165
7.8754 21.372
7.8905 21.240
7.9057 21.113
7.9209 21.130
7.9361 21.052
7.9512 21.068
7.9664 21.061
7.9816 20.887
7.9968 20.914
8.0119 21.053
8.0271 21.171
8.0423 21.463
8.0575 21.683
8.0726 21.469
8.0878 21.065
8.1030 21.491
8.1182 21.666
8.1333 21.374
8.1485 21.187
8.1637 21.813
8.1789 21.560
8.1940 21.319
8.2092 21.376
8.2244 21.562
8.2396 21.380
8.2547 21.406
8.2699 21.556
8.2851 21.812
8.3003 21.448
8.3154 21.692
8.3306 21.637
8.3458 21.437
8.3610 21.979
8.3761 22.208
8.3913 22.064
8.4065 22.202
8.4217 21.563
8.4368 22.110
8.4520 22.419
8.4672 22.069
8.4824 22.112
8.4975 22.025
8.5127 21.846
8.5279 22.081
8.5431 22.731
8.5582 22.041
8.5734 22.502
8.5886 22.289
8.6038 22.555
8.6189 22.510
8.6341 22.577
8.6493 22.928
8.6645 22.852
8.6796 22.658
8.6948 22.625
8.7100 23.215
8.7252 22.525
8.7403 22.869
8.7555 22.916
8.7707 22.653
8.7859 22.472
8.8010 22.600
8.8162 22.621
8.8314 22.858
8.8466 23.046
8.8617 22.833
8.8769 22.298
8.8921 22.668
8.9073 22.760
8.9224 22.626
8.9376 22.536
8.9528 22.738
8.9680 22.727
8.9831 22.792
8.9983 22.670
9.0135 22.743
9.0287 22.843
9.0438 23.454
9.0590 23.266
9.0742 23.228
9.0894 23.006
9.1045 22.642
9.1197 22.640
9.1349 22.616
9.1501 22.876
9.1652 22.759
9.1804 23.081
9.1956 22.921
9.2108 22.750
9.2259 22.780
9.2411 23.113
9.2563 23.050
9.2715 23.236
9.2866 23.226
9.3018 23.215
9.3170 23.177
9.3322 23.166
9.3473 23.329
9.3625 23.400
9.3777 23.260
9.3929 23.408
9.4080 23.481
9.4232 23.185
9.4384 23.123
9.4536 23.228
9.4687 23.346
9.4839 23.176
9.4991 23.227
9.5143 23.361
9.5294 23.587
9.5446 23.413
9.5598 23.377
9.5750 23.374
9.5901 23.577
9.6053 23.202
9.6205 23.299
9.6357 23.675
9.6508 23.366
9.6660 23.409
9.6812 23.981
9.6964 23.910
9.7115 23.905
9.7267 24.246
9.7419 24.432
9.7571 24.134
9.7722 23.814
9.7874 24.068
9.8026 24.205
9.8178 24.117
9.8329 23.680
9.8481 23.413
9.8633 23.727
9.8785 23.615
9.8936 23.623
9.9088 23.569
9.9240 23.292
9.9392 23.396
9.9543 23.399
9.9695 23.497
9.9847 23.565
9.9999 23.330
10.0150 23.210
10.0302 23.426
10.0454 23.802
10.0606 23.509
10.0757 23.128
10.0909 23.547
10.1061 23.546
10.1213 23.231
10.1364 23.237
10.1516 23.122
10.1668 23.265
10.1820 23.641
10.1971 23.949
10.2123 23.998
10.2275 23.906
10.2427 23.782
10.2578 23.788
10.2730 23.637
10.2882 23.426
10.3034 23.851
10.3185 23.522
10.3337 23.178
10.3489 23.076
10.3641 22.895
10.3792 23.043
10.3944 23.040
10.4096 23.028
10.4248 22.920
10.4399 22.915
10.4551 22.963
10.4703 23.064
10.4855 22.774
10.5006 22.453
10.5158 22.478
10.5310 22.767
10.5462 22.619
10.5613 22.547
10.5765 22.458
10.5917 22.241
10.6069 22.902
10.6220 22.841
10.6372 22.749
10.6524 22.852
10.6676 22.718
10.6827 22.677
10.6979 22.714
10.7131 22.836
10.7283 22.850
10.7434 22.713
10.7586 22.665
10.7738 22.197
10.7890 22.279
10.8041 22.384
10.8193 22.355
10.8345 22.239
10.8497 22.378
10.8648 22.517
10.8800 22.236
10.8952 22.380
10.9104 22.301
10.9255 22.073
10.9407 22.037
10.9559 21.920
10.9711 22.293
10.9862 22.559
11.0014 22.322
11.0166 22.444
11.0318 22.536
11.0469 22.237
11.0621 22.040
11.0773 21.706
11.0925 22.242
11.1076 22.319
11.1228 22.020
11.1380 21.883
11.1532 21.659
11.1683 21.791
11.1835 21.968
11.1987 22.070
11.2139 22.054
11.2290 22.216
11.2442 22.228
11.2594 21.947
11.2746 22.066
11.2897 22.060
11.3049 21.829
11.3201 21.300
11.3353 21.517
11.3504 21.149
11.3656 21.284
11.3808 21.408
11.3960 21.359
11.4111 21.332
11.4263 21.621
11.4415 21.548
11.4567 21.222
11.4718 21.495
11.4870 21.249
11.5022 21.504
11.5174 21.154
11.5325 21.230
11.5477 21.028
11.5629 20.825
11.5781 20.983
11.5932 20.802
11.6084 20.624
11.6236 20.821
11.6388 20.896
11.6539 20.723
11.6691 20.694
11.6843 20.713
11.6995 20.504
11.7146 20.640
11.7298 20.768
11.7450 20.687
11.7602 20.572
11.7753 20.361
11.7905 20.358
11.8057 20.155
11.8209 20.312
11.8360 20.287
11.8512 20.072
11.8664 19.779
11.8816 20.014
11.8967 19.986
11.9119 19.823
11.9271 19.874
11.9423 19.628
11.9574 19.323
11.9726 19.565
11.9878 19.719
12.0030 19.491
12.0181 19.475
12.0333 19.146
12.0485 18.790
12.0637 19.042
12.0788 19.383
12.0940 19.152
12.1092 18.701
12.1244 18.608
12.1395 18.808
12.1547 18.741
12.1699 18.452
12.1851 18.150
12.2002 18.317
12.2154 18.595
12.2306 18.593
12.2458 18.161
12.2609 18.121
12.2761 17.917
12.2913 17.744
12.3065 17.654
12.3216 17.668
12.3368 17.528
12.3520 17.637
12.3672 17.645
12.3823 17.383
12.3975 17.670
12.4127 17.600
12.4279 17.108
12.4430 17.060
12.4582 17.313
12.4734 17.264
12.4886 17.059
12.5037 17.086
12.5189 16.986
12.5341 16.851
12.5493 16.756
12.5644 16.751
12.5796 16.628
12.5948 16.416
12.6100 16.167
12.6251 16.131
12.6403 16.269
12.6555 16.010
12.6707 16.084
12.6858 16.140
12.7010 16.057
12.7162 15.722
12.7314 15.473
12.7465 15.376
12.7617 15.446
12.7769 15.469
12.7921 15.246
12.8072 15.120
12.8224 15.071
12.8376 15.106
12.8528 14.999
12.8679 15.129
12.8831 15.136
12.8983 15.220
12.9135 15.041
12.9286 14.708
12.9438 14.863
12.9590 14.689
12.9742 14.627
12.9893 14.646
13.0045 14.604
13.0197 14.660
13.0349 14.555
13.0500 14.326
13.0652 14.018
13.0804 13.941
13.0956 14.190
13.1107 14.097
13.1259 13.847
13.1411 13.680
13.1563 13.539
13.1714 13.584
13.1866 13.774
13.2018 13.528
13.2170 13.074
13.2321 13.180
13.2473 13.492
13.2625 13.446
13.2777 13.125
13.2928 13.252
13.3080 13.191
13.3232 13.034
13.3384 13.251
13.3535 13.144
13.3687 13.227
13.3839 13.314
13.3991 13.005
13.4142 13.094
13.4294 12.973
13.4446 12.687
13.4598 12.650
13.4749 12.863
13.4901 12.806
13.5053 12.662
13.5205 12.576
13.5356 12.357
13.5508 12.436
13.5660 12.482
13.5812 12.482
13.5963 12.285
13.6115 12.106
13.6267 12.262
13.6419 12.326
13.6570 12.186
13.6722 12.242
13.6874 12.419
13.7026 12.291
13.7177 12.269
13.7329 11.908
13.7481 11.820
13.7633 12.080
13.7784 11.979
13.7936 11.944
13.8088 12.227
13.8239 12.185
13.8391 12.332
13.8543 12.291
13.8695 12.255
13.8846 12.219
13.8998 12.214
13.9150 12.152
13.9302 12.074
13.9453 12.040
13.9605 11.987
13.9757 12.012
13.9909 11.846
14.0060 11.964
14.0212 11.678
14.0364 11.555
14.0516 11.460
14.0667 11.409
14.0819 11.665
14.0971 11.695
14.1123 11.381
14.1274 11.581
14.1426 11.703
14.1578 11.772
14.1730 11.397
14.1881 11.594
14.2033 11.989
14.2185 11.770
14.2337 11.964
14.2488 12.242
14.2640 12.204
14.2792 12.289
14.2944 12.190
14.3095 12.212
14.3247 12.353
14.3399 12.246
14.3551 12.631
14.3702 12.805
14.3854 12.984
14.4006 12.860
14.4158 12.653
14.4309 12.735
14.4461 12.636
14.4613 12.499
14.4765 12.196
14.4916 12.319
14.5068 11.996
14.5220 11.744
14.5372 11.586
14.5523 11.605
14.5675 11.180
14.5827 11.040
14.5979 11.133
14.6130 11.457
14.6282 11.404
14.6434 11.178
14.6586 11.340
14.6737 11.219
14.6889 11.187
14.7041 10.988
14.7193 11.028
14.7344 11.005
14.7496 11.013
14.7648 10.479
14.7800 10.936
14.7951 10.797
14.8103 10.708
14.8255 10.445
14.8407 10.968
14.8558 10.598
14.8710 10.438
14.8862 10.590
14.9014 10.737
14.9165 11.049
14.9317 11.055
14.9469 10.841
14.9621 10.821
14.9772 10.524
14.9924 10.494
15.0076 10.636
15.0228 10.698
15.0379 10.687
15.0531 10.139
15.0683 10.445
15.0835 10.473
15.0986 10.613
15.1138 10.687
15.1290 10.683
15.1442 10.303
15.1593 10.648
15.1745 10.525
15.1897 10.229
15.2049 10.466
15.2200 10.401
15.2352 10.548
15.2504 10.290
15.2656 10.320
15.2807 9.831
15.2959 10.357
15.3111 10.402
15.3263 10.138
15.3414 10.333
15.3566 10.416
15.3718 10.069
15.3870 10.356
15.4021 10.566
15.4173 10.647
15.4325 10.580
15.4477 10.579
15.4628 10.535
15.4780 10.360
15.4932 10.155
15.5084 10.259
15.5235 10.480
15.5387 10.278
15.5539 10.198
15.5691 10.373
15.5842 10.037
15.5994 10.407
15.6146 9.893
15.6298 10.390
15.6449 10.378
15.6601 9.916
15.6753 10.151
15.6905 10.084
15.7056 9.992
15.7208 10.117
15.7360 9.961
15.7512 9.861
15.7663 9.725
15.7815 9.964
15.7967 10.026
15.8119 9.693
15.8270 9.660
15.8422 9.993
15.8574 9.886
15.8726 9.722
15.8877 9.780
15.9029 9.603
15.9181 9.630
15.9333 9.833
15.9484 9.789
15.9636 9.728
15.9788 9.757
15.9940 9.660
16.0091 9.741
16.0243 10.272
16.0395 9.978
16.0547 9.549
16.0698 9.663
16.0850 9.903
16.1002 9.670
16.1154 9.683
16.1305 9.851
16.1457 9.732
16.1609 9.522
16.1761 9.881
16.1912 9.953
16.2064 9.677
16.2216 9.645
16.2368 9.880
16.2519 9.916
16.2671 9.936
16.2823 9.965
16.2975 9.752
16.3126 9.871
16.3278 9.837
16.3430 9.857
16.3582 10.015
16.3733 10.078
16.3885 10.108
16.4037 9.929
16.4189 9.895
16.4340 9.910
16.4492 9.987
16.4644 9.954
16.4796 9.854
16.4947 9.740
16.5099 9.678
16.5251 10.011
16.5403 9.893
16.5554 9.949
16.5706 9.822
16.5858 9.672
16.6010 9.753
16.6161 9.690
16.6313 9.538
16.6465 9.579
16.6617 9.750
16.6768 9.937
16.6920 10.053
16.7072 10.269
16.7224 10.249
16.7375 10.111
16.7527 10.047
16.7679 9.936
16.7831 9.757
16.7982 9.853
16.8134 10.034
16.8286 9.988
16.8438 10.147
16.8589 9.992
16.8741 9.892
16.8893 9.938
16.9045 10.007
16.9196 9.897
16.9348 9.729
16.9500 9.684
16.9652 9.739
16.9803 9.815
16.9955 9.974
17.0107 10.130
17.0259 10.126
17.0410 9.872
17.0562 9.996
17.0714 10.323
17.0866 10.197
17.1017 10.253
17.1169 10.577
17.1321 10.898
17.1473 11.206
17.1624 11.772
17.1776 12.359
17.1928 12.856
17.2080 13.868
17.2231 15.038
17.2383 16.239
17.2535 17.500
17.2687 18.567
17.2838 18.674
17.2990 18.097
17.3142 17.176
17.3294 16.398
17.3445 16.183
17.3597 16.053
17.3749 16.189
17.3901 15.625
17.4052 14.207
17.4204 13.234
17.4356 12.711
17.4508 12.373
17.4659 12.057
17.4811 11.677
17.4963 11.504
17.5115 11.426
17.5266 11.334
17.5418 11.250
17.5570 11.292
17.5722 11.480
17.5873 11.645
17.6025 11.660
17.6177 11.532
17.6329 11.271
17.6480 11.096
17.6632 10.913
17.6784 10.855
17.6936 10.861
17.7087 10.817
17.7239 10.771
17.7391 10.382
17.7543 10.247
17.7694 10.243
17.7846 10.352
17.7998 10.258
17.8150 10.418
17.8301 10.439
17.8453 10.136
17.8605 10.231
17.8757 10.546
17.8908 10.680
17.9060 10.497
17.9212 10.461
17.9364 10.329
17.9515 10.163
17.9667 10.147
17.9819 10.193
17.9971 10.280
18.0122 10.182
18.0274 10.388
18.0426 10.352
18.0578 10.227
18.0729 10.130
18.0881 10.122
18.1033 10.168
18.1185 10.103
18.1336 9.896
18.1488 10.042
18.1640 10.270
18.1792 9.877
18.1943 9.761
18.2095 9.830
18.2247 9.763
18.2399 9.802
18.2550 9.875
18.2702 9.833
18.2854 9.994
18.3006 9.644
18.3157 9.531
18.3309 9.730
18.3461 9.625
18.3613 9.525
18.3764 9.654
18.3916 9.770
18.4068 9.796
18.4220 9.717
18.4371 9.820
18.4523 9.794
18.4675 9.701
18.4827 9.876
18.4978 9.997
18.5130 9.872
18.5282 9.768
18.5434 9.612
18.5585 9.678
18.5737 9.749
18.5889 9.800
18.6041 9.880
18.6192 9.920
18.6344 9.958
18.6496 9.971
18.6648 9.601
18.6799 9.556
18.6951 9.768
18.7103 9.663
18.7255 9.966
18.7406 9.910
18.7558 9.625
18.7710 9.577
18.7862 9.638
18.8013 9.706
18.8165 9.753
18.8317 9.761
18.8469 9.745
18.8620 9.722
18.8772 9.815
18.8924 9.714
18.9076 9.809
18.9227 10.146
18.9379 10.087
18.9531 10.176
18.9683 10.075
18.9834 9.940
18.9986 9.994
19.0138 10.265
19.0290 10.406
19.0441 10.335
19.0593 10.313
19.0745 10.338
19.0897 10.358
19.1048 10.502
19.1200 10.415
19.1352 10.355
19.1504 10.605
19.1655 10.673
19.1807 10.623
19.1959 10.917
19.2111 10.860
19.2262 10.639
19.2414 10.791
19.2566 10.760
19.2718 10.875
19.2869 10.982
19.3021 10.978
19.3173 10.901
19.3325 10.856
19.3476 11.093
19.3628 11.305
19.3780 11.253
19.3932 11.409
19.4083 11.292
19.4235 11.256
19.4387 11.274
19.4539 11.077
19.4690 11.164
19.4842 11.336
19.4994 11.316
19.5146 11.441
19.5297 11.491
19.5449 11.460
19.5601 11.746
19.5753 11.469
19.5904 11.331
19.6056 11.585
19.6208 11.601
19.6360 11.602
19.6511 11.759
19.6663 11.901
19.6815 11.733
19.6967 11.755
19.7118 11.881
19.7270 11.748
19.7422 11.793
19.7574 11.756
19.7725 11.589
19.7877 11.892
19.8029 12.028
19.8180 12.207
19.8332 12.138
19.8484 11.965
19.8636 12.363
19.8787 12.527
19.8939 12.596
19.9091 12.899
19.9243 13.437
19.9394 13.830
19.9546 13.940
19.9698 13.911
19.9850 14.179
20.0001 14.456
20.0153 14.215
20.0305 13.891
20.0457 13.865
20.0608 13.847
20.0760 13.924
20.0912 13.756
20.1064 13.488
20.1215 13.368
20.1367 13.046
20.1519 13.136
20.1671 13.165
20.1822 13.122
20.1974 13.300
20.2126 13.198
20.2278 12.789
20.2429 12.571
20.2581 12.377
20.2733 12.115
20.2885 11.859
20.3036 12.140
20.3188 11.939
20.3340 11.961
20.3492 12.049
20.3643 11.903
20.3795 11.429
20.3947 11.127
20.4099 10.958
20.4250 10.838
20.4402 10.859
20.4554 10.661
20.4706 10.835
20.4857 10.879
20.5009 11.147
20.5161 10.960
20.5313 10.663
20.5464 10.784
20.5616 10.671
20.5768 10.793
20.5920 10.941
20.6071 10.905
20.6223 10.900
20.6375 10.530
20.6527 10.512
20.6678 10.580
20.6830 10.439
20.6982 10.317
20.7134 10.532
20.7285 10.478
20.7437 10.721
20.7589 10.241
20.7741 10.332
20.7892 10.309
20.8044 10.369
20.8196 10.132
20.8348 10.514
20.8499 10.166
20.8651 10.194
20.8803 10.126
20.8955 10.172
20.9106 10.197
20.9258 10.105
20.9410 10.378
20.9562 10.104
20.9713 9.920
20.9865 10.196
21.0017 9.997
21.0169 9.861
21.0320 10.267
21.0472 9.909
21.0624 9.872
21.0776 9.702
21.0927 10.046
21.1079 9.737
21.1231 9.633
21.1383 9.568
21.1534 9.684
21.1686 10.010
21.1838 9.438
21.1990 9.681
21.2141 9.590
21.2293 9.990
21.2445 9.738
21.2597 9.741
21.2748 9.648
21.2900 9.399
21.3052 9.621
21.3204 9.786
21.3355 9.659
21.3507 9.282
21.3659 9.363
21.3811 9.550
21.3962 9.656
21.4114 9.438
21.4266 9.642
21.4418 9.481
21.4569 9.285
21.4721 9.133
21.4873 9.359
21.5025 9.343
21.5176 9.452
21.5328 9.309
21.5480 9.236
21.5632 9.102
21.5783 9.297
21.5935 9.118
21.6087 9.291
21.6239 9.381
21.6390 9.165
21.6542 9.169
21.6694 9.242
21.6846 9.299
21.6997 9.144
21.7149 9.083
21.7301 9.200
21.7453 9.152
21.7604 8.974
21.7756 9.042
21.7908 9.023
21.8060 9.255
21.8211 9.197
21.8363 9.099
21.8515 9.154
21.8667 8.919
21.8818 8.906
21.8970 8.958
21.9122 9.172
21.9274 9.197
21.9425 8.961
21.9577 9.027
21.9729 9.097
21.9881 8.906
22.0032 8.916
22.0184 9.083
22.0336 8.927
22.0488 8.787
22.0639 8.537
22.0791 8.504
22.0943 8.701
22.1095 8.610
22.1246 8.444
22.1398 8.612
22.1550 8.653
22.1702 8.787
22.1853 8.713
22.2005 8.554
22.2157 8.728
22.2309 8.758
22.2460 8.648
22.2612 8.778
22.2764 8.546
22.2916 8.689
22.3067 8.637
22.3219 8.576
22.3371 8.712
22.3523 8.520
22.3674 8.544
22.3826 8.526
22.3978 8.629
22.4130 8.424
22.4281 8.316
22.4433 8.572
22.4585 8.388
22.4737 8.449
22.4888 8.479
22.5040 8.411
22.5192 8.564
22.5344 8.592
22.5495 8.630
22.5647 8.512
22.5799 8.766
22.5951 8.665
22.6102 8.414
22.6254 8.646
22.6406 8.674
22.6558 8.630
22.6709 8.568
22.6861 8.372
22.7013 8.101
22.7165 8.015
22.7316 6.431
