'Id: "" Comment: "" Operator: "Lab Manager" Anode: "Mo" Scantype: "Still (Eiger2R_500K (1D mode))" TimePerStep: "300" X: "11.8" Y: "9.4" Z: "11.284" 
7.2532 18.878
7.2684 18.774
7.2836 18.896
7.2987 18.787
7.3139 19.178
7.3291 19.066
7.3443 19.114
7.3594 19.204
7.3746 19.384
7.3898 18.896
7.4050 19.692
7.4201 19.715
7.4353 19.504
7.4505 19.441
7.4657 19.769
7.4808 19.571
7.4960 19.568
7.5112 19.664
7.5264 19.326
7.5415 19.825
7.5567 19.731
7.5719 19.751
7.5871 19.836
7.6022 19.926
7.6174 20.155
7.6326 20.206
7.6478 19.816
7.6629 20.025
7.6781 20.164
7.6933 20.314
7.7085 20.710
7.7236 20.744
7.7388 20.243
7.7540 20.137
7.7692 20.278
7.7843 20.608
7.7995 20.642
7.8147 20.473
7.8299 20.665
7.8450 20.702
7.8602 20.566
7.8754 20.719
7.8905 20.923
7.9057 20.871
7.9209 21.059
7.9361 21.543
7.9512 21.614
7.9664 21.418
7.9816 21.227
7.9968 21.428
8.0119 21.376
8.0271 21.120
8.0423 21.156
8.0575 21.286
8.0726 21.241
8.0878 21.602
8.1030 21.748
8.1182 21.555
8.1333 21.351
8.1485 21.164
8.1637 21.522
8.1789 21.336
8.1940 21.604
8.2092 21.795
8.2244 21.410
8.2396 21.110
8.2547 21.219
8.2699 21.444
8.2851 21.764
8.3003 21.970
8.3154 22.077
8.3306 21.929
8.3458 22.148
8.3610 22.056
8.3761 22.006
8.3913 22.181
8.4065 21.902
8.4217 21.923
8.4368 22.148
8.4520 22.410
8.4672 22.325
8.4824 22.114
8.4975 21.979
8.5127 22.515
8.5279 22.757
8.5431 22.241
8.5582 22.273
8.5734 21.599
8.5886 22.362
8.6038 21.729
8.6189 22.238
8.6341 22.585
8.6493 22.667
8.6645 22.905
8.6796 22.604
8.6948 22.433
8.7100 22.801
8.7252 23.300
8.7403 22.990
8.7555 22.879
8.7707 23.075
8.7859 22.429
8.8010 22.695
8.8162 22.667
8.8314 22.885
8.8466 22.428
8.8617 22.704
8.8769 23.095
8.8921 22.515
8.9073 22.720
8.9224 22.822
8.9376 22.912
8.9528 22.654
8.9680 22.502
8.9831 22.895
8.9983 23.057
9.0135 22.768
9.0287 22.935
9.0438 22.880
9.0590 22.820
9.0742 23.063
9.0894 23.213
9.1045 23.231
9.1197 23.057
9.1349 22.783
9.1501 22.769
9.1652 22.647
9.1804 23.119
9.1956 23.342
9.2108 22.956
9.2259 22.952
9.2411 22.753
9.2563 23.024
9.2715 23.272
9.2866 23.327
9.3018 23.371
9.3170 23.039
9.3322 23.160
9.3473 22.983
9.3625 23.044
9.3777 23.362
9.3929 23.404
9.4080 23.552
9.4232 23.436
9.4384 23.101
9.4536 23.305
9.4687 22.807
9.4839 23.055
9.4991 23.464
9.5143 23.405
9.5294 23.396
9.5446 23.103
9.5598 23.090
9.5750 23.139
9.5901 23.380
9.6053 23.194
9.6205 23.160
9.6357 23.637
9.6508 23.464
9.6660 23.109
9.6812 23.475
9.6964 23.879
9.7115 24.074
9.7267 24.447
9.7419 24.501
9.7571 24.347
9.7722 24.074
9.7874 24.029
9.8026 23.930
9.8178 23.702
9.8329 23.694
9.8481 23.544
9.8633 23.699
9.8785 23.905
9.8936 23.499
9.9088 23.452
9.9240 23.727
9.9392 23.888
9.9543 23.477
9.9695 23.294
9.9847 23.316
9.9999 23.267
10.0150 23.752
10.0302 23.831
10.0454 23.679
10.0606 23.793
10.0757 23.751
10.0909 23.799
10.1061 23.940
10.1213 23.417
10.1364 23.354
10.1516 23.523
10.1668 23.430
10.1820 23.531
10.1971 23.881
10.2123 23.756
10.2275 23.539
10.2427 23.923
10.2578 23.956
10.2730 23.651
10.2882 23.342
10.3034 23.510
10.3185 23.376
10.3337 23.092
10.3489 23.124
10.3641 22.995
10.3792 22.819
10.3944 23.023
10.4096 23.084
10.4248 23.123
10.4399 22.923
10.4551 22.992
10.4703 23.141
10.4855 23.271
10.5006 22.706
10.5158 22.719
10.5310 22.952
10.5462 23.052
10.5613 23.025
10.5765 22.710
10.5917 22.589
10.6069 22.734
10.6220 22.712
10.6372 22.804
10.6524 22.626
10.6676 22.515
10.6827 22.482
10.6979 22.318
10.7131 22.820
10.7283 22.512
10.7434 22.900
10.7586 22.638
10.7738 22.324
10.7890 22.130
10.8041 22.228
10.8193 22.320
10.8345 22.006
10.8497 22.334
10.8648 22.633
10.8800 22.477
10.8952 22.432
10.9104 22.436
10.9255 22.350
10.9407 22.337
10.9559 21.976
10.9711 21.877
10.9862 21.998
11.0014 22.192
11.0166 22.427
11.0318 22.367
11.0469 21.801
11.0621 22.101
11.0773 21.852
11.0925 22.224
11.1076 22.350
11.1228 22.139
11.1380 22.282
11.1532 21.735
11.1683 21.875
11.1835 22.080
11.1987 21.868
11.2139 21.819
11.2290 22.081
11.2442 22.015
11.2594 21.916
11.2746 22.127
11.2897 21.725
11.3049 21.930
11.3201 21.806
11.3353 21.834
11.3504 21.892
11.3656 21.696
11.3808 21.576
11.3960 21.693
11.4111 21.243
11.4263 21.464
11.4415 21.596
11.4567 21.070
11.4718 21.288
11.4870 21.455
11.5022 21.449
11.5174 20.993
11.5325 21.077
11.5477 21.019
11.5629 20.786
11.5781 20.862
11.5932 20.601
11.6084 20.642
11.6236 21.114
11.6388 21.185
11.6539 21.207
11.6691 21.107
11.6843 20.582
11.6995 20.340
11.7146 20.696
11.7298 20.647
11.7450 20.301
11.7602 20.523
11.7753 20.602
11.7905 20.175
11.8057 20.017
11.8209 19.972
11.8360 19.972
11.8512 20.141
11.8664 20.029
11.8816 19.861
11.8967 19.773
11.9119 19.709
11.9271 19.845
11.9423 19.412
11.9574 19.322
11.9726 19.234
11.9878 19.397
12.0030 19.253
12.0181 19.141
12.0333 19.138
12.0485 19.066
12.0637 18.914
12.0788 18.676
12.0940 18.942
12.1092 18.821
12.1244 18.890
12.1395 18.736
12.1547 18.522
12.1699 18.681
12.1851 18.650
12.2002 18.233
12.2154 18.017
12.2306 17.849
12.2458 18.064
12.2609 18.171
12.2761 17.961
12.2913 17.666
12.3065 17.637
12.3216 17.529
12.3368 17.654
12.3520 17.479
12.3672 17.372
12.3823 17.399
12.3975 17.673
12.4127 17.573
12.4279 17.207
12.4430 17.360
12.4582 17.466
12.4734 17.520
12.4886 17.206
12.5037 16.823
12.5189 17.003
12.5341 16.940
12.5493 16.346
12.5644 16.331
12.5796 16.285
12.5948 16.041
12.6100 16.237
12.6251 16.290
12.6403 15.925
12.6555 15.582
12.6707 15.633
12.6858 15.638
12.7010 15.753
12.7162 15.861
12.7314 15.766
12.7465 15.552
12.7617 15.359
12.7769 15.188
12.7921 15.203
12.8072 15.109
12.8224 14.879
12.8376 14.812
12.8528 14.930
12.8679 14.831
12.8831 14.836
12.8983 14.766
12.9135 14.576
12.9286 14.686
12.9438 15.012
12.9590 14.732
12.9742 14.413
12.9893 14.466
13.0045 14.439
13.0197 14.273
13.0349 14.185
13.0500 14.185
13.0652 14.139
13.0804 14.071
13.0956 13.940
13.1107 13.854
13.1259 13.703
13.1411 13.547
13.1563 13.738
13.1714 13.868
13.1866 13.797
13.2018 13.792
13.2170 13.789
13.2321 13.575
13.2473 13.357
13.2625 13.317
13.2777 13.173
13.2928 13.309
13.3080 13.338
13.3232 13.234
13.3384 13.047
13.3535 12.821
13.3687 12.998
13.3839 12.946
13.3991 13.019
13.4142 13.247
13.4294 13.069
13.4446 12.848
13.4598 12.870
13.4749 12.822
13.4901 12.638
13.5053 12.640
13.5205 12.747
13.5356 12.566
13.5508 12.413
13.5660 12.640
13.5812 12.529
13.5963 12.272
13.6115 12.478
13.6267 12.512
13.6419 12.379
13.6570 12.282
13.6722 12.066
13.6874 12.137
13.7026 12.154
13.7177 12.071
13.7329 12.310
13.7481 12.324
13.7633 12.254
13.7784 12.198
13.7936 12.144
13.8088 12.141
13.8239 12.268
13.8391 12.284
13.8543 12.368
13.8695 12.461
13.8846 12.105
13.8998 12.014
13.9150 12.025
13.9302 12.486
13.9453 12.550
13.9605 12.106
13.9757 11.633
13.9909 11.792
14.0060 11.778
14.0212 11.632
14.0364 11.413
14.0516 11.593
14.0667 11.591
14.0819 11.306
14.0971 11.396
14.1123 11.490
14.1274 11.761
14.1426 11.399
14.1578 11.478
14.1730 11.750
14.1881 11.928
14.2033 12.016
14.2185 11.966
14.2337 11.912
14.2488 11.962
14.2640 11.818
14.2792 12.131
14.2944 11.912
14.3095 12.143
14.3247 12.251
14.3399 12.197
14.3551 12.709
14.3702 12.689
14.3854 12.946
14.4006 12.891
14.4158 12.844
14.4309 12.789
14.4461 12.737
14.4613 12.271
14.4765 12.435
14.4916 12.134
14.5068 12.082
14.5220 11.724
14.5372 11.586
14.5523 11.542
14.5675 11.247
14.5827 11.359
14.5979 11.262
14.6130 10.981
14.6282 11.071
14.6434 10.804
14.6586 10.867
14.6737 11.094
14.6889 11.037
14.7041 11.178
14.7193 10.939
14.7344 10.948
14.7496 11.005
14.7648 10.802
14.7800 10.963
14.7951 10.805
14.8103 10.739
14.8255 10.644
14.8407 10.623
14.8558 10.394
14.8710 10.688
14.8862 10.263
14.9014 10.781
14.9165 10.918
14.9317 10.784
14.9469 11.004
14.9621 10.808
14.9772 10.361
14.9924 10.314
15.0076 10.423
15.0228 10.668
15.0379 10.764
15.0531 10.571
15.0683 10.459
15.0835 10.380
15.0986 10.492
15.1138 10.815
15.1290 10.781
15.1442 10.666
15.1593 10.525
15.1745 10.876
15.1897 10.483
15.2049 10.416
15.2200 10.059
15.2352 10.968
15.2504 10.278
15.2656 10.122
15.2807 10.131
15.2959 10.571
15.3111 10.287
15.3263 10.439
15.3414 10.248
15.3566 10.345
15.3718 10.400
15.3870 10.035
15.4021 10.538
15.4173 10.394
15.4325 10.467
15.4477 10.467
15.4628 10.634
15.4780 10.517
15.4932 10.626
15.5084 10.281
15.5235 10.453
15.5387 10.297
15.5539 10.546
15.5691 10.071
15.5842 10.194
15.5994 10.100
15.6146 10.173
15.6298 9.946
15.6449 9.658
15.6601 9.958
15.6753 10.067
15.6905 9.739
15.7056 9.896
15.7208 9.931
15.7360 9.749
15.7512 9.812
15.7663 10.037
15.7815 10.048
15.7967 9.776
15.8119 10.005
15.8270 10.034
15.8422 9.672
15.8574 9.811
15.8726 9.545
15.8877 9.646
15.9029 9.672
15.9181 10.190
15.9333 10.047
15.9484 9.693
15.9636 9.794
15.9788 9.900
15.9940 9.828
16.0091 9.914
16.0243 9.750
16.0395 9.591
16.0547 9.733
16.0698 10.198
16.0850 9.997
16.1002 9.557
16.1154 9.701
16.1305 9.752
16.1457 9.733
16.1609 9.891
16.1761 9.630
16.1912 9.575
16.2064 9.881
16.2216 9.624
16.2368 9.842
16.2519 9.887
16.2671 9.963
16.2823 10.093
16.2975 10.076
16.3126 9.819
16.3278 9.803
16.3430 10.038
16.3582 10.248
16.3733 10.127
16.3885 10.088
16.4037 10.019
16.4189 9.932
16.4340 9.835
16.4492 9.808
16.4644 10.036
16.4796 9.941
16.4947 10.028
16.5099 9.904
16.5251 9.783
16.5403 9.691
16.5554 9.539
16.5706 9.615
16.5858 9.630
16.6010 9.685
16.6161 9.834
16.6313 9.958
16.6465 9.757
16.6617 9.597
16.6768 9.881
16.6920 9.848
16.7072 9.938
16.7224 9.918
16.7375 9.864
16.7527 9.935
16.7679 9.996
16.7831 9.833
16.7982 10.034
16.8134 10.071
16.8286 9.768
16.8438 9.719
16.8589 9.849
16.8741 9.766
16.8893 9.683
16.9045 9.928
16.9196 9.857
16.9348 9.767
16.9500 9.747
16.9652 9.860
16.9803 9.891
16.9955 9.792
17.0107 9.837
17.0259 9.892
17.0410 10.080
17.0562 10.203
17.0714 10.280
17.0866 10.281
17.1017 10.349
17.1169 10.713
17.1321 11.143
17.1473 11.381
17.1624 11.566
17.1776 12.197
17.1928 13.022
17.2080 13.976
17.2231 15.158
17.2383 16.509
17.2535 17.741
17.2687 18.576
17.2838 18.521
17.2990 17.782
17.3142 17.122
17.3294 16.391
17.3445 16.221
17.3597 16.401
17.3749 15.854
17.3901 15.169
17.4052 14.556
17.4204 13.492
17.4356 12.550
17.4508 12.023
17.4659 11.679
17.4811 11.434
17.4963 11.334
17.5115 11.415
17.5266 11.439
17.5418 11.416
17.5570 11.456
17.5722 11.484
17.5873 11.526
17.6025 11.504
17.6177 11.220
17.6329 10.987
17.6480 10.837
17.6632 10.819
17.6784 10.806
17.6936 10.774
17.7087 10.933
17.7239 10.801
17.7391 10.528
17.7543 10.619
17.7694 10.598
17.7846 10.384
17.7998 10.329
17.8150 10.427
17.8301 10.396
17.8453 10.247
17.8605 10.359
17.8757 10.244
17.8908 10.021
17.9060 10.299
17.9212 10.248
17.9364 10.231
17.9515 10.353
17.9667 10.404
17.9819 10.398
17.9971 10.091
18.0122 10.242
18.0274 10.462
18.0426 10.171
18.0578 10.290
18.0729 10.219
18.0881 10.101
18.1033 10.276
18.1185 10.204
18.1336 9.810
18.1488 9.741
18.1640 10.002
18.1792 10.006
18.1943 9.951
18.2095 9.755
18.2247 9.905
18.2399 10.008
18.2550 9.851
18.2702 9.716
18.2854 9.793
18.3006 9.890
18.3157 9.691
18.3309 9.729
18.3461 9.742
18.3613 9.732
18.3764 9.786
18.3916 9.771
18.4068 9.695
18.4220 9.514
18.4371 9.685
18.4523 9.660
18.4675 9.954
18.4827 9.766
18.4978 9.594
18.5130 9.707
18.5282 9.784
18.5434 9.845
18.5585 9.620
18.5737 9.434
18.5889 9.596
18.6041 9.739
18.6192 9.906
18.6344 9.836
18.6496 9.802
18.6648 9.606
18.6799 9.583
18.6951 9.722
18.7103 9.884
18.7255 9.909
18.7406 9.944
18.7558 9.900
18.7710 9.698
18.7862 9.620
18.8013 9.496
18.8165 9.688
18.8317 9.744
18.8469 9.735
18.8620 9.930
18.8772 10.126
18.8924 10.002
18.9076 9.946
18.9227 9.931
18.9379 9.998
18.9531 10.075
18.9683 9.965
18.9834 10.225
18.9986 10.333
19.0138 10.184
19.0290 10.246
19.0441 10.191
19.0593 10.225
19.0745 10.215
19.0897 10.247
19.1048 10.410
19.1200 10.207
19.1352 10.391
19.1504 10.576
19.1655 10.642
19.1807 10.522
19.1959 10.548
19.2111 10.796
19.2262 10.675
19.2414 10.639
19.2566 10.858
19.2718 10.772
19.2869 10.771
19.3021 10.873
19.3173 10.742
19.3325 10.810
19.3476 10.852
19.3628 10.932
19.3780 10.926
19.3932 10.817
19.4083 11.212
19.4235 11.186
19.4387 11.050
19.4539 11.219
19.4690 11.295
19.4842 11.213
19.4994 11.406
19.5146 11.601
19.5297 11.580
19.5449 11.571
19.5601 11.638
19.5753 11.411
19.5904 11.342
19.6056 11.553
19.6208 11.552
19.6360 11.710
19.6511 11.727
19.6663 11.571
19.6815 11.562
19.6967 11.842
19.7118 11.911
19.7270 11.832
19.7422 11.837
19.7574 11.635
19.7725 11.662
19.7877 11.938
19.8029 12.009
19.8180 12.077
19.8332 12.186
19.8484 12.089
19.8636 12.286
19.8787 12.612
19.8939 12.806
19.9091 13.195
19.9243 13.343
19.9394 13.446
19.9546 13.889
19.9698 14.362
19.9850 14.592
20.0001 14.397
20.0153 14.256
20.0305 14.010
20.0457 13.882
20.0608 13.803
20.0760 13.802
20.0912 13.494
20.1064 13.810
20.1215 13.924
20.1367 13.497
20.1519 13.150
20.1671 13.122
20.1822 12.928
20.1974 12.867
20.2126 13.189
20.2278 13.104
20.2429 12.793
20.2581 12.340
20.2733 12.404
20.2885 12.145
20.3036 11.838
20.3188 12.089
20.3340 11.916
20.3492 11.476
20.3643 11.486
20.3795 11.462
20.3947 11.262
20.4099 11.300
20.4250 10.994
20.4402 10.948
20.4554 10.959
20.4706 10.881
20.4857 10.706
20.5009 10.700
20.5161 10.783
20.5313 10.638
20.5464 10.714
20.5616 10.640
20.5768 10.583
20.5920 10.669
20.6071 10.843
20.6223 10.829
20.6375 10.858
20.6527 10.852
20.6678 10.841
20.6830 10.760
20.6982 10.460
20.7134 10.356
20.7285 10.431
20.7437 10.436
20.7589 10.485
20.7741 10.242
20.7892 10.326
20.8044 10.263
20.8196 10.130
20.8348 10.189
20.8499 9.980
20.8651 10.176
20.8803 10.121
20.8955 10.492
20.9106 10.361
20.9258 9.883
20.9410 10.107
20.9562 10.272
20.9713 10.093
20.9865 10.099
21.0017 9.903
21.0169 10.110
21.0320 10.057
21.0472 10.167
21.0624 9.775
21.0776 9.717
21.0927 9.933
21.1079 9.741
21.1231 9.893
21.1383 9.748
21.1534 9.677
21.1686 9.966
21.1838 9.991
21.1990 9.777
21.2141 9.808
21.2293 9.907
21.2445 9.874
21.2597 9.894
21.2748 9.569
21.2900 9.874
21.3052 9.808
21.3204 9.528
21.3355 9.642
21.3507 9.319
21.3659 9.792
21.3811 9.630
21.3962 9.433
21.4114 9.529
21.4266 9.476
21.4418 9.474
21.4569 9.540
21.4721 9.508
21.4873 9.422
21.5025 9.017
21.5176 9.497
21.5328 9.598
21.5480 9.170
21.5632 9.508
21.5783 9.561
21.5935 9.110
21.6087 9.070
21.6239 9.381
21.6390 9.274
21.6542 9.269
21.6694 9.071
21.6846 9.142
21.6997 9.320
21.7149 9.326
21.7301 9.304
21.7453 9.231
21.7604 9.449
21.7756 9.191
21.7908 9.206
21.8060 9.296
21.8211 9.171
21.8363 9.094
21.8515 9.100
21.8667 9.148
21.8818 9.189
21.8970 9.054
21.9122 8.951
21.9274 9.176
21.9425 9.071
21.9577 8.978
21.9729 9.130
21.9881 8.977
22.0032 8.928
22.0184 9.050
22.0336 8.997
22.0488 9.024
22.0639 8.958
22.0791 8.788
22.0943 8.729
22.1095 8.680
22.1246 8.574
22.1398 8.794
22.1550 8.608
22.1702 8.475
22.1853 8.562
22.2005 8.748
22.2157 8.721
22.2309 8.756
22.2460 8.494
22.2612 8.563
22.2764 8.861
22.2916 8.856
22.3067 8.833
22.3219 8.643
22.3371 8.773
22.3523 8.726
22.3674 8.688
22.3826 8.573
22.3978 8.575
22.4130 8.844
22.4281 8.600
22.4433 8.622
22.4585 8.480
22.4737 8.578
22.4888 8.621
22.5040 8.519
22.5192 8.570
22.5344 8.343
22.5495 8.691
22.5647 8.413
22.5799 8.593
22.5951 8.712
22.6102 8.503
22.6254 8.670
22.6406 8.431
22.6558 8.620
22.6709 8.703
22.6861 8.081
22.7013 8.274
22.7165 8.018
22.7316 6.610
