'Id: "" Comment: "" Operator: "Lab Manager" Anode: "Mo" Scantype: "Still (Eiger2R_500K (1D mode))" TimePerStep: "300" X: "11.8" Y: "9.4" Z: "11.284" 
7.2532 18.754
7.2684 18.749
7.2836 18.537
7.2987 18.887
7.3139 19.312
7.3291 18.682
7.3443 18.958
7.3594 18.948
7.3746 19.215
7.3898 19.278
7.4050 19.551
7.4201 19.530
7.4353 19.392
7.4505 19.239
7.4657 19.393
7.4808 19.573
7.4960 19.576
7.5112 19.453
7.5264 19.273
7.5415 19.754
7.5567 19.902
7.5719 19.632
7.5871 19.897
7.6022 20.034
7.6174 20.215
7.6326 20.393
7.6478 20.385
7.6629 20.296
7.6781 20.039
7.6933 19.960
7.7085 20.009
7.7236 20.044
7.7388 20.196
7.7540 20.416
7.7692 20.766
7.7843 20.567
7.7995 20.476
7.8147 20.605
7.8299 20.579
7.8450 20.640
7.8602 20.477
7.8754 20.617
7.8905 20.524
7.9057 20.263
7.9209 20.695
7.9361 21.130
7.9512 21.091
7.9664 20.877
7.9816 21.037
7.9968 21.074
8.0119 21.065
8.0271 20.931
8.0423 20.761
8.0575 21.034
8.0726 21.036
8.0878 21.139
8.1030 20.773
8.1182 20.736
8.1333 21.205
8.1485 21.195
8.1637 21.082
8.1789 21.740
8.1940 21.362
8.2092 21.400
8.2244 21.781
8.2396 21.381
8.2547 21.208
8.2699 21.318
8.2851 21.276
8.3003 21.832
8.3154 21.477
8.3306 21.353
8.3458 21.476
8.3610 21.354
8.3761 21.429
8.3913 21.949
8.4065 21.442
8.4217 22.102
8.4368 21.888
8.4520 21.856
8.4672 22.162
8.4824 21.791
8.4975 21.726
8.5127 21.836
8.5279 22.001
8.5431 21.875
8.5582 22.276
8.5734 22.228
8.5886 22.150
8.6038 22.289
8.6189 22.159
8.6341 22.229
8.6493 22.179
8.6645 22.020
8.6796 22.512
8.6948 22.099
8.7100 22.221
8.7252 21.804
8.7403 22.491
8.7555 22.379
8.7707 22.375
8.7859 22.295
8.8010 22.203
8.8162 22.033
8.8314 21.919
8.8466 22.335
8.8617 22.568
8.8769 22.174
8.8921 22.553
8.9073 22.360
8.9224 22.664
8.9376 22.569
8.9528 22.717
8.9680 22.677
8.9831 22.262
8.9983 22.656
9.0135 22.839
9.0287 22.901
9.0438 22.812
9.0590 22.944
9.0742 22.467
9.0894 22.820
9.1045 22.822
9.1197 22.611
9.1349 22.641
9.1501 22.744
9.1652 22.880
9.1804 22.953
9.1956 22.835
9.2108 22.706
9.2259 22.977
9.2411 22.823
9.2563 22.821
9.2715 22.834
9.2866 22.500
9.3018 22.670
9.3170 22.953
9.3322 22.766
9.3473 22.924
9.3625 22.694
9.3777 22.698
9.3929 22.861
9.4080 22.904
9.4232 23.053
9.4384 23.066
9.4536 23.072
9.4687 22.969
9.4839 22.895
9.4991 22.696
9.5143 22.853
9.5294 22.985
9.5446 22.976
9.5598 23.326
9.5750 23.028
9.5901 22.901
9.6053 23.313
9.6205 23.185
9.6357 23.399
9.6508 23.710
9.6660 23.770
9.6812 23.901
9.6964 23.950
9.7115 23.816
9.7267 23.995
9.7419 23.987
9.7571 23.851
9.7722 23.727
9.7874 23.586
9.8026 23.674
9.8178 23.720
9.8329 23.752
9.8481 23.526
9.8633 23.231
9.8785 23.356
9.8936 23.856
9.9088 23.793
9.9240 23.259
9.9392 23.086
9.9543 22.942
9.9695 22.940
9.9847 22.952
9.9999 23.093
10.0150 23.093
10.0302 23.020
10.0454 22.961
10.0606 22.865
10.0757 22.792
10.0909 23.200
10.1061 23.668
10.1213 23.627
10.1364 23.281
10.1516 23.109
10.1668 23.193
10.1820 23.473
10.1971 23.205
10.2123 23.147
10.2275 22.879
10.2427 23.128
10.2578 23.346
10.2730 23.027
10.2882 22.734
10.3034 22.781
10.3185 22.804
10.3337 22.803
10.3489 22.605
10.3641 22.493
10.3792 22.767
10.3944 22.843
10.4096 22.646
10.4248 22.350
10.4399 22.122
10.4551 22.378
10.4703 22.655
10.4855 22.308
10.5006 22.457
10.5158 22.522
10.5310 22.563
10.5462 22.169
10.5613 22.275
10.5765 22.423
10.5917 22.481
10.6069 22.569
10.6220 22.499
10.6372 22.506
10.6524 22.560
10.6676 22.571
10.6827 22.320
10.6979 22.455
10.7131 22.664
10.7283 22.255
10.7434 22.538
10.7586 22.621
10.7738 22.198
10.7890 22.227
10.8041 22.222
10.8193 22.362
10.8345 22.291
10.8497 22.304
10.8648 22.412
10.8800 22.296
10.8952 22.265
10.9104 22.040
10.9255 22.090
10.9407 22.040
10.9559 22.158
10.9711 22.052
10.9862 21.862
11.0014 21.898
11.0166 21.922
11.0318 22.060
11.0469 21.809
11.0621 21.435
11.0773 21.767
11.0925 21.763
11.1076 21.561
11.1228 21.700
11.1380 21.704
11.1532 21.560
11.1683 21.694
11.1835 21.287
11.1987 21.356
11.2139 21.646
11.2290 21.860
11.2442 21.896
11.2594 22.259
11.2746 21.495
11.2897 21.425
11.3049 21.832
11.3201 21.365
11.3353 21.419
11.3504 21.413
11.3656 21.249
11.3808 21.322
11.3960 21.556
11.4111 21.534
11.4263 21.602
11.4415 21.133
11.4567 21.100
11.4718 21.357
11.4870 21.333
11.5022 21.093
11.5174 21.484
11.5325 21.200
11.5477 20.975
11.5629 20.957
11.5781 20.922
11.5932 20.532
11.6084 20.700
11.6236 20.850
11.6388 20.710
11.6539 20.831
11.6691 20.666
11.6843 20.172
11.6995 20.471
11.7146 20.460
11.7298 20.563
11.7450 20.525
11.7602 20.256
11.7753 20.213
11.7905 19.992
11.8057 20.056
11.8209 20.099
11.8360 20.228
11.8512 19.954
11.8664 19.752
11.8816 19.720
11.8967 19.713
11.9119 19.990
11.9271 19.593
11.9423 19.258
11.9574 19.374
11.9726 19.311
11.9878 19.159
12.0030 19.395
12.0181 19.155
12.0333 19.040
12.0485 19.237
12.0637 19.104
12.0788 18.915
12.0940 18.663
12.1092 18.583
12.1244 18.750
12.1395 18.825
12.1547 18.607
12.1699 18.487
12.1851 18.486
12.2002 18.339
12.2154 18.449
12.2306 18.266
12.2458 17.882
12.2609 17.915
12.2761 17.956
12.2913 17.871
12.3065 17.516
12.3216 17.219
12.3368 17.644
12.3520 17.570
12.3672 17.185
12.3823 17.326
12.3975 17.355
12.4127 17.119
12.4279 17.080
12.4430 16.857
12.4582 16.817
12.4734 17.093
12.4886 16.971
12.5037 16.559
12.5189 16.787
12.5341 16.354
12.5493 16.331
12.5644 16.309
12.5796 16.135
12.5948 15.938
12.6100 16.193
12.6251 15.957
12.6403 15.796
12.6555 15.798
12.6707 15.686
12.6858 15.682
12.7010 15.713
12.7162 15.676
12.7314 15.497
12.7465 15.385
12.7617 15.455
12.7769 15.415
12.7921 15.247
12.8072 14.781
12.8224 14.633
12.8376 14.697
12.8528 14.988
12.8679 15.034
12.8831 14.820
12.8983 14.711
12.9135 14.515
12.9286 14.484
12.9438 14.631
12.9590 14.706
12.9742 14.576
12.9893 14.668
13.0045 14.412
13.0197 14.205
13.0349 14.331
13.0500 14.208
13.0652 14.291
13.0804 14.048
13.0956 13.712
13.1107 13.703
13.1259 13.747
13.1411 13.928
13.1563 14.113
13.1714 14.014
13.1866 13.757
13.2018 13.669
13.2170 13.532
13.2321 13.408
13.2473 13.401
13.2625 13.326
13.2777 13.125
13.2928 13.147
13.3080 13.264
13.3232 13.229
13.3384 13.156
13.3535 13.088
13.3687 13.251
13.3839 13.228
13.3991 13.248
13.4142 13.279
13.4294 12.940
13.4446 13.020
13.4598 13.162
13.4749 12.944
13.4901 12.777
13.5053 12.462
13.5205 12.410
13.5356 12.434
13.5508 12.415
13.5660 12.766
13.5812 12.560
13.5963 12.447
13.6115 12.355
13.6267 12.133
13.6419 12.298
13.6570 12.152
13.6722 12.126
13.6874 12.183
13.7026 11.995
13.7177 11.894
13.7329 11.909
13.7481 12.226
13.7633 12.250
13.7784 12.011
13.7936 11.950
13.8088 12.174
13.8239 12.027
13.8391 12.265
13.8543 12.266
13.8695 12.251
13.8846 12.288
13.8998 12.302
13.9150 11.979
13.9302 11.867
13.9453 12.020
13.9605 11.999
13.9757 11.907
13.9909 12.101
14.0060 12.064
14.0212 11.751
14.0364 11.794
14.0516 11.585
14.0667 11.603
14.0819 11.800
14.0971 11.891
14.1123 11.835
14.1274 11.569
14.1426 11.597
14.1578 11.803
14.1730 11.860
14.1881 11.752
14.2033 11.659
14.2185 11.740
14.2337 12.071
14.2488 11.858
14.2640 11.828
14.2792 11.921
14.2944 12.139
14.3095 12.025
14.3247 12.025
14.3399 12.133
14.3551 12.723
14.3702 13.079
14.3854 12.989
14.4006 12.649
14.4158 12.784
14.4309 12.970
14.4461 12.862
14.4613 12.510
14.4765 12.469
14.4916 11.935
14.5068 11.996
14.5220 11.845
14.5372 11.763
14.5523 11.321
14.5675 11.291
14.5827 11.077
14.5979 10.429
14.6130 10.925
14.6282 11.142
14.6434 10.728
14.6586 10.560
14.6737 10.526
14.6889 10.678
14.7041 10.920
14.7193 10.849
14.7344 10.842
14.7496 10.569
14.7648 10.449
14.7800 10.469
14.7951 10.579
14.8103 10.508
14.8255 10.534
14.8407 10.437
14.8558 10.419
14.8710 10.570
14.8862 10.219
14.9014 10.087
14.9165 10.656
14.9317 10.296
14.9469 10.017
14.9621 10.257
14.9772 9.871
14.9924 10.620
15.0076 10.574
15.0228 10.329
15.0379 9.998
15.0531 10.598
15.0683 10.513
15.0835 9.883
15.0986 10.164
15.1138 10.237
15.1290 10.545
15.1442 9.893
15.1593 9.713
15.1745 9.901
15.1897 10.137
15.2049 10.053
15.2200 9.929
15.2352 10.330
15.2504 10.190
15.2656 10.021
15.2807 10.332
15.2959 10.033
15.3111 9.776
15.3263 10.359
15.3414 10.491
15.3566 10.605
15.3718 10.089
15.3870 10.000
15.4021 10.153
15.4173 10.241
15.4325 10.255
15.4477 10.329
15.4628 10.251
15.4780 10.026
15.4932 9.913
15.5084 9.800
15.5235 10.312
15.5387 9.829
15.5539 10.052
15.5691 10.039
15.5842 10.035
15.5994 9.769
15.6146 9.564
15.6298 9.842
15.6449 9.922
15.6601 9.691
15.6753 9.708
15.6905 9.671
15.7056 9.696
15.7208 9.753
15.7360 9.726
15.7512 9.855
15.7663 9.697
15.7815 10.017
15.7967 9.647
15.8119 9.489
15.8270 9.695
15.8422 9.632
15.8574 9.674
15.8726 9.356
15.8877 9.598
15.9029 9.633
15.9181 9.415
15.9333 9.581
15.9484 9.715
15.9636 9.646
15.9788 9.640
15.9940 9.741
16.0091 9.809
16.0243 9.389
16.0395 9.445
16.0547 9.246
16.0698 9.239
16.0850 9.449
16.1002 9.616
16.1154 9.457
16.1305 9.227
16.1457 9.481
16.1609 9.641
16.1761 9.306
16.1912 9.452
16.2064 9.624
16.2216 9.950
16.2368 9.889
16.2519 10.082
16.2671 9.777
16.2823 9.586
16.2975 9.631
16.3126 9.845
16.3278 10.030
16.3430 9.836
16.3582 9.795
16.3733 9.806
16.3885 9.632
16.4037 9.471
16.4189 9.794
16.4340 9.678
16.4492 9.473
16.4644 9.668
16.4796 9.438
16.4947 9.602
16.5099 9.572
16.5251 9.677
16.5403 9.450
16.5554 9.512
16.5706 9.639
16.5858 9.636
16.6010 9.645
16.6161 9.586
16.6313 9.637
16.6465 9.819
16.6617 9.700
16.6768 9.646
16.6920 9.829
16.7072 10.107
16.7224 9.967
16.7375 9.833
16.7527 9.803
16.7679 9.750
16.7831 9.907
16.7982 9.863
16.8134 9.823
16.8286 9.772
16.8438 9.657
16.8589 9.672
16.8741 9.607
16.8893 9.933
16.9045 9.859
16.9196 9.548
16.9348 9.617
16.9500 9.842
16.9652 10.001
16.9803 9.821
16.9955 9.648
17.0107 9.935
17.0259 9.986
17.0410 9.918
17.0562 10.364
17.0714 10.318
17.0866 10.245
17.1017 10.616
17.1169 10.777
17.1321 10.961
17.1473 11.455
17.1624 11.875
17.1776 12.328
17.1928 13.063
17.2080 13.983
17.2231 14.947
17.2383 15.898
17.2535 17.375
17.2687 18.466
17.2838 18.630
17.2990 18.203
17.3142 17.221
17.3294 16.399
17.3445 16.215
17.3597 16.155
17.3749 15.958
17.3901 15.349
17.4052 14.263
17.4204 13.258
17.4356 12.387
17.4508 11.885
17.4659 11.886
17.4811 11.611
17.4963 11.402
17.5115 11.553
17.5266 11.306
17.5418 10.858
17.5570 10.761
17.5722 10.924
17.5873 11.091
17.6025 11.293
17.6177 11.204
17.6329 11.271
17.6480 11.246
17.6632 11.281
17.6784 11.511
17.6936 11.583
17.7087 11.455
17.7239 11.119
17.7391 11.107
17.7543 11.210
17.7694 11.137
17.7846 10.768
17.7998 10.592
17.8150 10.698
17.8301 10.792
17.8453 10.671
17.8605 10.426
17.8757 10.445
17.8908 10.483
17.9060 10.392
17.9212 10.102
17.9364 10.062
17.9515 10.185
17.9667 10.038
17.9819 10.076
17.9971 10.127
18.0122 10.396
18.0274 10.346
18.0426 10.164
18.0578 10.047
18.0729 10.019
18.0881 10.008
18.1033 9.914
18.1185 10.001
18.1336 9.920
18.1488 9.853
18.1640 10.129
18.1792 10.044
18.1943 9.840
18.2095 9.722
18.2247 9.816
18.2399 9.929
18.2550 9.815
18.2702 9.913
18.2854 9.884
18.3006 9.783
18.3157 9.796
18.3309 9.840
18.3461 9.912
18.3613 9.887
18.3764 9.853
18.3916 9.722
18.4068 9.806
18.4220 9.775
18.4371 9.775
18.4523 9.695
18.4675 9.876
18.4827 10.163
18.4978 9.822
18.5130 9.829
18.5282 9.742
18.5434 9.960
18.5585 9.848
18.5737 9.843
18.5889 9.921
18.6041 10.069
18.6192 9.933
18.6344 9.655
18.6496 9.644
18.6648 9.648
18.6799 9.832
18.6951 10.042
18.7103 9.811
18.7255 9.667
18.7406 9.874
18.7558 9.756
18.7710 9.655
18.7862 9.797
18.8013 9.749
18.8165 9.954
18.8317 9.958
18.8469 9.817
18.8620 9.893
18.8772 10.073
18.8924 9.962
18.9076 9.891
18.9227 9.756
18.9379 9.908
18.9531 10.129
18.9683 9.937
18.9834 9.976
18.9986 10.157
19.0138 10.108
19.0290 10.107
19.0441 10.337
19.0593 10.494
19.0745 10.523
19.0897 10.335
19.1048 10.151
19.1200 10.502
19.1352 10.559
19.1504 10.522
19.1655 10.705
19.1807 10.752
19.1959 10.753
19.2111 10.815
19.2262 10.597
19.2414 10.627
19.2566 10.616
19.2718 10.779
19.2869 11.044
19.3021 11.143
19.3173 11.043
19.3325 10.923
19.3476 10.826
19.3628 11.033
19.3780 11.252
19.3932 11.246
19.4083 11.264
19.4235 11.184
19.4387 11.227
19.4539 11.300
19.4690 11.320
19.4842 11.293
19.4994 11.430
19.5146 11.475
19.5297 11.502
19.5449 11.713
19.5601 11.738
19.5753 11.530
19.5904 11.385
19.6056 11.497
19.6208 11.551
19.6360 11.607
19.6511 11.761
19.6663 11.941
19.6815 11.887
19.6967 11.672
19.7118 11.788
19.7270 11.736
19.7422 11.895
19.7574 12.198
19.7725 11.893
19.7877 11.818
19.8029 12.147
19.8180 12.314
19.8332 12.440
19.8484 12.524
19.8636 12.632
19.8787 12.835
19.8939 13.138
19.9091 13.511
19.9243 13.605
19.9394 13.798
19.9546 14.270
19.9698 14.684
19.9850 14.791
20.0001 14.774
20.0153 14.332
20.0305 14.146
20.0457 14.112
20.0608 13.866
20.0760 13.890
20.0912 13.926
20.1064 13.670
20.1215 13.411
20.1367 13.248
20.1519 13.017
20.1671 12.881
20.1822 12.849
20.1974 12.799
20.2126 12.768
20.2278 12.680
20.2429 12.698
20.2581 12.466
20.2733 12.116
20.2885 12.070
20.3036 12.182
20.3188 12.366
20.3340 12.345
20.3492 12.233
20.3643 11.885
20.3795 11.931
20.3947 11.957
20.4099 11.807
20.4250 12.026
20.4402 12.133
20.4554 11.939
20.4706 11.767
20.4857 11.447
20.5009 11.512
20.5161 11.400
20.5313 11.460
20.5464 11.399
20.5616 11.453
20.5768 11.375
20.5920 11.216
20.6071 11.285
20.6223 11.026
20.6375 11.102
20.6527 10.897
20.6678 10.992
20.6830 10.717
20.6982 10.992
20.7134 10.831
20.7285 10.564
20.7437 10.690
20.7589 10.716
20.7741 10.655
20.7892 10.623
20.8044 10.440
20.8196 10.298
20.8348 10.089
20.8499 10.203
20.8651 10.398
20.8803 10.332
20.8955 10.289
20.9106 10.203
20.9258 10.243
20.9410 10.296
20.9562 10.224
20.9713 10.248
20.9865 10.038
21.0017 10.225
21.0169 10.343
21.0320 10.137
21.0472 10.274
21.0624 10.184
21.0776 9.744
21.0927 9.979
21.1079 10.002
21.1231 10.125
21.1383 9.932
21.1534 9.758
21.1686 9.940
21.1838 9.667
21.1990 9.791
21.2141 9.953
21.2293 10.083
21.2445 9.512
21.2597 10.049
21.2748 9.351
21.2900 9.694
21.3052 9.911
21.3204 9.553
21.3355 9.807
21.3507 9.702
21.3659 9.437
21.3811 9.560
21.3962 9.433
21.4114 9.863
21.4266 9.352
21.4418 9.147
21.4569 9.314
21.4721 9.157
21.4873 9.498
21.5025 9.582
21.5176 9.470
21.5328 9.547
21.5480 9.468
21.5632 9.564
21.5783 9.609
21.5935 9.280
21.6087 9.324
21.6239 9.355
21.6390 9.092
21.6542 9.096
21.6694 9.082
21.6846 9.280
21.6997 9.092
21.7149 9.202
21.7301 9.018
21.7453 9.043
21.7604 9.041
21.7756 9.159
21.7908 9.120
21.8060 9.078
21.8211 9.093
21.8363 9.014
21.8515 9.078
21.8667 9.176
21.8818 9.098
21.8970 9.034
21.9122 9.073
21.9274 9.282
21.9425 9.281
21.9577 9.009
21.9729 8.786
21.9881 9.075
22.0032 9.232
22.0184 8.941
22.0336 8.619
22.0488 8.732
22.0639 8.828
22.0791 8.695
22.0943 8.827
22.1095 9.000
22.1246 8.973
22.1398 8.990
22.1550 8.707
22.1702 8.712
22.1853 8.638
22.2005 8.683
22.2157 8.728
22.2309 8.596
22.2460 8.526
22.2612 8.619
22.2764 8.543
22.2916 8.628
22.3067 8.497
22.3219 8.435
22.3371 8.326
22.3523 8.657
22.3674 8.540
22.3826 8.577
22.3978 8.398
22.4130 8.391
22.4281 8.531
22.4433 8.406
22.4585 8.563
22.4737 8.590
22.4888 8.648
22.5040 8.463
22.5192 8.475
22.5344 8.276
22.5495 8.342
22.5647 8.330
22.5799 8.615
22.5951 8.359
22.6102 8.218
22.6254 8.283
22.6406 8.593
22.6558 8.480
22.6709 8.137
22.6861 8.178
22.7013 8.147
22.7165 7.821
22.7316 6.376
