'Id: "" Comment: "" Operator: "Lab Manager" Anode: "Mo" Scantype: "Still (Eiger2R_500K (1D mode))" TimePerStep: "300" X: "11.8" Y: "9.4" Z: "11.284" 
7.2532 18.940
7.2684 18.589
7.2836 19.043
7.2987 19.019
7.3139 18.913
7.3291 18.955
7.3443 19.047
7.3594 18.692
7.3746 18.926
7.3898 19.272
7.4050 19.482
7.4201 19.547
7.4353 19.749
7.4505 19.267
7.4657 19.575
7.4808 19.460
7.4960 19.716
7.5112 19.645
7.5264 19.556
7.5415 19.917
7.5567 19.959
7.5719 19.684
7.5871 19.746
7.6022 20.090
7.6174 19.934
7.6326 19.725
7.6478 19.844
7.6629 19.914
7.6781 20.267
7.6933 20.409
7.7085 20.409
7.7236 20.506
7.7388 20.751
7.7540 20.783
7.7692 20.856
7.7843 20.895
7.7995 20.448
7.8147 20.438
7.8299 20.750
7.8450 20.548
7.8602 20.613
7.8754 20.914
7.8905 20.916
7.9057 20.755
7.9209 20.769
7.9361 21.127
7.9512 21.261
7.9664 21.151
7.9816 21.103
7.9968 21.095
8.0119 20.751
8.0271 20.585
8.0423 21.006
8.0575 21.138
8.0726 21.133
8.0878 21.128
8.1030 21.188
8.1182 21.549
8.1333 21.279
8.1485 21.638
8.1637 21.101
8.1789 21.109
8.1940 21.482
8.2092 21.562
8.2244 21.788
8.2396 21.858
8.2547 21.500
8.2699 21.546
8.2851 21.853
8.3003 21.782
8.3154 21.714
8.3306 22.058
8.3458 21.996
8.3610 21.940
8.3761 22.100
8.3913 21.877
8.4065 21.670
8.4217 21.796
8.4368 22.024
8.4520 22.594
8.4672 22.071
8.4824 22.237
8.4975 21.837
8.5127 22.107
8.5279 21.989
8.5431 22.194
8.5582 22.380
8.5734 22.115
8.5886 22.252
8.6038 22.800
8.6189 22.006
8.6341 22.980
8.6493 22.464
8.6645 22.742
8.6796 22.647
8.6948 22.562
8.7100 22.747
8.7252 23.262
8.7403 22.534
8.7555 22.280
8.7707 22.861
8.7859 22.637
8.8010 22.342
8.8162 22.915
8.8314 22.699
8.8466 22.619
8.8617 22.486
8.8769 22.757
8.8921 22.558
8.9073 22.726
8.9224 22.954
8.9376 23.006
8.9528 22.664
8.9680 22.796
8.9831 23.280
8.9983 22.709
9.0135 22.354
9.0287 23.149
9.0438 23.120
9.0590 22.739
9.0742 23.114
9.0894 22.892
9.1045 22.787
9.1197 23.062
9.1349 22.903
9.1501 22.894
9.1652 22.977
9.1804 23.190
9.1956 23.347
9.2108 22.904
9.2259 23.294
9.2411 23.732
9.2563 23.300
9.2715 22.998
9.2866 22.838
9.3018 23.269
9.3170 23.503
9.3322 23.393
9.3473 23.258
9.3625 22.981
9.3777 22.869
9.3929 22.958
9.4080 23.474
9.4232 23.250
9.4384 23.203
9.4536 23.010
9.4687 23.214
9.4839 23.728
9.4991 23.587
9.5143 23.428
9.5294 23.078
9.5446 23.133
9.5598 23.421
9.5750 23.255
9.5901 23.370
9.6053 23.282
9.6205 23.494
9.6357 23.635
9.6508 23.582
9.6660 24.127
9.6812 23.905
9.6964 23.727
9.7115 24.042
9.7267 24.113
9.7419 24.210
9.7571 24.132
9.7722 24.204
9.7874 24.438
9.8026 23.849
9.8178 23.383
9.8329 23.622
9.8481 23.595
9.8633 23.757
9.8785 23.666
9.8936 23.519
9.9088 23.511
9.9240 23.395
9.9392 23.466
9.9543 23.458
9.9695 23.466
9.9847 23.318
9.9999 23.231
10.0150 23.425
10.0302 23.563
10.0454 23.603
10.0606 23.468
10.0757 23.343
10.0909 23.436
10.1061 23.291
10.1213 23.318
10.1364 23.317
10.1516 23.194
10.1668 23.066
10.1820 23.364
10.1971 23.783
10.2123 23.668
10.2275 23.547
10.2427 23.768
10.2578 24.187
10.2730 24.046
10.2882 23.519
10.3034 23.527
10.3185 23.456
10.3337 23.119
10.3489 23.113
10.3641 23.319
10.3792 23.341
10.3944 23.073
10.4096 22.678
10.4248 23.007
10.4399 23.038
10.4551 23.006
10.4703 22.964
10.4855 22.880
10.5006 22.836
10.5158 23.105
10.5310 22.801
10.5462 22.837
10.5613 22.688
10.5765 22.720
10.5917 22.975
10.6069 23.116
10.6220 22.797
10.6372 22.495
10.6524 22.859
10.6676 22.938
10.6827 22.565
10.6979 22.654
10.7131 22.537
10.7283 22.650
10.7434 22.636
10.7586 22.168
10.7738 22.468
10.7890 22.593
10.8041 22.706
10.8193 22.350
10.8345 22.451
10.8497 22.647
10.8648 22.255
10.8800 22.247
10.8952 21.863
10.9104 22.310
10.9255 22.036
10.9407 21.885
10.9559 21.997
10.9711 21.944
10.9862 22.412
11.0014 22.414
11.0166 22.349
11.0318 22.403
11.0469 22.237
11.0621 22.324
11.0773 22.126
11.0925 21.952
11.1076 21.887
11.1228 21.892
11.1380 21.671
11.1532 22.086
11.1683 21.997
11.1835 21.958
11.1987 22.136
11.2139 21.694
11.2290 21.818
11.2442 21.844
11.2594 21.791
11.2746 21.994
11.2897 22.277
11.3049 22.176
11.3201 21.730
11.3353 21.623
11.3504 21.518
11.3656 21.533
11.3808 21.561
11.3960 21.467
11.4111 21.221
11.4263 21.262
11.4415 20.981
11.4567 21.193
11.4718 21.309
11.4870 21.331
11.5022 21.407
11.5174 21.091
11.5325 21.221
11.5477 21.132
11.5629 20.622
11.5781 20.801
11.5932 21.041
11.6084 20.945
11.6236 20.684
11.6388 20.591
11.6539 20.762
11.6691 20.536
11.6843 20.440
11.6995 20.630
11.7146 20.495
11.7298 20.341
11.7450 20.485
11.7602 20.479
11.7753 20.363
11.7905 20.309
11.8057 19.948
11.8209 20.249
11.8360 20.403
11.8512 20.253
11.8664 20.444
11.8816 19.998
11.8967 19.521
11.9119 19.535
11.9271 19.725
11.9423 19.941
11.9574 19.636
11.9726 19.301
11.9878 19.550
12.0030 19.734
12.0181 19.465
12.0333 19.320
12.0485 18.928
12.0637 19.151
12.0788 19.178
12.0940 18.793
12.1092 18.832
12.1244 18.964
12.1395 18.684
12.1547 18.547
12.1699 18.534
12.1851 18.437
12.2002 18.407
12.2154 18.122
12.2306 18.179
12.2458 18.341
12.2609 18.053
12.2761 17.930
12.2913 17.937
12.3065 17.870
12.3216 17.713
12.3368 17.795
12.3520 17.931
12.3672 17.751
12.3823 17.637
12.3975 17.406
12.4127 17.407
12.4279 17.268
12.4430 17.019
12.4582 17.115
12.4734 17.279
12.4886 17.089
12.5037 16.827
12.5189 16.824
12.5341 16.806
12.5493 16.738
12.5644 16.546
12.5796 16.190
12.5948 15.931
12.6100 16.028
12.6251 16.145
12.6403 16.091
12.6555 16.025
12.6707 15.793
12.6858 15.758
12.7010 15.854
12.7162 15.713
12.7314 15.638
12.7465 15.607
12.7617 15.581
12.7769 15.777
12.7921 15.558
12.8072 15.178
12.8224 15.225
12.8376 15.139
12.8528 14.941
12.8679 15.068
12.8831 15.104
12.8983 14.734
12.9135 14.731
12.9286 14.693
12.9438 14.632
12.9590 14.560
12.9742 14.568
12.9893 14.477
13.0045 14.215
13.0197 14.273
13.0349 14.369
13.0500 14.271
13.0652 14.085
13.0804 14.038
13.0956 13.959
13.1107 13.910
13.1259 13.957
13.1411 13.801
13.1563 13.658
13.1714 13.586
13.1866 13.726
13.2018 13.813
13.2170 13.459
13.2321 13.314
13.2473 13.498
13.2625 13.503
13.2777 13.318
13.2928 13.132
13.3080 13.058
13.3232 13.113
13.3384 13.264
13.3535 13.120
13.3687 12.825
13.3839 13.114
13.3991 13.214
13.4142 13.236
13.4294 13.248
13.4446 12.898
13.4598 12.927
13.4749 13.037
13.4901 12.840
13.5053 12.573
13.5205 12.682
13.5356 12.519
13.5508 12.395
13.5660 12.649
13.5812 12.585
13.5963 12.521
13.6115 12.374
13.6267 12.479
13.6419 12.466
13.6570 12.181
13.6722 12.152
13.6874 12.109
13.7026 12.089
13.7177 12.176
13.7329 12.183
13.7481 12.167
13.7633 12.000
13.7784 12.146
13.7936 12.130
13.8088 12.136
13.8239 12.202
13.8391 12.209
13.8543 12.066
13.8695 12.111
13.8846 12.174
13.8998 11.962
13.9150 12.157
13.9302 12.517
13.9453 12.452
13.9605 12.031
13.9757 11.875
13.9909 11.916
14.0060 11.761
14.0212 11.607
14.0364 11.635
14.0516 11.549
14.0667 11.495
14.0819 11.607
14.0971 11.616
14.1123 11.796
14.1274 11.424
14.1426 11.303
14.1578 11.774
14.1730 11.858
14.1881 11.704
14.2033 11.971
14.2185 11.861
14.2337 11.735
14.2488 11.868
14.2640 11.858
14.2792 12.096
14.2944 12.157
14.3095 12.248
14.3247 12.133
14.3399 12.343
14.3551 12.333
14.3702 12.502
14.3854 12.856
14.4006 12.832
14.4158 12.654
14.4309 12.548
14.4461 12.522
14.4613 12.426
14.4765 12.473
14.4916 11.804
14.5068 11.639
14.5220 11.696
14.5372 11.329
14.5523 11.351
14.5675 11.270
14.5827 11.032
14.5979 11.260
14.6130 11.060
14.6282 11.208
14.6434 11.222
14.6586 10.885
14.6737 11.138
14.6889 11.074
14.7041 11.123
14.7193 10.954
14.7344 10.810
14.7496 11.059
14.7648 10.978
14.7800 10.929
14.7951 10.675
14.8103 10.478
14.8255 10.830
14.8407 10.977
14.8558 10.463
14.8710 10.813
14.8862 10.949
14.9014 10.554
14.9165 10.930
14.9317 10.662
14.9469 10.691
14.9621 10.873
14.9772 10.412
14.9924 10.752
15.0076 10.880
15.0228 10.726
15.0379 10.601
15.0531 10.612
15.0683 10.212
15.0835 10.556
15.0986 10.338
15.1138 10.458
15.1290 10.337
15.1442 10.463
15.1593 10.527
15.1745 10.578
15.1897 10.405
15.2049 10.514
15.2200 10.541
15.2352 10.286
15.2504 10.559
15.2656 10.399
15.2807 10.105
15.2959 10.028
15.3111 10.448
15.3263 10.169
15.3414 10.285
15.3566 10.221
15.3718 10.125
15.3870 10.427
15.4021 10.539
15.4173 10.401
15.4325 10.498
15.4477 10.451
15.4628 10.397
15.4780 10.659
15.4932 10.469
15.5084 10.295
15.5235 10.358
15.5387 10.277
15.5539 10.563
15.5691 9.947
15.5842 10.295
15.5994 9.866
15.6146 10.234
15.6298 10.138
15.6449 10.320
15.6601 9.952
15.6753 10.209
15.6905 10.028
15.7056 10.154
15.7208 9.958
15.7360 10.058
15.7512 9.988
15.7663 9.930
15.7815 9.974
15.7967 10.104
15.8119 10.127
15.8270 10.210
15.8422 10.082
15.8574 9.968
15.8726 9.796
15.8877 9.814
15.9029 9.756
15.9181 9.702
15.9333 9.909
15.9484 9.956
15.9636 9.846
15.9788 9.798
15.9940 10.016
16.0091 10.019
16.0243 9.801
16.0395 9.911
16.0547 9.708
16.0698 10.047
16.0850 9.651
16.1002 9.760
16.1154 9.696
16.1305 9.675
16.1457 9.807
16.1609 9.850
16.1761 10.015
16.1912 9.926
16.2064 9.826
16.2216 9.893
16.2368 9.727
16.2519 9.901
16.2671 9.915
16.2823 10.147
16.2975 10.058
16.3126 10.054
16.3278 10.150
16.3430 10.014
16.3582 10.131
16.3733 10.143
16.3885 10.036
16.4037 9.880
16.4189 9.911
16.4340 9.741
16.4492 9.893
16.4644 10.068
16.4796 9.898
16.4947 9.926
16.5099 10.042
16.5251 9.896
16.5403 9.826
16.5554 9.678
16.5706 9.934
16.5858 9.569
16.6010 9.518
16.6161 9.614
16.6313 9.996
16.6465 10.110
16.6617 9.691
16.6768 9.810
16.6920 9.930
16.7072 10.013
16.7224 10.203
16.7375 10.230
16.7527 10.129
16.7679 9.865
16.7831 10.024
16.7982 10.172
16.8134 10.083
16.8286 10.012
16.8438 9.831
16.8589 9.988
16.8741 10.030
16.8893 9.969
16.9045 9.907
16.9196 9.767
16.9348 10.002
16.9500 9.992
16.9652 9.826
16.9803 9.944
16.9955 9.931
17.0107 9.898
17.0259 9.901
17.0410 10.133
17.0562 10.365
17.0714 10.284
17.0866 10.306
17.1017 10.559
17.1169 10.691
17.1321 10.852
17.1473 11.123
17.1624 11.881
17.1776 12.483
17.1928 13.039
17.2080 14.088
17.2231 15.175
17.2383 16.457
17.2535 17.663
17.2687 18.368
17.2838 18.650
17.2990 18.125
17.3142 17.267
17.3294 16.494
17.3445 16.073
17.3597 16.225
17.3749 16.015
17.3901 15.276
17.4052 14.349
17.4204 13.511
17.4356 12.653
17.4508 11.983
17.4659 11.792
17.4811 11.687
17.4963 11.567
17.5115 11.307
17.5266 11.222
17.5418 11.364
17.5570 11.279
17.5722 11.405
17.5873 11.510
17.6025 11.434
17.6177 11.417
17.6329 11.117
17.6480 10.955
17.6632 10.922
17.6784 10.877
17.6936 10.597
17.7087 10.414
17.7239 10.632
17.7391 10.619
17.7543 10.294
17.7694 10.142
17.7846 10.049
17.7998 10.143
17.8150 10.451
17.8301 10.375
17.8453 10.122
17.8605 9.951
17.8757 10.029
17.8908 10.063
17.9060 10.290
17.9212 10.441
17.9364 10.328
17.9515 10.215
17.9667 10.263
17.9819 10.283
17.9971 10.272
18.0122 10.309
18.0274 10.212
18.0426 10.191
18.0578 10.360
18.0729 10.228
18.0881 10.184
18.1033 10.182
18.1185 10.113
18.1336 10.125
18.1488 10.232
18.1640 10.060
18.1792 10.041
18.1943 10.128
18.2095 10.122
18.2247 10.063
18.2399 9.687
18.2550 9.584
18.2702 9.865
18.2854 10.054
18.3006 9.992
18.3157 9.849
18.3309 9.723
18.3461 9.883
18.3613 10.000
18.3764 9.893
18.3916 9.783
18.4068 9.967
18.4220 9.980
18.4371 9.800
18.4523 9.686
18.4675 9.676
18.4827 9.813
18.4978 9.817
18.5130 9.736
18.5282 9.722
18.5434 9.660
18.5585 9.689
18.5737 9.515
18.5889 9.569
18.6041 9.835
18.6192 9.762
18.6344 9.625
18.6496 9.775
18.6648 9.830
18.6799 9.692
18.6951 9.862
18.7103 9.859
18.7255 9.836
18.7406 9.743
18.7558 9.680
18.7710 9.782
18.7862 9.821
18.8013 9.855
18.8165 9.782
18.8317 9.824
18.8469 9.923
18.8620 10.089
18.8772 10.125
18.8924 10.116
18.9076 9.835
18.9227 9.867
18.9379 10.024
18.9531 9.977
18.9683 9.833
18.9834 10.059
18.9986 10.079
19.0138 10.024
19.0290 9.945
19.0441 9.999
19.0593 10.334
19.0745 10.315
19.0897 10.121
19.1048 10.296
19.1200 10.221
19.1352 10.321
19.1504 10.629
19.1655 10.506
19.1807 10.459
19.1959 10.527
19.2111 10.543
19.2262 10.585
19.2414 10.839
19.2566 10.630
19.2718 10.524
19.2869 10.770
19.3021 10.769
19.3173 10.904
19.3325 10.985
19.3476 10.943
19.3628 10.960
19.3780 11.365
19.3932 11.411
19.4083 11.212
19.4235 11.196
19.4387 11.324
19.4539 11.321
19.4690 11.372
19.4842 11.386
19.4994 11.361
19.5146 11.456
19.5297 11.583
19.5449 11.511
19.5601 11.528
19.5753 11.741
19.5904 11.751
19.6056 11.697
19.6208 11.616
19.6360 11.670
19.6511 11.797
19.6663 11.731
19.6815 11.517
19.6967 11.403
19.7118 11.611
19.7270 11.731
19.7422 11.536
19.7574 11.801
19.7725 11.911
19.7877 11.644
19.8029 11.885
19.8180 12.332
19.8332 12.350
19.8484 12.222
19.8636 12.333
19.8787 12.623
19.8939 12.949
19.9091 13.018
19.9243 13.533
19.9394 14.030
19.9546 14.187
19.9698 14.240
19.9850 14.320
20.0001 14.251
20.0153 14.083
20.0305 14.043
20.0457 13.605
20.0608 13.720
20.0760 13.798
20.0912 13.780
20.1064 13.729
20.1215 13.549
20.1367 13.196
20.1519 13.014
20.1671 13.016
20.1822 12.885
20.1974 13.058
20.2126 12.926
20.2278 12.823
20.2429 12.703
20.2581 12.579
20.2733 12.257
20.2885 11.809
20.3036 11.595
20.3188 11.474
20.3340 11.499
20.3492 11.913
20.3643 11.595
20.3795 11.140
20.3947 10.980
20.4099 10.964
20.4250 11.009
20.4402 11.027
20.4554 10.852
20.4706 10.558
20.4857 10.660
20.5009 10.790
20.5161 10.985
20.5313 10.748
20.5464 10.570
20.5616 10.626
20.5768 10.515
20.5920 10.515
20.6071 10.565
20.6223 10.554
20.6375 10.880
20.6527 10.747
20.6678 10.995
20.6830 10.739
20.6982 10.433
20.7134 10.417
20.7285 10.525
20.7437 10.644
20.7589 10.585
20.7741 10.400
20.7892 10.641
20.8044 10.638
20.8196 10.501
20.8348 10.496
20.8499 10.373
20.8651 10.239
20.8803 10.122
20.8955 9.961
20.9106 10.054
20.9258 10.063
20.9410 10.186
20.9562 10.212
20.9713 10.284
20.9865 10.260
21.0017 10.141
21.0169 9.991
21.0320 10.155
21.0472 10.153
21.0624 9.973
21.0776 9.967
21.0927 9.838
21.1079 10.115
21.1231 10.143
21.1383 9.818
21.1534 9.871
21.1686 9.711
21.1838 9.478
21.1990 10.416
21.2141 9.526
21.2293 9.908
21.2445 9.855
21.2597 9.897
21.2748 9.522
21.2900 9.720
21.3052 9.525
21.3204 9.374
21.3355 9.384
21.3507 9.706
21.3659 9.757
21.3811 9.639
21.3962 9.376
21.4114 9.323
21.4266 9.713
21.4418 9.578
21.4569 9.547
21.4721 9.653
21.4873 9.242
21.5025 9.399
21.5176 9.342
21.5328 9.327
21.5480 9.371
21.5632 9.399
21.5783 8.956
21.5935 9.179
21.6087 9.023
21.6239 9.410
21.6390 9.318
21.6542 8.939
21.6694 9.127
21.6846 9.085
21.6997 8.951
21.7149 8.896
21.7301 9.096
21.7453 9.086
21.7604 9.053
21.7756 9.193
21.7908 9.206
21.8060 9.161
21.8211 8.973
21.8363 8.888
21.8515 9.012
21.8667 9.074
21.8818 9.198
21.8970 9.277
21.9122 9.010
21.9274 8.855
21.9425 8.958
21.9577 8.951
21.9729 8.966
21.9881 9.009
22.0032 9.008
22.0184 8.777
22.0336 8.754
22.0488 8.745
22.0639 8.685
22.0791 8.705
22.0943 8.691
22.1095 8.695
22.1246 8.718
22.1398 8.855
22.1550 8.748
22.1702 8.621
22.1853 8.545
22.2005 8.626
22.2157 8.485
22.2309 8.458
22.2460 8.671
22.2612 8.706
22.2764 8.753
22.2916 8.625
22.3067 8.635
22.3219 8.525
22.3371 8.634
22.3523 8.630
22.3674 8.423
22.3826 8.462
22.3978 8.727
22.4130 8.350
22.4281 8.245
22.4433 8.308
22.4585 8.313
22.4737 8.955
22.4888 8.570
22.5040 8.459
22.5192 8.600
22.5344 8.465
22.5495 8.422
22.5647 8.703
22.5799 8.576
22.5951 8.760
22.6102 8.274
22.6254 8.387
22.6406 8.533
22.6558 8.737
22.6709 8.638
22.6861 8.548
22.7013 8.424
22.7165 8.142
22.7316 6.431
