'Id: "" Comment: "" Operator: "Lab Manager" Anode: "Mo" Scantype: "Still (Eiger2R_500K (1D mode))" TimePerStep: "300" X: "11.8" Y: "9.4" Z: "11.284" 
7.2532 18.795
7.2684 19.090
7.2836 18.749
7.2987 19.091
7.3139 18.834
7.3291 18.589
7.3443 19.396
7.3594 19.144
7.3746 19.384
7.3898 19.460
7.4050 19.392
7.4201 19.633
7.4353 19.504
7.4505 19.817
7.4657 19.497
7.4808 19.758
7.4960 19.950
7.5112 19.824
7.5264 19.587
7.5415 19.388
7.5567 19.692
7.5719 19.956
7.5871 19.656
7.6022 19.505
7.6174 20.046
7.6326 20.270
7.6478 20.110
7.6629 20.008
7.6781 20.035
7.6933 20.428
7.7085 20.800
7.7236 20.770
7.7388 20.543
7.7540 20.498
7.7692 20.322
7.7843 20.431
7.7995 20.666
7.8147 20.622
7.8299 20.781
7.8450 20.874
7.8602 21.100
7.8754 21.318
7.8905 21.115
7.9057 20.834
7.9209 21.157
7.9361 21.086
7.9512 20.903
7.9664 21.067
7.9816 21.115
7.9968 21.196
8.0119 21.506
8.0271 21.452
8.0423 21.136
8.0575 21.274
8.0726 21.371
8.0878 21.365
8.1030 21.583
8.1182 21.401
8.1333 21.508
8.1485 21.523
8.1637 21.514
8.1789 21.881
8.1940 21.721
8.2092 21.411
8.2244 21.521
8.2396 21.661
8.2547 21.625
8.2699 21.784
8.2851 21.905
8.3003 21.956
8.3154 21.916
8.3306 22.141
8.3458 22.108
8.3610 21.927
8.3761 21.802
8.3913 21.931
8.4065 21.982
8.4217 21.724
8.4368 22.398
8.4520 22.037
8.4672 21.838
8.4824 22.010
8.4975 22.039
8.5127 21.902
8.5279 21.944
8.5431 22.572
8.5582 21.235
8.5734 22.270
8.5886 21.763
8.6038 22.649
8.6189 22.139
8.6341 22.358
8.6493 22.572
8.6645 22.333
8.6796 22.522
8.6948 22.815
8.7100 23.039
8.7252 22.881
8.7403 22.711
8.7555 22.374
8.7707 23.102
8.7859 22.394
8.8010 23.174
8.8162 22.058
8.8314 22.480
8.8466 22.716
8.8617 22.702
8.8769 22.319
8.8921 22.743
8.9073 22.694
8.9224 23.052
8.9376 22.863
8.9528 22.939
8.9680 23.069
8.9831 22.904
8.9983 22.978
9.0135 22.593
9.0287 22.860
9.0438 22.742
9.0590 22.789
9.0742 23.037
9.0894 22.537
9.1045 22.438
9.1197 22.848
9.1349 22.750
9.1501 22.903
9.1652 22.969
9.1804 22.797
9.1956 23.086
9.2108 23.161
9.2259 23.383
9.2411 23.035
9.2563 23.036
9.2715 23.078
9.2866 23.333
9.3018 23.259
9.3170 22.980
9.3322 23.089
9.3473 23.160
9.3625 23.450
9.3777 23.190
9.3929 22.952
9.4080 23.249
9.4232 23.521
9.4384 23.530
9.4536 23.307
9.4687 23.178
9.4839 23.200
9.4991 23.095
9.5143 23.262
9.5294 23.396
9.5446 23.392
9.5598 23.221
9.5750 23.255
9.5901 23.450
9.6053 23.538
9.6205 23.361
9.6357 23.596
9.6508 23.564
9.6660 23.686
9.6812 23.782
9.6964 24.185
9.7115 24.216
9.7267 23.947
9.7419 24.305
9.7571 24.241
9.7722 23.869
9.7874 23.907
9.8026 23.763
9.8178 23.814
9.8329 23.686
9.8481 23.352
9.8633 23.408
9.8785 23.313
9.8936 23.300
9.9088 23.350
9.9240 23.122
9.9392 23.230
9.9543 23.481
9.9695 23.329
9.9847 23.121
9.9999 23.552
10.0150 23.963
10.0302 23.622
10.0454 23.389
10.0606 23.156
10.0757 23.438
10.0909 23.477
10.1061 23.585
10.1213 23.744
10.1364 23.655
10.1516 23.742
10.1668 23.870
10.1820 23.805
10.1971 23.789
10.2123 23.977
10.2275 24.031
10.2427 24.239
10.2578 24.124
10.2730 23.716
10.2882 23.647
10.3034 23.672
10.3185 23.196
10.3337 23.237
10.3489 23.180
10.3641 23.115
10.3792 23.034
10.3944 23.121
10.4096 23.038
10.4248 22.722
10.4399 22.537
10.4551 22.716
10.4703 23.037
10.4855 22.767
10.5006 22.805
10.5158 22.580
10.5310 22.357
10.5462 22.550
10.5613 22.669
10.5765 22.628
10.5917 22.763
10.6069 22.716
10.6220 22.765
10.6372 23.071
10.6524 22.890
10.6676 22.879
10.6827 22.705
10.6979 22.942
10.7131 22.613
10.7283 22.215
10.7434 22.409
10.7586 22.952
10.7738 22.486
10.7890 22.154
10.8041 22.213
10.8193 22.445
10.8345 22.459
10.8497 22.376
10.8648 21.893
10.8800 22.151
10.8952 22.246
10.9104 22.051
10.9255 22.049
10.9407 22.147
10.9559 21.869
10.9711 21.981
10.9862 22.088
11.0014 22.137
11.0166 22.109
11.0318 22.191
11.0469 22.183
11.0621 22.087
11.0773 21.717
11.0925 21.746
11.1076 21.784
11.1228 21.893
11.1380 22.060
11.1532 21.973
11.1683 21.812
11.1835 21.526
11.1987 21.681
11.2139 21.818
11.2290 22.165
11.2442 22.022
11.2594 22.006
11.2746 22.088
11.2897 21.897
11.3049 22.026
11.3201 21.929
11.3353 22.032
11.3504 21.548
11.3656 21.702
11.3808 21.756
11.3960 21.585
11.4111 21.493
11.4263 21.213
11.4415 21.337
11.4567 21.160
11.4718 21.058
11.4870 21.186
11.5022 21.114
11.5174 21.718
11.5325 21.122
11.5477 21.134
11.5629 21.221
11.5781 20.904
11.5932 21.215
11.6084 20.945
11.6236 20.619
11.6388 20.671
11.6539 20.220
11.6691 20.445
11.6843 20.514
11.6995 20.390
11.7146 20.778
11.7298 20.448
11.7450 20.514
11.7602 20.201
11.7753 20.194
11.7905 20.261
11.8057 20.235
11.8209 20.195
11.8360 19.988
11.8512 20.028
11.8664 19.989
11.8816 19.974
11.8967 19.902
11.9119 19.444
11.9271 19.694
11.9423 19.612
11.9574 19.725
11.9726 19.849
11.9878 19.471
12.0030 19.042
12.0181 19.233
12.0333 19.150
12.0485 19.248
12.0637 19.101
12.0788 18.651
12.0940 18.848
12.1092 18.637
12.1244 18.559
12.1395 18.570
12.1547 18.552
12.1699 18.633
12.1851 18.098
12.2002 18.111
12.2154 18.249
12.2306 18.241
12.2458 18.208
12.2609 17.825
12.2761 17.941
12.2913 18.037
12.3065 17.905
12.3216 17.864
12.3368 17.515
12.3520 17.531
12.3672 17.647
12.3823 17.180
12.3975 16.961
12.4127 17.148
12.4279 17.141
12.4430 17.157
12.4582 17.431
12.4734 17.620
12.4886 17.327
12.5037 16.905
12.5189 16.780
12.5341 17.028
12.5493 16.747
12.5644 16.310
12.5796 16.498
12.5948 16.647
12.6100 16.374
12.6251 16.130
12.6403 15.872
12.6555 15.780
12.6707 15.778
12.6858 15.565
12.7010 15.728
12.7162 15.933
12.7314 15.935
12.7465 15.555
12.7617 15.478
12.7769 15.393
12.7921 15.239
12.8072 15.208
12.8224 15.315
12.8376 15.183
12.8528 14.723
12.8679 14.988
12.8831 14.863
12.8983 14.602
12.9135 14.729
12.9286 14.656
12.9438 14.641
12.9590 14.511
12.9742 14.309
12.9893 14.370
13.0045 14.490
13.0197 14.644
13.0349 14.408
13.0500 14.048
13.0652 14.161
13.0804 14.266
13.0956 14.037
13.1107 13.789
13.1259 13.680
13.1411 13.600
13.1563 13.632
13.1714 13.711
13.1866 13.689
13.2018 13.555
13.2170 13.340
13.2321 13.345
13.2473 13.404
13.2625 13.444
13.2777 13.617
13.2928 13.456
13.3080 13.125
13.3232 13.113
13.3384 13.305
13.3535 13.200
13.3687 13.047
13.3839 13.079
13.3991 13.080
13.4142 13.099
13.4294 12.833
13.4446 12.731
13.4598 12.840
13.4749 12.636
13.4901 12.696
13.5053 12.689
13.5205 12.647
13.5356 12.552
13.5508 12.384
13.5660 12.483
13.5812 12.341
13.5963 12.176
13.6115 12.402
13.6267 12.381
13.6419 12.162
13.6570 12.097
13.6722 12.221
13.6874 12.230
13.7026 12.121
13.7177 11.994
13.7329 11.984
13.7481 12.047
13.7633 12.311
13.7784 11.997
13.7936 11.898
13.8088 11.901
13.8239 12.215
13.8391 12.228
13.8543 12.097
13.8695 12.191
13.8846 12.185
13.8998 12.163
13.9150 12.098
13.9302 11.804
13.9453 11.823
13.9605 11.811
13.9757 11.831
13.9909 11.510
14.0060 11.736
14.0212 11.786
14.0364 11.783
14.0516 11.512
14.0667 11.349
14.0819 11.365
14.0971 11.327
14.1123 11.545
14.1274 11.522
14.1426 11.500
14.1578 11.531
14.1730 11.445
14.1881 11.737
14.2033 12.162
14.2185 11.871
14.2337 11.828
14.2488 12.099
14.2640 12.072
14.2792 11.866
14.2944 12.134
14.3095 12.705
14.3247 12.744
14.3399 12.534
14.3551 12.700
14.3702 13.042
14.3854 12.898
14.4006 12.957
14.4158 13.017
14.4309 12.665
14.4461 12.698
14.4613 12.277
14.4765 12.394
14.4916 12.223
14.5068 11.942
14.5220 11.979
14.5372 11.663
14.5523 11.893
14.5675 11.675
14.5827 11.321
14.5979 11.473
14.6130 11.242
14.6282 11.210
14.6434 11.292
14.6586 11.081
14.6737 11.079
14.6889 11.136
14.7041 10.910
14.7193 10.855
14.7344 10.949
14.7496 11.048
14.7648 10.815
14.7800 10.931
14.7951 10.865
14.8103 10.683
14.8255 10.890
14.8407 10.539
14.8558 10.449
14.8710 10.693
14.8862 10.444
14.9014 10.512
14.9165 10.845
14.9317 10.751
14.9469 10.686
14.9621 10.609
14.9772 10.384
14.9924 10.441
15.0076 10.672
15.0228 10.494
15.0379 10.360
15.0531 10.365
15.0683 10.597
15.0835 10.554
15.0986 10.749
15.1138 10.536
15.1290 10.577
15.1442 10.459
15.1593 10.069
15.1745 10.665
15.1897 10.109
15.2049 10.536
15.2200 10.339
15.2352 10.467
15.2504 9.810
15.2656 10.245
15.2807 10.248
15.2959 10.621
15.3111 10.420
15.3263 10.677
15.3414 10.113
15.3566 9.809
15.3718 10.445
15.3870 10.685
15.4021 10.768
15.4173 10.405
15.4325 10.809
15.4477 10.395
15.4628 10.601
15.4780 10.705
15.4932 10.614
15.5084 10.491
15.5235 10.432
15.5387 10.264
15.5539 10.410
15.5691 10.196
15.5842 10.145
15.5994 10.511
15.6146 10.579
15.6298 10.444
15.6449 10.076
15.6601 9.939
15.6753 9.841
15.6905 9.849
15.7056 9.878
15.7208 10.033
15.7360 10.117
15.7512 9.644
15.7663 9.854
15.7815 10.042
15.7967 9.917
15.8119 9.973
15.8270 10.009
15.8422 9.819
15.8574 9.950
15.8726 10.083
15.8877 9.941
15.9029 9.506
15.9181 9.779
15.9333 9.675
15.9484 9.911
15.9636 9.790
15.9788 9.772
15.9940 10.015
16.0091 9.973
16.0243 9.775
16.0395 9.835
16.0547 9.746
16.0698 9.763
16.0850 9.423
16.1002 9.637
16.1154 9.673
16.1305 9.368
16.1457 9.693
16.1609 9.865
16.1761 9.687
16.1912 9.749
16.2064 9.739
16.2216 9.758
16.2368 10.063
16.2519 10.153
16.2671 9.844
16.2823 10.004
16.2975 9.946
16.3126 9.763
16.3278 9.737
16.3430 9.936
16.3582 10.131
16.3733 10.025
16.3885 10.056
16.4037 9.982
16.4189 10.192
16.4340 10.109
16.4492 9.953
16.4644 9.985
16.4796 9.989
16.4947 9.956
16.5099 9.918
16.5251 9.733
16.5403 9.650
16.5554 9.567
16.5706 9.640
16.5858 9.539
16.6010 9.285
16.6161 9.524
16.6313 9.755
16.6465 9.829
16.6617 9.713
16.6768 9.860
16.6920 10.157
16.7072 9.872
16.7224 9.731
16.7375 10.005
16.7527 9.900
16.7679 10.001
16.7831 10.069
16.7982 9.712
16.8134 9.952
16.8286 9.902
16.8438 9.720
16.8589 9.895
16.8741 10.022
16.8893 9.980
16.9045 9.752
16.9196 9.803
16.9348 9.832
16.9500 9.890
16.9652 9.909
16.9803 9.820
16.9955 9.721
17.0107 9.522
17.0259 9.865
17.0410 10.144
17.0562 10.135
17.0714 10.228
17.0866 10.276
17.1017 10.488
17.1169 10.712
17.1321 10.834
17.1473 11.200
17.1624 11.744
17.1776 12.194
17.1928 13.030
17.2080 14.095
17.2231 15.068
17.2383 16.358
17.2535 17.647
17.2687 18.587
17.2838 18.831
17.2990 18.295
17.3142 17.229
17.3294 16.440
17.3445 16.287
17.3597 16.169
17.3749 15.728
17.3901 15.208
17.4052 14.426
17.4204 13.276
17.4356 12.573
17.4508 12.100
17.4659 11.819
17.4811 11.853
17.4963 11.714
17.5115 11.309
17.5266 11.212
17.5418 11.271
17.5570 11.240
17.5722 11.337
17.5873 11.391
17.6025 11.523
17.6177 11.506
17.6329 11.204
17.6480 11.034
17.6632 11.122
17.6784 11.110
17.6936 11.166
17.7087 11.054
17.7239 10.811
17.7391 10.583
17.7543 10.598
17.7694 10.533
17.7846 10.425
17.7998 10.409
17.8150 10.273
17.8301 10.528
17.8453 10.572
17.8605 10.389
17.8757 10.520
17.8908 10.645
17.9060 10.521
17.9212 10.475
17.9364 10.405
17.9515 10.196
17.9667 10.468
17.9819 10.517
17.9971 10.201
18.0122 10.188
18.0274 10.213
18.0426 10.309
18.0578 10.302
18.0729 10.192
18.0881 10.011
18.1033 10.078
18.1185 10.036
18.1336 9.984
18.1488 10.185
18.1640 10.066
18.1792 9.722
18.1943 9.850
18.2095 10.100
18.2247 10.014
18.2399 9.942
18.2550 9.884
18.2702 9.863
18.2854 9.855
18.3006 9.633
18.3157 9.626
18.3309 9.739
18.3461 9.621
18.3613 9.721
18.3764 9.788
18.3916 10.069
18.4068 9.984
18.4220 9.836
18.4371 9.863
18.4523 9.520
18.4675 9.690
18.4827 9.962
18.4978 10.000
18.5130 9.988
18.5282 9.796
18.5434 9.827
18.5585 9.743
18.5737 9.840
18.5889 9.983
18.6041 10.017
18.6192 9.897
18.6344 9.815
18.6496 9.615
18.6648 9.444
18.6799 9.827
18.6951 9.959
18.7103 9.919
18.7255 9.807
18.7406 9.662
18.7558 9.589
18.7710 9.682
18.7862 9.707
18.8013 9.625
18.8165 9.526
18.8317 9.820
18.8469 9.921
18.8620 9.724
18.8772 9.799
18.8924 9.839
18.9076 9.978
18.9227 10.047
18.9379 9.997
18.9531 9.974
18.9683 9.826
18.9834 9.862
18.9986 10.054
19.0138 10.064
19.0290 10.032
19.0441 9.836
19.0593 9.971
19.0745 10.050
19.0897 9.990
19.1048 10.279
19.1200 10.408
19.1352 10.164
19.1504 10.135
19.1655 10.487
19.1807 10.451
19.1959 10.446
19.2111 10.593
19.2262 10.638
19.2414 10.609
19.2566 10.710
19.2718 10.999
19.2869 11.057
19.3021 11.114
19.3173 10.902
19.3325 10.831
19.3476 11.085
19.3628 10.962
19.3780 10.994
19.3932 11.116
19.4083 11.150
19.4235 11.289
19.4387 11.380
19.4539 11.544
19.4690 11.458
19.4842 11.473
19.4994 11.737
19.5146 11.535
19.5297 11.487
19.5449 11.608
19.5601 11.547
19.5753 11.676
19.5904 11.716
19.6056 11.565
19.6208 11.584
19.6360 11.529
19.6511 11.690
19.6663 11.823
19.6815 11.793
19.6967 11.631
19.7118 11.662
19.7270 11.740
19.7422 11.828
19.7574 11.920
19.7725 11.742
19.7877 11.619
19.8029 11.894
19.8180 12.174
19.8332 12.133
19.8484 12.178
19.8636 12.227
19.8787 12.321
19.8939 12.710
19.9091 12.948
19.9243 13.150
19.9394 13.527
19.9546 13.939
19.9698 14.398
19.9850 14.555
20.0001 14.237
20.0153 14.011
20.0305 14.108
20.0457 13.974
20.0608 13.868
20.0760 13.914
20.0912 13.737
20.1064 13.520
20.1215 13.508
20.1367 13.485
20.1519 13.202
20.1671 13.163
20.1822 13.127
20.1974 13.100
20.2126 13.240
20.2278 12.946
20.2429 12.645
20.2581 12.330
20.2733 12.233
20.2885 12.125
20.3036 12.036
20.3188 12.269
20.3340 12.024
20.3492 12.109
20.3643 11.895
20.3795 11.653
20.3947 11.124
20.4099 10.821
20.4250 10.833
20.4402 10.646
20.4554 10.889
20.4706 10.838
20.4857 10.756
20.5009 10.857
20.5161 10.727
20.5313 10.728
20.5464 10.922
20.5616 10.810
20.5768 10.622
20.5920 10.783
20.6071 10.787
20.6223 10.821
20.6375 10.902
20.6527 10.943
20.6678 10.860
20.6830 10.600
20.6982 10.572
20.7134 10.784
20.7285 10.755
20.7437 10.588
20.7589 10.832
20.7741 10.342
20.7892 10.480
20.8044 10.226
20.8196 10.225
20.8348 10.609
20.8499 10.649
20.8651 10.159
20.8803 10.180
20.8955 10.226
20.9106 10.191
20.9258 10.087
20.9410 10.029
20.9562 10.203
20.9713 10.179
20.9865 9.993
21.0017 9.967
21.0169 9.948
21.0320 10.184
21.0472 9.983
21.0624 10.143
21.0776 10.024
21.0927 9.750
21.1079 9.548
21.1231 10.010
21.1383 9.786
21.1534 9.783
21.1686 9.951
21.1838 10.165
21.1990 9.948
21.2141 9.773
21.2293 9.699
21.2445 9.634
21.2597 9.808
21.2748 9.422
21.2900 9.466
21.3052 9.408
21.3204 9.824
21.3355 9.790
21.3507 9.718
21.3659 9.707
21.3811 9.284
21.3962 9.734
21.4114 9.386
21.4266 9.677
21.4418 9.563
21.4569 9.371
21.4721 9.246
21.4873 9.273
21.5025 9.427
21.5176 9.470
21.5328 9.162
21.5480 8.964
21.5632 9.119
21.5783 9.464
21.5935 9.423
21.6087 9.346
21.6239 9.348
21.6390 9.385
21.6542 9.345
21.6694 9.146
21.6846 9.247
21.6997 9.074
21.7149 8.997
21.7301 9.144
21.7453 8.984
21.7604 8.812
21.7756 8.936
21.7908 9.138
21.8060 8.916
21.8211 9.206
21.8363 9.117
21.8515 8.703
21.8667 8.817
21.8818 9.045
21.8970 9.063
21.9122 9.035
21.9274 8.935
21.9425 8.987
21.9577 9.055
21.9729 8.748
21.9881 8.917
22.0032 8.908
22.0184 8.928
22.0336 8.883
22.0488 8.910
22.0639 8.956
22.0791 8.930
22.0943 8.844
22.1095 8.785
22.1246 8.809
22.1398 8.713
22.1550 8.624
22.1702 8.745
22.1853 8.687
22.2005 8.636
22.2157 8.684
22.2309 8.494
22.2460 8.545
22.2612 8.512
22.2764 8.464
22.2916 8.894
22.3067 8.815
22.3219 8.808
22.3371 8.471
22.3523 8.322
22.3674 8.685
22.3826 8.266
22.3978 8.678
22.4130 8.745
22.4281 8.489
22.4433 8.532
22.4585 8.489
22.4737 8.479
22.4888 8.632
22.5040 8.398
22.5192 8.564
22.5344 8.740
22.5495 8.076
22.5647 8.694
22.5799 8.554
22.5951 8.359
22.6102 8.221
22.6254 8.431
22.6406 8.604
22.6558 8.242
22.6709 8.697
22.6861 8.430
22.7013 8.323
22.7165 8.007
22.7316 6.445
