'Id: "" Comment: "" Operator: "Lab Manager" Anode: "Mo" Scantype: "Still (Eiger2R_500K (1D mode))" TimePerStep: "300" X: "11.8" Y: "9.4" Z: "11.284" 
7.2532 18.806
7.2684 18.443
7.2836 19.258
7.2987 18.855
7.3139 18.984
7.3291 19.654
7.3443 19.226
7.3594 19.022
7.3746 19.412
7.3898 19.225
7.4050 20.051
7.4201 19.522
7.4353 19.292
7.4505 19.218
7.4657 19.229
7.4808 19.546
7.4960 19.563
7.5112 19.563
7.5264 19.486
7.5415 19.585
7.5567 19.610
7.5719 19.785
7.5871 19.984
7.6022 19.997
7.6174 19.957
7.6326 19.882
7.6478 20.056
7.6629 20.447
7.6781 20.514
7.6933 20.253
7.7085 20.219
7.7236 20.189
7.7388 20.481
7.7540 20.476
7.7692 20.219
7.7843 20.524
7.7995 20.885
7.8147 20.603
7.8299 20.191
7.8450 20.465
7.8602 20.798
7.8754 20.964
7.8905 20.625
7.9057 20.646
7.9209 20.826
7.9361 20.737
7.9512 20.996
7.9664 21.232
7.9816 21.446
7.9968 21.369
8.0119 21.075
8.0271 21.024
8.0423 20.952
8.0575 21.292
8.0726 21.354
8.0878 21.500
8.1030 21.960
8.1182 21.955
8.1333 21.740
8.1485 21.341
8.1637 21.521
8.1789 21.290
8.1940 21.936
8.2092 21.662
8.2244 21.552
8.2396 21.651
8.2547 21.889
8.2699 22.046
8.2851 21.682
8.3003 21.906
8.3154 21.435
8.3306 22.155
8.3458 21.668
8.3610 21.816
8.3761 21.504
8.3913 21.531
8.4065 22.352
8.4217 21.995
8.4368 22.131
8.4520 22.234
8.4672 21.372
8.4824 21.768
8.4975 21.987
8.5127 22.281
8.5279 22.468
8.5431 21.825
8.5582 21.946
8.5734 22.208
8.5886 21.840
8.6038 21.947
8.6189 22.412
8.6341 22.253
8.6493 22.439
8.6645 22.364
8.6796 22.286
8.6948 22.617
8.7100 22.280
8.7252 22.388
8.7403 22.080
8.7555 22.770
8.7707 22.562
8.7859 22.378
8.8010 22.568
8.8162 22.486
8.8314 22.437
8.8466 22.897
8.8617 22.781
8.8769 22.183
8.8921 22.290
8.9073 22.785
8.9224 22.609
8.9376 22.676
8.9528 22.688
8.9680 22.148
8.9831 22.566
8.9983 22.283
9.0135 22.773
9.0287 22.803
9.0438 23.150
9.0590 22.888
9.0742 23.028
9.0894 22.843
9.1045 22.889
9.1197 22.709
9.1349 22.868
9.1501 22.883
9.1652 22.702
9.1804 22.983
9.1956 22.761
9.2108 22.718
9.2259 22.825
9.2411 23.145
9.2563 23.132
9.2715 22.996
9.2866 22.641
9.3018 22.997
9.3170 23.204
9.3322 22.945
9.3473 23.192
9.3625 23.156
9.3777 22.707
9.3929 22.725
9.4080 23.018
9.4232 23.217
9.4384 23.391
9.4536 23.271
9.4687 22.969
9.4839 22.993
9.4991 23.157
9.5143 23.348
9.5294 23.664
9.5446 23.436
9.5598 23.203
9.5750 23.278
9.5901 23.315
9.6053 23.289
9.6205 23.616
9.6357 23.377
9.6508 23.429
9.6660 23.672
9.6812 23.677
9.6964 23.511
9.7115 23.593
9.7267 24.031
9.7419 24.318
9.7571 24.384
9.7722 23.990
9.7874 24.084
9.8026 23.995
9.8178 23.639
9.8329 23.677
9.8481 23.776
9.8633 23.532
9.8785 23.747
9.8936 23.998
9.9088 23.587
9.9240 23.385
9.9392 23.635
9.9543 23.624
9.9695 23.392
9.9847 23.375
9.9999 23.160
10.0150 23.089
10.0302 23.219
10.0454 23.157
10.0606 23.190
10.0757 23.075
10.0909 22.862
10.1061 22.823
10.1213 23.095
10.1364 23.226
10.1516 23.129
10.1668 23.002
10.1820 23.137
10.1971 23.123
10.2123 23.102
10.2275 23.065
10.2427 23.094
10.2578 22.966
10.2730 22.994
10.2882 22.815
10.3034 22.840
10.3185 23.093
10.3337 23.009
10.3489 22.830
10.3641 23.242
10.3792 23.406
10.3944 23.114
10.4096 23.126
10.4248 23.081
10.4399 22.714
10.4551 22.804
10.4703 22.739
10.4855 22.782
10.5006 22.747
10.5158 22.812
10.5310 22.590
10.5462 22.590
10.5613 22.470
10.5765 22.463
10.5917 22.682
10.6069 22.723
10.6220 22.489
10.6372 22.563
10.6524 22.726
10.6676 22.887
10.6827 22.939
10.6979 22.310
10.7131 22.450
10.7283 22.365
10.7434 22.315
10.7586 22.329
10.7738 22.278
10.7890 22.166
10.8041 21.832
10.8193 21.917
10.8345 22.406
10.8497 22.607
10.8648 22.188
10.8800 22.170
10.8952 22.445
10.9104 22.324
10.9255 22.417
10.9407 22.203
10.9559 22.061
10.9711 21.873
10.9862 22.023
11.0014 21.906
11.0166 22.084
11.0318 22.331
11.0469 22.475
11.0621 21.843
11.0773 21.723
11.0925 22.151
11.1076 21.938
11.1228 21.966
11.1380 21.742
11.1532 22.258
11.1683 21.908
11.1835 21.462
11.1987 21.347
11.2139 21.644
11.2290 21.802
11.2442 21.772
11.2594 22.162
11.2746 21.804
11.2897 21.644
11.3049 21.565
11.3201 21.470
11.3353 21.705
11.3504 21.235
11.3656 21.443
11.3808 21.490
11.3960 21.460
11.4111 21.144
11.4263 21.239
11.4415 21.356
11.4567 21.171
11.4718 21.297
11.4870 21.077
11.5022 21.231
11.5174 21.269
11.5325 21.381
11.5477 21.322
11.5629 20.967
11.5781 21.124
11.5932 21.216
11.6084 21.212
11.6236 20.804
11.6388 20.784
11.6539 20.749
11.6691 20.792
11.6843 20.729
11.6995 20.956
11.7146 20.615
11.7298 20.164
11.7450 20.072
11.7602 20.255
11.7753 20.455
11.7905 20.156
11.8057 20.176
11.8209 20.064
11.8360 19.823
11.8512 19.861
11.8664 19.932
11.8816 20.133
11.8967 19.950
11.9119 19.701
11.9271 19.808
11.9423 19.588
11.9574 19.463
11.9726 19.107
11.9878 19.350
12.0030 19.469
12.0181 19.259
12.0333 19.066
12.0485 19.105
12.0637 18.814
12.0788 18.876
12.0940 18.743
12.1092 18.620
12.1244 18.797
12.1395 19.040
12.1547 18.639
12.1699 18.409
12.1851 18.539
12.2002 18.399
12.2154 18.022
12.2306 17.771
12.2458 17.729
12.2609 17.962
12.2761 17.809
12.2913 17.761
12.3065 17.971
12.3216 18.118
12.3368 17.799
12.3520 17.736
12.3672 17.734
12.3823 17.429
12.3975 17.088
12.4127 17.081
12.4279 17.010
12.4430 16.919
12.4582 16.714
12.4734 16.895
12.4886 16.990
12.5037 16.989
12.5189 16.704
12.5341 16.593
12.5493 16.526
12.5644 16.329
12.5796 16.555
12.5948 16.364
12.6100 16.039
12.6251 16.124
12.6403 16.096
12.6555 15.813
12.6707 15.717
12.6858 15.651
12.7010 15.559
12.7162 15.469
12.7314 15.466
12.7465 15.453
12.7617 15.452
12.7769 15.267
12.7921 15.154
12.8072 15.020
12.8224 15.078
12.8376 15.111
12.8528 14.912
12.8679 14.958
12.8831 14.818
12.8983 14.849
12.9135 14.678
12.9286 14.551
12.9438 14.732
12.9590 14.720
12.9742 14.575
12.9893 14.216
13.0045 13.971
13.0197 14.123
13.0349 14.199
13.0500 14.145
13.0652 14.175
13.0804 14.127
13.0956 14.002
13.1107 13.886
13.1259 13.860
13.1411 13.956
13.1563 13.699
13.1714 13.502
13.1866 13.638
13.2018 13.466
13.2170 13.376
13.2321 13.466
13.2473 13.569
13.2625 13.473
13.2777 13.098
13.2928 13.103
13.3080 13.323
13.3232 13.125
13.3384 12.928
13.3535 13.147
13.3687 13.169
13.3839 12.952
13.3991 12.927
13.4142 13.083
13.4294 13.140
13.4446 12.846
13.4598 12.521
13.4749 12.663
13.4901 12.729
13.5053 12.700
13.5205 12.801
13.5356 12.617
13.5508 12.520
13.5660 12.543
13.5812 12.490
13.5963 12.242
13.6115 12.244
13.6267 12.216
13.6419 12.334
13.6570 12.364
13.6722 12.253
13.6874 12.277
13.7026 12.257
13.7177 12.245
13.7329 12.075
13.7481 12.041
13.7633 12.130
13.7784 12.105
13.7936 12.010
13.8088 12.503
13.8239 12.330
13.8391 12.146
13.8543 12.525
13.8695 12.411
13.8846 12.040
13.8998 12.178
13.9150 11.984
13.9302 11.899
13.9453 12.041
13.9605 11.854
13.9757 11.677
13.9909 11.811
14.0060 11.656
14.0212 11.810
14.0364 11.628
14.0516 11.499
14.0667 11.618
14.0819 11.576
14.0971 11.593
14.1123 11.312
14.1274 11.113
14.1426 11.087
14.1578 11.451
14.1730 11.560
14.1881 11.458
14.2033 11.551
14.2185 11.356
14.2337 11.385
14.2488 11.226
14.2640 11.417
14.2792 11.495
14.2944 11.551
14.3095 11.417
14.3247 11.748
14.3399 11.717
14.3551 11.664
14.3702 11.895
14.3854 12.308
14.4006 12.462
14.4158 12.636
14.4309 12.594
14.4461 12.389
14.4613 12.041
14.4765 12.396
14.4916 12.022
14.5068 12.014
14.5220 11.888
14.5372 11.670
14.5523 11.283
14.5675 11.186
14.5827 11.555
14.5979 11.260
14.6130 11.347
14.6282 11.252
14.6434 11.088
14.6586 11.177
14.6737 10.857
14.6889 11.244
14.7041 11.121
14.7193 11.244
14.7344 11.396
14.7496 11.254
14.7648 11.345
14.7800 11.150
14.7951 10.968
14.8103 11.005
14.8255 10.789
14.8407 10.749
14.8558 11.067
14.8710 10.921
14.8862 10.757
14.9014 10.453
14.9165 10.964
14.9317 11.187
14.9469 10.981
14.9621 10.811
14.9772 10.561
14.9924 10.552
15.0076 10.713
15.0228 10.657
15.0379 10.721
15.0531 10.916
15.0683 10.406
15.0835 10.369
15.0986 10.093
15.1138 10.543
15.1290 10.426
15.1442 10.273
15.1593 10.165
15.1745 10.162
15.1897 10.272
15.2049 10.493
15.2200 9.915
15.2352 10.338
15.2504 10.336
15.2656 10.348
15.2807 9.998
15.2959 10.536
15.3111 10.420
15.3263 10.553
15.3414 10.432
15.3566 10.393
15.3718 10.388
15.3870 10.021
15.4021 10.228
15.4173 10.451
15.4325 10.522
15.4477 10.515
15.4628 10.072
15.4780 10.447
15.4932 10.520
15.5084 10.243
15.5235 10.471
15.5387 10.161
15.5539 10.427
15.5691 10.395
15.5842 10.357
15.5994 10.141
15.6146 10.525
15.6298 10.223
15.6449 10.028
15.6601 10.184
15.6753 10.305
15.6905 10.317
15.7056 9.996
15.7208 9.864
15.7360 9.708
15.7512 10.181
15.7663 9.815
15.7815 9.896
15.7967 9.953
15.8119 9.748
15.8270 10.047
15.8422 9.675
15.8574 9.808
15.8726 9.717
15.8877 9.930
15.9029 9.782
15.9181 9.776
15.9333 9.693
15.9484 9.826
15.9636 9.518
15.9788 9.678
15.9940 9.695
16.0091 9.624
16.0243 9.787
16.0395 9.986
16.0547 9.924
16.0698 9.987
16.0850 9.873
16.1002 9.705
16.1154 9.624
16.1305 9.899
16.1457 9.815
16.1609 9.754
16.1761 9.761
16.1912 9.814
16.2064 9.846
16.2216 9.733
16.2368 9.594
16.2519 9.848
16.2671 9.883
16.2823 10.094
16.2975 9.917
16.3126 9.871
16.3278 9.884
16.3430 10.149
16.3582 10.179
16.3733 10.255
16.3885 10.379
16.4037 10.337
16.4189 9.949
16.4340 9.878
16.4492 10.065
16.4644 10.151
16.4796 9.941
16.4947 9.627
16.5099 9.452
16.5251 9.816
16.5403 10.015
16.5554 9.823
16.5706 9.753
16.5858 9.687
16.6010 9.608
16.6161 9.668
16.6313 9.906
16.6465 9.891
16.6617 9.883
16.6768 10.138
16.6920 9.793
16.7072 10.052
16.7224 10.375
16.7375 10.295
16.7527 10.269
16.7679 10.090
16.7831 9.918
16.7982 9.897
16.8134 9.987
16.8286 10.136
16.8438 10.017
16.8589 10.022
16.8741 10.094
16.8893 10.013
16.9045 9.905
16.9196 9.887
16.9348 9.918
16.9500 9.983
16.9652 9.860
16.9803 9.925
16.9955 10.108
17.0107 9.991
17.0259 10.085
17.0410 10.118
17.0562 10.110
17.0714 10.439
17.0866 10.560
17.1017 10.660
17.1169 10.947
17.1321 11.040
17.1473 11.325
17.1624 11.930
17.1776 12.589
17.1928 13.290
17.2080 13.939
17.2231 14.998
17.2383 16.448
17.2535 17.559
17.2687 18.418
17.2838 18.828
17.2990 18.143
17.3142 17.073
17.3294 16.396
17.3445 16.090
17.3597 16.082
17.3749 16.097
17.3901 15.090
17.4052 13.984
17.4204 13.508
17.4356 12.521
17.4508 11.766
17.4659 11.756
17.4811 11.483
17.4963 11.161
17.5115 11.060
17.5266 10.616
17.5418 10.407
17.5570 10.438
17.5722 10.277
17.5873 10.124
17.6025 10.314
17.6177 10.235
17.6329 9.872
17.6480 9.943
17.6632 10.044
17.6784 10.091
17.6936 10.028
17.7087 10.059
17.7239 10.175
17.7391 10.210
17.7543 10.316
17.7694 10.377
17.7846 10.437
17.7998 10.295
17.8150 10.583
17.8301 11.017
17.8453 11.052
17.8605 11.015
17.8757 10.880
17.8908 10.672
17.9060 10.970
17.9212 11.167
17.9364 10.974
17.9515 10.711
17.9667 10.760
17.9819 10.890
17.9971 10.754
18.0122 10.691
18.0274 10.611
18.0426 10.422
18.0578 10.349
18.0729 10.413
18.0881 10.488
18.1033 10.176
18.1185 10.234
18.1336 9.905
18.1488 9.881
18.1640 10.041
18.1792 10.217
18.1943 10.265
18.2095 10.173
18.2247 9.947
18.2399 9.920
18.2550 9.917
18.2702 9.956
18.2854 9.915
18.3006 9.750
18.3157 9.838
18.3309 9.887
18.3461 9.804
18.3613 9.896
18.3764 9.965
18.3916 9.911
18.4068 9.911
18.4220 9.977
18.4371 9.853
18.4523 9.933
18.4675 10.174
18.4827 10.081
18.4978 9.996
18.5130 10.016
18.5282 9.986
18.5434 9.600
18.5585 9.630
18.5737 10.054
18.5889 9.976
18.6041 9.832
18.6192 9.818
18.6344 9.538
18.6496 9.505
18.6648 9.657
18.6799 9.744
18.6951 9.919
18.7103 9.903
18.7255 9.573
18.7406 9.748
18.7558 10.036
18.7710 9.826
18.7862 9.641
18.8013 9.637
18.8165 9.693
18.8317 9.863
18.8469 9.726
18.8620 9.845
18.8772 10.067
18.8924 10.078
18.9076 9.966
18.9227 9.936
18.9379 9.844
18.9531 9.953
18.9683 9.941
18.9834 9.866
18.9986 10.069
19.0138 10.124
19.0290 9.998
19.0441 10.242
19.0593 10.284
19.0745 10.187
19.0897 10.432
19.1048 10.630
19.1200 10.451
19.1352 10.406
19.1504 10.240
19.1655 10.312
19.1807 10.615
19.1959 10.839
19.2111 10.744
19.2262 10.641
19.2414 10.872
19.2566 10.854
19.2718 10.688
19.2869 10.914
19.3021 11.000
19.3173 11.036
19.3325 10.975
19.3476 11.018
19.3628 11.198
19.3780 11.228
19.3932 10.935
19.4083 10.798
19.4235 11.122
19.4387 11.244
19.4539 11.198
19.4690 11.305
19.4842 11.474
19.4994 11.433
19.5146 11.442
19.5297 11.497
19.5449 11.519
19.5601 11.655
19.5753 11.393
19.5904 11.326
19.6056 11.538
19.6208 11.537
19.6360 11.711
19.6511 11.758
19.6663 11.705
19.6815 11.772
19.6967 11.754
19.7118 11.693
19.7270 11.631
19.7422 11.849
19.7574 11.925
19.7725 11.782
19.7877 11.823
19.8029 11.993
19.8180 12.292
19.8332 12.166
19.8484 11.998
19.8636 12.250
19.8787 12.556
19.8939 12.927
19.9091 13.218
19.9243 13.533
19.9394 13.924
19.9546 14.216
19.9698 14.531
19.9850 14.759
20.0001 14.641
20.0153 14.199
20.0305 13.977
20.0457 13.871
20.0608 13.547
20.0760 13.672
20.0912 13.843
20.1064 13.658
20.1215 13.296
20.1367 12.956
20.1519 12.911
20.1671 12.840
20.1822 12.748
20.1974 12.521
20.2126 12.633
20.2278 12.622
20.2429 12.351
20.2581 12.285
20.2733 12.063
20.2885 11.551
20.3036 11.538
20.3188 11.547
20.3340 11.447
20.3492 11.334
20.3643 11.340
20.3795 11.427
20.3947 11.182
20.4099 10.931
20.4250 10.923
20.4402 10.968
20.4554 10.865
20.4706 10.579
20.4857 10.903
20.5009 10.738
20.5161 10.623
20.5313 10.604
20.5464 10.496
20.5616 10.520
20.5768 10.564
20.5920 10.651
20.6071 10.448
20.6223 10.240
20.6375 10.785
20.6527 10.525
20.6678 10.618
20.6830 10.305
20.6982 10.487
20.7134 10.420
20.7285 10.149
20.7437 10.245
20.7589 10.279
20.7741 10.242
20.7892 10.178
20.8044 10.325
20.8196 10.682
20.8348 10.449
20.8499 10.311
20.8651 10.185
20.8803 10.414
20.8955 10.245
20.9106 9.969
20.9258 10.512
20.9410 10.571
20.9562 10.437
20.9713 10.369
20.9865 10.354
21.0017 9.992
21.0169 10.565
21.0320 10.729
21.0472 10.233
21.0624 10.001
21.0776 10.153
21.0927 10.592
21.1079 10.009
21.1231 9.883
21.1383 9.825
21.1534 9.936
21.1686 9.844
21.1838 9.802
21.1990 9.852
21.2141 10.005
21.2293 9.817
21.2445 9.855
21.2597 9.559
21.2748 9.414
21.2900 9.732
21.3052 9.385
21.3204 9.610
21.3355 9.575
21.3507 9.566
21.3659 9.661
21.3811 9.563
21.3962 9.421
21.4114 9.309
21.4266 9.526
21.4418 9.579
21.4569 9.609
21.4721 9.530
21.4873 9.457
21.5025 9.331
21.5176 9.222
21.5328 9.086
21.5480 9.297
21.5632 9.070
21.5783 9.413
21.5935 9.576
21.6087 9.040
21.6239 9.000
21.6390 9.226
21.6542 9.112
21.6694 9.061
21.6846 9.092
21.6997 9.201
21.7149 9.140
21.7301 9.106
21.7453 9.178
21.7604 8.985
21.7756 8.908
21.7908 8.884
21.8060 8.972
21.8211 9.011
21.8363 8.966
21.8515 8.814
21.8667 8.968
21.8818 8.942
21.8970 8.850
21.9122 9.027
21.9274 8.961
21.9425 8.861
21.9577 8.893
21.9729 8.872
21.9881 8.814
22.0032 8.776
22.0184 8.690
22.0336 8.699
22.0488 8.791
22.0639 8.860
22.0791 8.901
22.0943 8.856
22.1095 8.736
22.1246 8.506
22.1398 8.793
22.1550 8.753
22.1702 8.534
22.1853 8.741
22.2005 8.933
22.2157 8.671
22.2309 8.525
22.2460 8.747
22.2612 8.594
22.2764 8.684
22.2916 8.696
22.3067 8.647
22.3219 8.755
22.3371 8.699
22.3523 8.799
22.3674 8.686
22.3826 8.355
22.3978 8.629
22.4130 8.214
22.4281 8.423
22.4433 8.872
22.4585 8.700
22.4737 8.610
22.4888 8.534
22.5040 8.281
22.5192 8.584
22.5344 8.431
22.5495 8.479
22.5647 8.317
22.5799 8.460
22.5951 8.684
22.6102 8.686
22.6254 8.404
22.6406 8.489
22.6558 8.306
22.6709 8.293
22.6861 8.481
22.7013 8.315
22.7165 8.039
22.7316 6.504
