'Id: "" Comment: "" Operator: "Lab Manager" Anode: "Mo" Scantype: "Still (Eiger2R_500K (1D mode))" TimePerStep: "300" X: "11.8" Y: "9.4" Z: "11.284" 
7.2532 18.804
7.2684 18.963
7.2836 19.401
7.2987 19.347
7.3139 19.179
7.3291 19.517
7.3443 19.478
7.3594 19.552
7.3746 19.617
7.3898 19.599
7.4050 19.654
7.4201 19.721
7.4353 19.586
7.4505 19.496
7.4657 20.052
7.4808 19.790
7.4960 19.798
7.5112 19.769
7.5264 20.059
7.5415 20.128
7.5567 19.836
7.5719 20.054
7.5871 20.207
7.6022 20.438
7.6174 20.113
7.6326 20.159
7.6478 20.245
7.6629 20.425
7.6781 20.389
7.6933 20.310
7.7085 20.446
7.7236 20.538
7.7388 20.683
7.7540 20.640
7.7692 20.383
7.7843 20.647
7.7995 20.979
7.8147 20.702
7.8299 20.735
7.8450 21.155
7.8602 20.933
7.8754 20.929
7.8905 21.264
7.9057 21.150
7.9209 21.215
7.9361 21.189
7.9512 21.106
7.9664 21.320
7.9816 21.220
7.9968 21.235
8.0119 21.055
8.0271 21.090
8.0423 21.002
8.0575 21.192
8.0726 21.624
8.0878 21.592
8.1030 21.417
8.1182 21.632
8.1333 21.901
8.1485 21.809
8.1637 21.805
8.1789 21.747
8.1940 21.858
8.2092 22.009
8.2244 21.709
8.2396 21.321
8.2547 21.701
8.2699 21.259
8.2851 21.894
8.3003 21.664
8.3154 21.623
8.3306 21.639
8.3458 22.069
8.3610 21.733
8.3761 21.491
8.3913 21.869
8.4065 22.214
8.4217 22.050
8.4368 21.848
8.4520 21.947
8.4672 22.027
8.4824 22.162
8.4975 21.797
8.5127 22.181
8.5279 22.283
8.5431 22.138
8.5582 22.272
8.5734 22.537
8.5886 22.110
8.6038 22.310
8.6189 22.072
8.6341 22.107
8.6493 22.047
8.6645 22.393
8.6796 22.352
8.6948 22.468
8.7100 22.313
8.7252 22.115
8.7403 22.415
8.7555 22.462
8.7707 22.377
8.7859 22.303
8.8010 22.574
8.8162 22.775
8.8314 22.623
8.8466 22.726
8.8617 22.496
8.8769 22.561
8.8921 22.453
8.9073 22.706
8.9224 22.597
8.9376 22.847
8.9528 22.688
8.9680 23.108
8.9831 22.657
8.9983 23.035
9.0135 23.057
9.0287 22.905
9.0438 22.986
9.0590 23.020
9.0742 23.257
9.0894 22.765
9.1045 22.821
9.1197 23.196
9.1349 22.643
9.1501 22.253
9.1652 22.977
9.1804 23.099
9.1956 22.780
9.2108 22.714
9.2259 22.835
9.2411 23.076
9.2563 23.035
9.2715 22.953
9.2866 23.142
9.3018 23.124
9.3170 23.442
9.3322 23.547
9.3473 23.427
9.3625 23.026
9.3777 22.733
9.3929 22.846
9.4080 23.047
9.4232 23.377
9.4384 23.357
9.4536 23.301
9.4687 23.162
9.4839 23.029
9.4991 22.917
9.5143 23.029
9.5294 23.595
9.5446 23.772
9.5598 23.834
9.5750 23.539
9.5901 23.328
9.6053 23.374
9.6205 23.595
9.6357 23.638
9.6508 23.572
9.6660 23.656
9.6812 23.810
9.6964 23.835
9.7115 23.997
9.7267 24.151
9.7419 24.284
9.7571 24.530
9.7722 24.637
9.7874 24.247
9.8026 23.615
9.8178 23.466
9.8329 23.722
9.8481 23.395
9.8633 23.288
9.8785 23.684
9.8936 23.905
9.9088 24.066
9.9240 24.185
9.9392 24.265
9.9543 24.108
9.9695 23.778
9.9847 23.945
9.9999 23.723
10.0150 23.575
10.0302 23.886
10.0454 23.741
10.0606 23.522
10.0757 23.602
10.0909 23.928
10.1061 23.782
10.1213 23.804
10.1364 23.709
10.1516 23.413
10.1668 23.504
10.1820 23.521
10.1971 23.838
10.2123 23.970
10.2275 24.179
10.2427 24.087
10.2578 23.771
10.2730 23.685
10.2882 23.894
10.3034 23.902
10.3185 23.275
10.3337 23.183
10.3489 23.564
10.3641 23.563
10.3792 23.377
10.3944 23.255
10.4096 22.774
10.4248 22.871
10.4399 23.272
10.4551 23.031
10.4703 22.630
10.4855 22.762
10.5006 22.967
10.5158 22.761
10.5310 22.711
10.5462 22.526
10.5613 22.541
10.5765 23.103
10.5917 22.917
10.6069 22.387
10.6220 22.574
10.6372 22.452
10.6524 22.527
10.6676 22.709
10.6827 22.853
10.6979 22.436
10.7131 22.423
10.7283 22.313
10.7434 22.375
10.7586 22.619
10.7738 22.240
10.7890 22.340
10.8041 22.243
10.8193 22.240
10.8345 22.339
10.8497 22.461
10.8648 22.217
10.8800 22.096
10.8952 22.356
10.9104 22.100
10.9255 21.971
10.9407 22.060
10.9559 22.087
10.9711 22.240
10.9862 22.141
11.0014 22.110
11.0166 21.501
11.0318 21.869
11.0469 21.866
11.0621 21.892
11.0773 21.805
11.0925 21.751
11.1076 22.045
11.1228 22.016
11.1380 21.690
11.1532 21.992
11.1683 21.892
11.1835 21.843
11.1987 21.843
11.2139 21.792
11.2290 21.607
11.2442 21.374
11.2594 21.857
11.2746 21.531
11.2897 21.448
11.3049 21.475
11.3201 21.515
11.3353 21.951
11.3504 21.547
11.3656 21.512
11.3808 21.432
11.3960 21.734
11.4111 21.158
11.4263 21.379
11.4415 21.417
11.4567 21.393
11.4718 21.162
11.4870 21.129
11.5022 21.630
11.5174 21.571
11.5325 21.596
11.5477 21.358
11.5629 20.907
11.5781 20.984
11.5932 21.048
11.6084 21.117
11.6236 20.960
11.6388 20.463
11.6539 20.204
11.6691 20.046
11.6843 20.319
11.6995 20.427
11.7146 20.526
11.7298 20.499
11.7450 19.892
11.7602 19.981
11.7753 20.349
11.7905 20.065
11.8057 19.937
11.8209 19.867
11.8360 19.663
11.8512 19.960
11.8664 19.964
11.8816 19.739
11.8967 19.669
11.9119 19.642
11.9271 19.722
11.9423 19.582
11.9574 19.632
11.9726 19.449
11.9878 19.356
12.0030 19.216
12.0181 19.075
12.0333 18.783
12.0485 18.996
12.0637 19.009
12.0788 18.731
12.0940 18.769
12.1092 18.266
12.1244 18.417
12.1395 18.648
12.1547 18.490
12.1699 18.686
12.1851 18.615
12.2002 18.327
12.2154 18.266
12.2306 18.387
12.2458 18.025
12.2609 17.982
12.2761 17.937
12.2913 17.412
12.3065 17.468
12.3216 17.695
12.3368 17.519
12.3520 17.485
12.3672 17.774
12.3823 17.289
12.3975 17.028
12.4127 17.369
12.4279 17.094
12.4430 16.640
12.4582 16.537
12.4734 16.749
12.4886 16.515
12.5037 16.240
12.5189 16.291
12.5341 16.131
12.5493 16.095
12.5644 16.259
12.5796 16.290
12.5948 16.305
12.6100 16.480
12.6251 16.022
12.6403 15.658
12.6555 15.768
12.6707 15.741
12.6858 15.700
12.7010 15.743
12.7162 15.709
12.7314 15.637
12.7465 15.401
12.7617 15.252
12.7769 15.448
12.7921 15.379
12.8072 15.211
12.8224 15.102
12.8376 14.785
12.8528 14.906
12.8679 14.944
12.8831 14.645
12.8983 14.477
12.9135 14.749
12.9286 14.630
12.9438 14.265
12.9590 14.438
12.9742 14.556
12.9893 14.515
13.0045 14.389
13.0197 14.173
13.0349 14.033
13.0500 14.068
13.0652 14.028
13.0804 13.803
13.0956 13.933
13.1107 13.960
13.1259 13.547
13.1411 13.644
13.1563 13.806
13.1714 13.488
13.1866 13.600
13.2018 13.646
13.2170 13.209
13.2321 13.311
13.2473 13.442
13.2625 13.342
13.2777 13.214
13.2928 13.101
13.3080 13.110
13.3232 13.103
13.3384 13.116
13.3535 12.763
13.3687 12.556
13.3839 12.952
13.3991 13.233
13.4142 12.937
13.4294 12.961
13.4446 12.721
13.4598 12.642
13.4749 12.982
13.4901 12.962
13.5053 12.602
13.5205 12.463
13.5356 12.426
13.5508 12.137
13.5660 12.241
13.5812 12.410
13.5963 12.318
13.6115 12.368
13.6267 12.228
13.6419 12.027
13.6570 12.065
13.6722 11.922
13.6874 11.934
13.7026 11.950
13.7177 12.098
13.7329 12.182
13.7481 11.995
13.7633 11.609
13.7784 11.646
13.7936 12.053
13.8088 12.178
13.8239 11.881
13.8391 11.724
13.8543 11.942
13.8695 11.935
13.8846 12.169
13.8998 11.979
13.9150 11.887
13.9302 11.805
13.9453 11.841
13.9605 11.807
13.9757 11.653
13.9909 11.476
14.0060 11.794
14.0212 11.634
14.0364 11.369
14.0516 11.461
14.0667 11.545
14.0819 11.435
14.0971 11.134
14.1123 11.075
14.1274 11.425
14.1426 11.395
14.1578 11.134
14.1730 11.183
14.1881 11.447
14.2033 11.270
14.2185 11.159
14.2337 11.389
14.2488 11.586
14.2640 11.464
14.2792 11.900
14.2944 11.633
14.3095 11.538
14.3247 11.805
14.3399 11.969
14.3551 12.445
14.3702 12.327
14.3854 12.937
14.4006 12.817
14.4158 13.305
14.4309 13.285
14.4461 13.529
14.4613 13.479
14.4765 13.285
14.4916 13.272
14.5068 13.317
14.5220 13.115
14.5372 13.333
14.5523 12.916
14.5675 12.652
14.5827 12.524
14.5979 12.299
14.6130 11.962
14.6282 11.671
14.6434 11.800
14.6586 11.613
14.6737 11.686
14.6889 11.467
14.7041 11.269
14.7193 11.338
14.7344 11.455
14.7496 11.324
14.7648 11.372
14.7800 11.195
14.7951 11.517
14.8103 11.099
14.8255 10.900
14.8407 11.105
14.8558 11.235
14.8710 11.010
14.8862 10.806
14.9014 10.764
14.9165 11.485
14.9317 11.061
14.9469 10.495
14.9621 10.943
14.9772 10.275
14.9924 10.555
15.0076 10.634
15.0228 10.515
15.0379 10.620
15.0531 10.592
15.0683 10.466
15.0835 10.310
15.0986 10.049
15.1138 10.533
15.1290 10.741
15.1442 10.383
15.1593 10.617
15.1745 10.550
15.1897 10.363
15.2049 10.551
15.2200 10.253
15.2352 10.730
15.2504 10.512
15.2656 10.458
15.2807 10.193
15.2959 10.332
15.3111 10.371
15.3263 10.299
15.3414 10.054
15.3566 10.529
15.3718 10.525
15.3870 10.121
15.4021 10.375
15.4173 10.278
15.4325 10.511
15.4477 10.439
15.4628 10.300
15.4780 10.242
15.4932 10.420
15.5084 10.169
15.5235 10.090
15.5387 10.322
15.5539 10.298
15.5691 10.288
15.5842 10.577
15.5994 10.604
15.6146 10.077
15.6298 10.349
15.6449 10.053
15.6601 10.218
15.6753 9.966
15.6905 9.920
15.7056 10.043
15.7208 9.879
15.7360 9.788
15.7512 9.873
15.7663 9.953
15.7815 9.999
15.7967 9.810
15.8119 10.012
15.8270 9.830
15.8422 9.984
15.8574 9.806
15.8726 9.843
15.8877 9.741
15.9029 9.719
15.9181 9.919
15.9333 9.686
15.9484 9.750
15.9636 9.570
15.9788 9.835
15.9940 9.712
16.0091 9.751
16.0243 9.589
16.0395 9.979
16.0547 9.733
16.0698 9.807
16.0850 9.872
16.1002 9.890
16.1154 9.952
16.1305 10.088
16.1457 10.065
16.1609 9.634
16.1761 9.576
16.1912 9.841
16.2064 9.948
16.2216 9.729
16.2368 9.801
16.2519 9.943
16.2671 9.618
16.2823 10.259
16.2975 9.947
16.3126 10.009
16.3278 10.043
16.3430 10.004
16.3582 10.140
16.3733 10.139
16.3885 10.343
16.4037 10.455
16.4189 10.309
16.4340 9.938
16.4492 9.960
16.4644 10.122
16.4796 10.010
16.4947 10.067
16.5099 9.970
16.5251 9.922
16.5403 9.788
16.5554 9.537
16.5706 9.465
16.5858 9.768
16.6010 9.776
16.6161 9.824
16.6313 9.930
16.6465 9.820
16.6617 9.714
16.6768 9.751
16.6920 9.863
16.7072 10.210
16.7224 10.122
16.7375 10.045
16.7527 10.065
16.7679 10.197
16.7831 10.228
16.7982 10.133
16.8134 10.066
16.8286 10.018
16.8438 9.934
16.8589 10.012
16.8741 10.076
16.8893 9.876
16.9045 9.928
16.9196 9.924
16.9348 9.907
16.9500 9.875
16.9652 9.858
16.9803 9.968
16.9955 9.784
17.0107 9.830
17.0259 9.987
17.0410 10.182
17.0562 10.111
17.0714 10.056
17.0866 9.962
17.1017 10.236
17.1169 10.650
17.1321 11.062
17.1473 11.305
17.1624 11.566
17.1776 12.271
17.1928 12.941
17.2080 14.040
17.2231 15.180
17.2383 16.211
17.2535 17.513
17.2687 18.459
17.2838 18.788
17.2990 18.237
17.3142 17.050
17.3294 16.394
17.3445 16.217
17.3597 16.020
17.3749 15.880
17.3901 15.340
17.4052 14.130
17.4204 13.116
17.4356 12.530
17.4508 11.861
17.4659 11.565
17.4811 11.519
17.4963 11.251
17.5115 10.646
17.5266 10.357
17.5418 10.574
17.5570 10.524
17.5722 10.609
17.5873 10.616
17.6025 10.646
17.6177 10.412
17.6329 10.219
17.6480 10.560
17.6632 10.446
17.6784 10.295
17.6936 10.220
17.7087 10.502
17.7239 10.511
17.7391 10.307
17.7543 10.614
17.7694 10.874
17.7846 11.166
17.7998 11.467
17.8150 11.645
17.8301 11.704
17.8453 11.749
17.8605 12.167
17.8757 12.333
17.8908 12.318
17.9060 12.330
17.9212 12.240
17.9364 11.953
17.9515 11.905
17.9667 11.900
17.9819 11.374
17.9971 11.020
18.0122 11.018
18.0274 10.789
18.0426 10.833
18.0578 10.857
18.0729 10.618
18.0881 10.409
18.1033 10.278
18.1185 10.138
18.1336 9.988
18.1488 10.057
18.1640 10.133
18.1792 10.165
18.1943 10.141
18.2095 10.126
18.2247 9.981
18.2399 9.956
18.2550 9.931
18.2702 10.006
18.2854 10.004
18.3006 10.071
18.3157 10.302
18.3309 10.293
18.3461 9.890
18.3613 9.910
18.3764 10.045
18.3916 9.943
18.4068 9.898
18.4220 9.887
18.4371 9.924
18.4523 9.925
18.4675 9.930
18.4827 9.867
18.4978 9.915
18.5130 9.832
18.5282 9.665
18.5434 9.690
18.5585 9.735
18.5737 9.597
18.5889 9.818
18.6041 9.962
18.6192 9.885
18.6344 10.010
18.6496 9.946
18.6648 9.765
18.6799 9.902
18.6951 9.968
18.7103 10.044
18.7255 9.995
18.7406 9.786
18.7558 9.878
18.7710 9.916
18.7862 9.850
18.8013 9.612
18.8165 9.582
18.8317 9.791
18.8469 9.923
18.8620 9.763
18.8772 9.956
18.8924 10.111
18.9076 10.135
18.9227 10.111
18.9379 9.913
18.9531 9.861
18.9683 9.996
18.9834 10.109
18.9986 10.060
19.0138 10.123
19.0290 10.200
19.0441 10.125
19.0593 10.383
19.0745 10.366
19.0897 10.446
19.1048 10.412
19.1200 10.288
19.1352 10.395
19.1504 10.410
19.1655 10.509
19.1807 10.889
19.1959 10.915
19.2111 10.602
19.2262 10.465
19.2414 10.589
19.2566 10.657
19.2718 10.765
19.2869 10.979
19.3021 10.946
19.3173 11.094
19.3325 11.092
19.3476 10.942
19.3628 11.089
19.3780 11.163
19.3932 11.146
19.4083 11.231
19.4235 11.218
19.4387 11.021
19.4539 11.230
19.4690 11.421
19.4842 11.520
19.4994 11.568
19.5146 11.351
19.5297 11.308
19.5449 11.448
19.5601 11.463
19.5753 11.773
19.5904 11.817
19.6056 11.681
19.6208 11.802
19.6360 11.682
19.6511 11.567
19.6663 11.548
19.6815 11.603
19.6967 11.574
19.7118 11.704
19.7270 11.968
19.7422 11.843
19.7574 11.786
19.7725 11.796
19.7877 11.851
19.8029 11.965
19.8180 11.919
19.8332 12.067
19.8484 12.405
19.8636 12.541
19.8787 12.698
19.8939 12.918
19.9091 12.982
19.9243 13.438
19.9394 13.865
19.9546 14.222
19.9698 14.596
19.9850 14.930
20.0001 14.721
20.0153 14.309
20.0305 14.054
20.0457 13.747
20.0608 13.717
20.0760 13.753
20.0912 13.671
20.1064 13.655
20.1215 13.504
20.1367 13.119
20.1519 12.975
20.1671 12.925
20.1822 12.924
20.1974 12.703
20.2126 12.478
20.2278 12.381
20.2429 12.200
20.2581 12.259
20.2733 12.264
20.2885 12.030
20.3036 11.843
20.3188 11.732
20.3340 11.576
20.3492 11.267
20.3643 11.401
20.3795 11.431
20.3947 11.091
20.4099 10.954
20.4250 10.852
20.4402 10.777
20.4554 11.284
20.4706 11.190
20.4857 10.895
20.5009 11.064
20.5161 11.048
20.5313 10.896
20.5464 11.076
20.5616 10.946
20.5768 10.975
20.5920 10.937
20.6071 10.888
20.6223 11.078
20.6375 10.716
20.6527 10.736
20.6678 10.866
20.6830 10.986
20.6982 10.854
20.7134 10.604
20.7285 10.474
20.7437 10.622
20.7589 10.587
20.7741 10.600
20.7892 10.567
20.8044 10.649
20.8196 10.696
20.8348 10.599
20.8499 10.594
20.8651 10.756
20.8803 10.457
20.8955 10.294
20.9106 10.276
20.9258 10.553
20.9410 10.549
20.9562 10.235
20.9713 10.438
20.9865 10.296
21.0017 10.234
21.0169 9.869
21.0320 10.711
21.0472 10.414
21.0624 10.238
21.0776 10.015
21.0927 10.528
21.1079 10.032
21.1231 10.161
21.1383 10.381
21.1534 10.078
21.1686 9.930
21.1838 10.141
21.1990 9.636
21.2141 9.692
21.2293 9.915
21.2445 9.601
21.2597 9.924
21.2748 9.786
21.2900 9.288
21.3052 9.702
21.3204 9.609
21.3355 9.730
21.3507 9.486
21.3659 9.475
21.3811 9.190
21.3962 9.297
21.4114 9.178
21.4266 9.352
21.4418 9.688
21.4569 9.553
21.4721 9.510
21.4873 9.550
21.5025 9.512
21.5176 9.305
21.5328 9.595
21.5480 9.184
21.5632 9.316
21.5783 8.956
21.5935 9.131
21.6087 9.470
21.6239 9.319
21.6390 9.025
21.6542 9.120
21.6694 9.153
21.6846 9.115
21.6997 9.196
21.7149 9.331
21.7301 8.955
21.7453 8.979
21.7604 9.102
21.7756 8.975
21.7908 9.018
21.8060 9.106
21.8211 9.043
21.8363 8.806
21.8515 8.931
21.8667 9.013
21.8818 8.968
21.8970 8.979
21.9122 8.971
21.9274 8.706
21.9425 8.679
21.9577 8.714
21.9729 8.729
21.9881 8.845
22.0032 8.877
22.0184 8.956
22.0336 8.972
22.0488 8.792
22.0639 8.827
22.0791 9.095
22.0943 8.999
22.1095 8.680
22.1246 8.803
22.1398 8.754
22.1550 8.842
22.1702 8.583
22.1853 8.572
22.2005 8.745
22.2157 8.750
22.2309 8.568
22.2460 8.516
22.2612 8.541
22.2764 8.656
22.2916 8.497
22.3067 8.705
22.3219 8.567
22.3371 8.283
22.3523 8.316
22.3674 8.450
22.3826 8.531
22.3978 8.394
22.4130 8.369
22.4281 8.443
22.4433 8.406
22.4585 8.353
22.4737 8.338
22.4888 8.675
22.5040 8.582
22.5192 8.518
22.5344 8.551
22.5495 8.499
22.5647 8.252
22.5799 8.348
22.5951 8.645
22.6102 8.582
22.6254 8.326
22.6406 8.542
22.6558 8.650
22.6709 7.966
22.6861 8.279
22.7013 8.290
22.7165 7.671
22.7316 6.404
