'Id: "" Comment: "" Operator: "Lab Manager" Anode: "Mo" Scantype: "Still (Eiger2R_500K (1D mode))" TimePerStep: "300" X: "11.8" Y: "9.4" Z: "11.284" 
7.2532 18.182
7.2684 18.566
7.2836 18.592
7.2987 18.870
7.3139 19.127
7.3291 19.116
7.3443 18.939
7.3594 18.968
7.3746 19.111
7.3898 19.033
7.4050 19.389
7.4201 19.478
7.4353 19.414
7.4505 19.293
7.4657 19.533
7.4808 19.641
7.4960 20.029
7.5112 19.722
7.5264 19.778
7.5415 19.710
7.5567 19.635
7.5719 19.730
7.5871 19.916
7.6022 20.073
7.6174 20.283
7.6326 20.199
7.6478 20.117
7.6629 20.034
7.6781 20.091
7.6933 20.068
7.7085 20.109
7.7236 20.400
7.7388 20.619
7.7540 20.557
7.7692 20.678
7.7843 20.739
7.7995 20.741
7.8147 20.935
7.8299 21.053
7.8450 20.720
7.8602 20.585
7.8754 20.815
7.8905 20.931
7.9057 21.224
7.9209 20.831
7.9361 20.527
7.9512 21.152
7.9664 21.149
7.9816 21.366
7.9968 21.347
8.0119 21.297
8.0271 21.252
8.0423 21.226
8.0575 21.332
8.0726 21.474
8.0878 21.296
8.1030 21.409
8.1182 21.816
8.1333 21.499
8.1485 21.372
8.1637 21.313
8.1789 21.415
8.1940 21.828
8.2092 21.522
8.2244 21.379
8.2396 21.951
8.2547 22.002
8.2699 21.795
8.2851 21.678
8.3003 21.540
8.3154 21.109
8.3306 21.716
8.3458 21.886
8.3610 21.530
8.3761 21.632
8.3913 21.959
8.4065 21.869
8.4217 21.728
8.4368 22.131
8.4520 22.521
8.4672 22.628
8.4824 22.045
8.4975 22.148
8.5127 21.995
8.5279 22.013
8.5431 21.697
8.5582 22.184
8.5734 22.156
8.5886 22.594
8.6038 22.426
8.6189 22.348
8.6341 22.215
8.6493 21.920
8.6645 22.270
8.6796 22.381
8.6948 22.700
8.7100 22.210
8.7252 22.330
8.7403 23.099
8.7555 22.230
8.7707 22.688
8.7859 22.228
8.8010 22.265
8.8162 22.844
8.8314 22.585
8.8466 22.890
8.8617 22.523
8.8769 22.213
8.8921 22.758
8.9073 22.571
8.9224 22.772
8.9376 23.101
8.9528 22.396
8.9680 23.199
8.9831 23.028
8.9983 22.672
9.0135 22.799
9.0287 22.897
9.0438 22.966
9.0590 23.186
9.0742 23.166
9.0894 22.704
9.1045 22.860
9.1197 23.083
9.1349 23.181
9.1501 22.947
9.1652 22.571
9.1804 22.968
9.1956 22.771
9.2108 22.939
9.2259 23.007
9.2411 23.020
9.2563 23.199
9.2715 22.986
9.2866 23.157
9.3018 23.375
9.3170 23.153
9.3322 22.874
9.3473 22.925
9.3625 23.279
9.3777 23.230
9.3929 23.163
9.4080 23.430
9.4232 23.126
9.4384 23.408
9.4536 23.470
9.4687 23.104
9.4839 23.052
9.4991 23.373
9.5143 23.413
9.5294 23.393
9.5446 23.076
9.5598 23.169
9.5750 23.603
9.5901 23.826
9.6053 23.624
9.6205 23.577
9.6357 23.459
9.6508 23.349
9.6660 23.725
9.6812 23.594
9.6964 23.512
9.7115 24.005
9.7267 24.201
9.7419 24.127
9.7571 24.043
9.7722 24.143
9.7874 24.003
9.8026 24.058
9.8178 23.785
9.8329 23.577
9.8481 23.620
9.8633 23.606
9.8785 23.782
9.8936 23.435
9.9088 23.157
9.9240 23.162
9.9392 23.487
9.9543 23.646
9.9695 23.652
9.9847 23.540
9.9999 23.643
10.0150 23.529
10.0302 23.160
10.0454 23.443
10.0606 23.537
10.0757 23.233
10.0909 23.323
10.1061 23.130
10.1213 23.058
10.1364 23.384
10.1516 23.758
10.1668 23.257
10.1820 23.375
10.1971 23.503
10.2123 23.551
10.2275 23.415
10.2427 23.601
10.2578 23.828
10.2730 23.785
10.2882 23.517
10.3034 23.666
10.3185 23.428
10.3337 23.119
10.3489 23.037
10.3641 22.952
10.3792 22.770
10.3944 22.769
10.4096 22.816
10.4248 22.799
10.4399 23.244
10.4551 22.942
10.4703 22.685
10.4855 23.104
10.5006 22.893
10.5158 22.388
10.5310 22.731
10.5462 22.785
10.5613 22.949
10.5765 23.192
10.5917 23.192
10.6069 23.011
10.6220 22.914
10.6372 23.022
10.6524 22.858
10.6676 22.526
10.6827 22.931
10.6979 22.735
10.7131 22.596
10.7283 22.748
10.7434 22.688
10.7586 22.540
10.7738 22.534
10.7890 22.434
10.8041 22.293
10.8193 22.581
10.8345 22.537
10.8497 22.233
10.8648 22.250
10.8800 22.403
10.8952 22.500
10.9104 22.356
10.9255 22.209
10.9407 22.156
10.9559 22.067
10.9711 22.052
10.9862 22.152
11.0014 22.060
11.0166 22.156
11.0318 21.974
11.0469 21.720
11.0621 21.537
11.0773 21.452
11.0925 21.799
11.1076 22.141
11.1228 21.957
11.1380 21.731
11.1532 21.814
11.1683 22.004
11.1835 21.846
11.1987 22.118
11.2139 21.777
11.2290 21.899
11.2442 21.944
11.2594 22.085
11.2746 21.998
11.2897 21.955
11.3049 21.814
11.3201 21.832
11.3353 21.681
11.3504 21.523
11.3656 21.553
11.3808 21.680
11.3960 21.765
11.4111 21.441
11.4263 21.363
11.4415 21.321
11.4567 21.228
11.4718 21.152
11.4870 20.777
11.5022 20.746
11.5174 20.912
11.5325 20.951
11.5477 21.274
11.5629 21.031
11.5781 20.999
11.5932 20.898
11.6084 20.932
11.6236 21.022
11.6388 20.597
11.6539 20.385
11.6691 20.823
11.6843 20.677
11.6995 20.665
11.7146 20.688
11.7298 20.821
11.7450 20.537
11.7602 20.706
11.7753 20.540
11.7905 20.082
11.8057 19.832
11.8209 19.944
11.8360 20.156
11.8512 19.998
11.8664 20.176
11.8816 20.302
11.8967 19.573
11.9119 19.191
11.9271 19.401
11.9423 19.375
11.9574 19.609
11.9726 19.312
11.9878 19.241
12.0030 19.188
12.0181 19.167
12.0333 19.384
12.0485 19.366
12.0637 19.163
12.0788 19.012
12.0940 19.216
12.1092 19.098
12.1244 18.953
12.1395 18.909
12.1547 18.763
12.1699 18.766
12.1851 18.542
12.2002 18.425
12.2154 18.500
12.2306 18.290
12.2458 18.026
12.2609 17.937
12.2761 17.900
12.2913 17.582
12.3065 17.803
12.3216 17.694
12.3368 17.691
12.3520 17.700
12.3672 17.875
12.3823 17.787
12.3975 17.583
12.4127 17.240
12.4279 17.162
12.4430 16.938
12.4582 16.983
12.4734 16.968
12.4886 17.245
12.5037 17.209
12.5189 16.835
12.5341 16.608
12.5493 16.563
12.5644 16.594
12.5796 16.401
12.5948 16.498
12.6100 16.378
12.6251 16.171
12.6403 16.300
12.6555 16.250
12.6707 15.939
12.6858 15.957
12.7010 16.032
12.7162 15.831
12.7314 15.760
12.7465 15.626
12.7617 15.258
12.7769 15.479
12.7921 15.418
12.8072 15.156
12.8224 15.248
12.8376 15.375
12.8528 15.404
12.8679 15.065
12.8831 14.982
12.8983 15.001
12.9135 14.727
12.9286 14.652
12.9438 14.647
12.9590 14.597
12.9742 14.643
12.9893 14.423
13.0045 14.434
13.0197 14.400
13.0349 14.196
13.0500 14.188
13.0652 14.231
13.0804 14.242
13.0956 14.298
13.1107 14.171
13.1259 14.136
13.1411 14.235
13.1563 13.977
13.1714 13.698
13.1866 13.715
13.2018 13.777
13.2170 13.635
13.2321 13.464
13.2473 13.425
13.2625 13.436
13.2777 13.405
13.2928 13.551
13.3080 13.481
13.3232 13.255
13.3384 12.988
13.3535 12.730
13.3687 13.045
13.3839 13.200
13.3991 12.962
13.4142 12.874
13.4294 12.916
13.4446 12.896
13.4598 12.869
13.4749 12.787
13.4901 12.550
13.5053 12.770
13.5205 13.115
13.5356 13.016
13.5508 12.325
13.5660 12.166
13.5812 12.503
13.5963 12.683
13.6115 12.495
13.6267 12.193
13.6419 12.330
13.6570 12.680
13.6722 12.414
13.6874 12.195
13.7026 11.885
13.7177 11.968
13.7329 12.245
13.7481 12.236
13.7633 12.329
13.7784 12.134
13.7936 12.246
13.8088 12.492
13.8239 12.594
13.8391 12.634
13.8543 12.386
13.8695 12.415
13.8846 12.337
13.8998 12.165
13.9150 12.210
13.9302 12.128
13.9453 12.012
13.9605 11.948
13.9757 11.825
13.9909 11.514
14.0060 11.578
14.0212 11.586
14.0364 11.636
14.0516 11.616
14.0667 11.812
14.0819 11.814
14.0971 11.746
14.1123 11.679
14.1274 11.469
14.1426 11.310
14.1578 11.872
14.1730 11.282
14.1881 11.702
14.2033 11.659
14.2185 11.634
14.2337 11.777
14.2488 12.097
14.2640 12.055
14.2792 11.972
14.2944 11.872
14.3095 11.869
14.3247 11.786
14.3399 11.999
14.3551 12.342
14.3702 12.199
14.3854 12.583
14.4006 12.690
14.4158 12.459
14.4309 12.285
14.4461 12.291
14.4613 11.897
14.4765 11.961
14.4916 11.871
14.5068 11.877
14.5220 11.679
14.5372 11.382
14.5523 11.489
14.5675 11.601
14.5827 11.275
14.5979 11.020
14.6130 10.890
14.6282 10.703
14.6434 10.701
14.6586 10.950
14.6737 10.955
14.6889 11.013
14.7041 10.800
14.7193 10.841
14.7344 10.990
14.7496 10.919
14.7648 10.629
14.7800 11.091
14.7951 10.825
14.8103 11.076
14.8255 11.074
14.8407 10.859
14.8558 10.901
14.8710 10.592
14.8862 10.558
14.9014 10.826
14.9165 10.874
14.9317 11.058
14.9469 10.722
14.9621 10.665
14.9772 10.258
14.9924 10.707
15.0076 10.456
15.0228 10.555
15.0379 10.719
15.0531 10.634
15.0683 10.209
15.0835 10.396
15.0986 10.588
15.1138 10.333
15.1290 10.621
15.1442 10.525
15.1593 10.592
15.1745 10.487
15.1897 10.645
15.2049 10.644
15.2200 10.148
15.2352 10.226
15.2504 10.209
15.2656 10.483
15.2807 10.308
15.2959 10.101
15.3111 10.284
15.3263 10.351
15.3414 10.448
15.3566 10.586
15.3718 10.711
15.3870 10.557
15.4021 10.265
15.4173 10.250
15.4325 10.208
15.4477 10.621
15.4628 10.439
15.4780 10.311
15.4932 10.340
15.5084 10.372
15.5235 10.189
15.5387 10.611
15.5539 10.131
15.5691 10.259
15.5842 10.053
15.5994 10.292
15.6146 10.169
15.6298 10.140
15.6449 9.981
15.6601 9.664
15.6753 9.856
15.6905 9.847
15.7056 9.990
15.7208 10.221
15.7360 10.009
15.7512 10.049
15.7663 9.863
15.7815 9.928
15.7967 10.089
15.8119 10.075
15.8270 9.896
15.8422 9.938
15.8574 10.026
15.8726 9.774
15.8877 9.700
15.9029 9.744
15.9181 10.002
15.9333 10.047
15.9484 9.890
15.9636 9.968
15.9788 10.099
15.9940 9.768
16.0091 9.708
16.0243 9.815
16.0395 9.891
16.0547 9.773
16.0698 9.822
16.0850 9.825
16.1002 9.867
16.1154 9.874
16.1305 9.698
16.1457 9.995
16.1609 9.975
16.1761 9.773
16.1912 9.657
16.2064 9.937
16.2216 9.793
16.2368 10.210
16.2519 10.151
16.2671 10.127
16.2823 10.132
16.2975 10.161
16.3126 10.081
16.3278 10.171
16.3430 10.074
16.3582 10.113
16.3733 10.217
16.3885 10.294
16.4037 10.259
16.4189 10.116
16.4340 9.826
16.4492 10.051
16.4644 9.803
16.4796 10.049
16.4947 10.024
16.5099 9.979
16.5251 9.815
16.5403 9.980
16.5554 9.918
16.5706 10.005
16.5858 9.832
16.6010 9.712
16.6161 9.735
16.6313 9.729
16.6465 9.763
16.6617 9.796
16.6768 9.960
16.6920 9.966
16.7072 10.197
16.7224 10.366
16.7375 9.933
16.7527 9.944
16.7679 10.041
16.7831 10.020
16.7982 10.034
16.8134 10.018
16.8286 9.863
16.8438 9.875
16.8589 10.063
16.8741 10.081
16.8893 10.002
16.9045 10.081
16.9196 9.949
16.9348 9.850
16.9500 9.854
16.9652 9.903
16.9803 9.894
16.9955 9.896
17.0107 9.844
17.0259 10.079
17.0410 10.228
17.0562 10.204
17.0714 10.145
17.0866 10.250
17.1017 10.657
17.1169 10.925
17.1321 11.010
17.1473 11.443
17.1624 12.018
17.1776 12.603
17.1928 13.190
17.2080 14.024
17.2231 15.123
17.2383 16.430
17.2535 17.674
17.2687 18.650
17.2838 19.027
17.2990 18.231
17.3142 17.223
17.3294 16.532
17.3445 16.211
17.3597 16.131
17.3749 16.087
17.3901 15.649
17.4052 14.258
17.4204 13.083
17.4356 12.488
17.4508 12.040
17.4659 11.558
17.4811 11.366
17.4963 11.481
17.5115 11.307
17.5266 11.051
17.5418 11.070
17.5570 11.096
17.5722 11.067
17.5873 11.061
17.6025 10.942
17.6177 10.940
17.6329 10.942
17.6480 11.011
17.6632 10.759
17.6784 10.561
17.6936 10.591
17.7087 10.592
17.7239 10.483
17.7391 10.315
17.7543 10.128
17.7694 10.087
17.7846 10.061
17.7998 9.921
17.8150 10.057
17.8301 10.202
17.8453 9.969
17.8605 10.132
17.8757 10.422
17.8908 10.579
17.9060 10.556
17.9212 10.228
17.9364 10.065
17.9515 10.215
17.9667 10.489
17.9819 10.266
17.9971 9.929
18.0122 10.308
18.0274 10.580
18.0426 10.334
18.0578 10.274
18.0729 10.500
18.0881 10.300
18.1033 10.153
18.1185 10.139
18.1336 10.062
18.1488 10.085
18.1640 9.974
18.1792 10.172
18.1943 10.111
18.2095 9.830
18.2247 10.022
18.2399 10.124
18.2550 10.144
18.2702 10.051
18.2854 9.857
18.3006 9.886
18.3157 9.920
18.3309 9.732
18.3461 9.990
18.3613 9.749
18.3764 9.685
18.3916 9.814
18.4068 9.765
18.4220 9.600
18.4371 9.851
18.4523 9.999
18.4675 9.761
18.4827 9.806
18.4978 9.871
18.5130 9.920
18.5282 9.792
18.5434 9.758
18.5585 9.729
18.5737 9.871
18.5889 9.904
18.6041 9.762
18.6192 9.554
18.6344 9.469
18.6496 9.567
18.6648 9.959
18.6799 9.875
18.6951 9.652
18.7103 9.662
18.7255 9.829
18.7406 9.896
18.7558 9.619
18.7710 9.539
18.7862 9.712
18.8013 9.655
18.8165 9.759
18.8317 9.845
18.8469 9.905
18.8620 9.958
18.8772 9.907
18.8924 10.005
18.9076 10.029
18.9227 10.169
18.9379 10.281
18.9531 10.098
18.9683 10.069
18.9834 10.027
18.9986 10.032
19.0138 9.951
19.0290 10.252
19.0441 10.255
19.0593 10.087
19.0745 10.137
19.0897 10.224
19.1048 10.306
19.1200 10.203
19.1352 10.239
19.1504 10.609
19.1655 10.817
19.1807 10.498
19.1959 10.441
19.2111 10.811
19.2262 10.843
19.2414 10.483
19.2566 10.469
19.2718 10.799
19.2869 10.883
19.3021 10.881
19.3173 10.707
19.3325 10.792
19.3476 11.111
19.3628 11.406
19.3780 11.239
19.3932 11.339
19.4083 11.400
19.4235 11.426
19.4387 11.356
19.4539 11.391
19.4690 11.519
19.4842 11.339
19.4994 11.497
19.5146 11.676
19.5297 11.515
19.5449 11.577
19.5601 11.597
19.5753 11.455
19.5904 11.472
19.6056 11.537
19.6208 11.646
19.6360 11.783
19.6511 11.566
19.6663 11.671
19.6815 11.823
19.6967 11.739
19.7118 11.821
19.7270 11.674
19.7422 11.807
19.7574 11.765
19.7725 11.580
19.7877 11.923
19.8029 12.092
19.8180 12.159
19.8332 12.283
19.8484 12.303
19.8636 12.434
19.8787 12.711
19.8939 12.895
19.9091 13.096
19.9243 13.501
19.9394 13.714
19.9546 13.964
19.9698 14.452
19.9850 14.670
20.0001 14.560
20.0153 14.420
20.0305 13.919
20.0457 13.733
20.0608 13.864
20.0760 13.668
20.0912 13.619
20.1064 13.637
20.1215 13.460
20.1367 12.965
20.1519 12.697
20.1671 13.015
20.1822 13.040
20.1974 12.751
20.2126 12.584
20.2278 12.689
20.2429 12.611
20.2581 12.151
20.2733 11.914
20.2885 12.097
20.3036 12.144
20.3188 11.915
20.3340 11.762
20.3492 11.636
20.3643 11.609
20.3795 11.350
20.3947 11.277
20.4099 10.982
20.4250 10.826
20.4402 10.708
20.4554 10.677
20.4706 10.998
20.4857 10.925
20.5009 10.534
20.5161 10.564
20.5313 10.646
20.5464 10.244
20.5616 10.760
20.5768 10.779
20.5920 10.789
20.6071 10.435
20.6223 10.674
20.6375 10.481
20.6527 10.654
20.6678 11.061
20.6830 10.791
20.6982 10.468
20.7134 10.348
20.7285 10.465
20.7437 10.490
20.7589 10.102
20.7741 10.147
20.7892 10.504
20.8044 10.511
20.8196 10.347
20.8348 10.390
20.8499 10.282
20.8651 10.090
20.8803 10.296
20.8955 10.249
20.9106 10.074
20.9258 9.920
20.9410 9.985
20.9562 10.177
20.9713 10.121
20.9865 10.041
21.0017 10.067
21.0169 10.170
21.0320 9.632
21.0472 9.651
21.0624 9.946
21.0776 9.866
21.0927 10.039
21.1079 9.842
21.1231 9.819
21.1383 9.998
21.1534 9.784
21.1686 9.842
21.1838 9.752
21.1990 9.908
21.2141 9.595
21.2293 9.931
21.2445 9.757
21.2597 9.964
21.2748 9.877
21.2900 9.463
21.3052 9.448
21.3204 9.360
21.3355 9.619
21.3507 9.427
21.3659 9.438
21.3811 9.608
21.3962 9.630
21.4114 9.476
21.4266 9.218
21.4418 9.511
21.4569 9.419
21.4721 9.397
21.4873 9.383
21.5025 9.534
21.5176 9.498
21.5328 9.507
21.5480 9.306
21.5632 9.322
21.5783 9.377
21.5935 9.118
21.6087 9.290
21.6239 9.205
21.6390 9.189
21.6542 9.193
21.6694 9.165
21.6846 9.206
21.6997 9.220
21.7149 8.972
21.7301 9.088
21.7453 9.149
21.7604 9.097
21.7756 8.927
21.7908 8.978
21.8060 8.817
21.8211 8.983
21.8363 8.998
21.8515 8.991
21.8667 9.187
21.8818 9.190
21.8970 9.057
21.9122 8.855
21.9274 8.985
21.9425 9.248
21.9577 9.091
21.9729 8.885
21.9881 8.863
22.0032 8.863
22.0184 8.796
22.0336 8.761
22.0488 8.801
22.0639 8.935
22.0791 8.979
22.0943 8.815
22.1095 8.804
22.1246 8.832
22.1398 8.901
22.1550 8.815
22.1702 8.617
22.1853 8.687
22.2005 8.539
22.2157 8.476
22.2309 8.570
22.2460 8.900
22.2612 8.879
22.2764 8.844
22.2916 8.662
22.3067 8.762
22.3219 8.483
22.3371 8.577
22.3523 8.798
22.3674 8.669
22.3826 8.562
22.3978 8.571
22.4130 8.537
22.4281 8.440
22.4433 8.496
22.4585 8.837
22.4737 8.431
22.4888 8.433
22.5040 8.426
22.5192 8.520
22.5344 8.263
22.5495 8.661
22.5647 8.407
22.5799 8.509
22.5951 8.526
22.6102 8.745
22.6254 8.501
22.6406 8.579
22.6558 8.714
22.6709 8.498
22.6861 8.648
22.7013 8.279
22.7165 7.915
22.7316 6.599
