'Id: "" Comment: "" Operator: "Lab Manager" Anode: "Mo" Scantype: "Still (Eiger2R_500K (1D mode))" TimePerStep: "300" X: "11.8" Y: "9.4" Z: "11.284" 
7.2532 19.653
7.2684 19.068
7.2836 19.270
7.2987 19.492
7.3139 19.163
7.3291 19.295
7.3443 19.817
7.3594 19.655
7.3746 20.038
7.3898 19.407
7.4050 19.786
7.4201 19.678
7.4353 19.046
7.4505 19.890
7.4657 19.427
7.4808 19.936
7.4960 19.783
7.5112 19.807
7.5264 19.764
7.5415 20.349
7.5567 19.994
7.5719 20.009
7.5871 20.209
7.6022 20.184
7.6174 20.469
7.6326 20.653
7.6478 20.347
7.6629 20.661
7.6781 20.910
7.6933 20.456
7.7085 20.592
7.7236 20.677
7.7388 20.556
7.7540 20.565
7.7692 20.859
7.7843 21.031
7.7995 20.837
7.8147 20.781
7.8299 21.055
7.8450 20.858
7.8602 20.918
7.8754 21.066
7.8905 20.896
7.9057 21.038
7.9209 20.884
7.9361 21.005
7.9512 21.182
7.9664 21.000
7.9816 21.169
7.9968 21.394
8.0119 21.716
8.0271 21.224
8.0423 21.218
8.0575 21.591
8.0726 21.572
8.0878 21.188
8.1030 21.560
8.1182 21.626
8.1333 21.268
8.1485 21.626
8.1637 21.887
8.1789 22.254
8.1940 21.757
8.2092 21.986
8.2244 22.456
8.2396 21.965
8.2547 21.912
8.2699 22.329
8.2851 22.219
8.3003 21.764
8.3154 21.631
8.3306 22.140
8.3458 22.214
8.3610 22.007
8.3761 21.854
8.3913 21.931
8.4065 22.389
8.4217 22.076
8.4368 22.335
8.4520 22.263
8.4672 22.057
8.4824 22.059
8.4975 22.335
8.5127 22.297
8.5279 22.315
8.5431 22.285
8.5582 22.104
8.5734 22.260
8.5886 21.929
8.6038 22.398
8.6189 22.685
8.6341 22.392
8.6493 22.317
8.6645 22.083
8.6796 22.489
8.6948 22.501
8.7100 21.925
8.7252 22.315
8.7403 22.771
8.7555 22.778
8.7707 22.788
8.7859 22.515
8.8010 22.669
8.8162 23.008
8.8314 23.228
8.8466 22.949
8.8617 22.908
8.8769 22.269
8.8921 22.716
8.9073 23.130
8.9224 23.193
8.9376 22.857
8.9528 22.606
8.9680 22.774
8.9831 22.988
8.9983 22.861
9.0135 22.688
9.0287 23.056
9.0438 22.912
9.0590 22.826
9.0742 22.968
9.0894 22.954
9.1045 23.020
9.1197 23.166
9.1349 23.102
9.1501 23.175
9.1652 22.692
9.1804 23.199
9.1956 23.450
9.2108 22.926
9.2259 22.814
9.2411 22.967
9.2563 22.836
9.2715 23.643
9.2866 23.822
9.3018 23.125
9.3170 22.996
9.3322 23.400
9.3473 23.660
9.3625 23.593
9.3777 23.421
9.3929 23.763
9.4080 23.501
9.4232 23.133
9.4384 23.393
9.4536 23.284
9.4687 23.377
9.4839 23.600
9.4991 23.504
9.5143 23.465
9.5294 23.700
9.5446 23.756
9.5598 23.432
9.5750 23.492
9.5901 23.328
9.6053 23.269
9.6205 23.383
9.6357 23.510
9.6508 23.479
9.6660 23.711
9.6812 24.132
9.6964 24.303
9.7115 24.448
9.7267 24.501
9.7419 24.245
9.7571 24.381
9.7722 24.524
9.7874 24.346
9.8026 24.543
9.8178 24.484
9.8329 24.289
9.8481 24.115
9.8633 24.050
9.8785 24.051
9.8936 24.114
9.9088 24.425
9.9240 24.543
9.9392 24.257
9.9543 23.930
9.9695 23.928
9.9847 23.976
9.9999 23.977
10.0150 24.010
10.0302 23.696
10.0454 23.916
10.0606 23.998
10.0757 23.624
10.0909 23.574
10.1061 23.383
10.1213 23.652
10.1364 23.799
10.1516 23.703
10.1668 23.968
10.1820 24.045
10.1971 24.042
10.2123 24.078
10.2275 24.047
10.2427 23.294
10.2578 23.273
10.2730 23.530
10.2882 23.419
10.3034 23.776
10.3185 23.655
10.3337 23.754
10.3489 23.118
10.3641 22.815
10.3792 23.094
10.3944 23.716
10.4096 23.405
10.4248 23.446
10.4399 23.363
10.4551 22.935
10.4703 22.878
10.4855 23.048
10.5006 23.320
10.5158 23.311
10.5310 23.602
10.5462 23.333
10.5613 22.746
10.5765 22.794
10.5917 22.941
10.6069 23.229
10.6220 22.996
10.6372 22.871
10.6524 22.915
10.6676 22.687
10.6827 22.829
10.6979 22.676
10.7131 22.702
10.7283 22.678
10.7434 22.815
10.7586 22.508
10.7738 22.282
10.7890 22.312
10.8041 22.224
10.8193 22.305
10.8345 22.550
10.8497 22.563
10.8648 22.613
10.8800 22.574
10.8952 22.072
10.9104 22.407
10.9255 22.291
10.9407 21.726
10.9559 21.612
10.9711 22.050
10.9862 22.293
11.0014 22.339
11.0166 22.291
11.0318 22.243
11.0469 22.048
11.0621 22.096
11.0773 22.086
11.0925 22.105
11.1076 22.189
11.1228 21.918
11.1380 22.346
11.1532 22.078
11.1683 22.086
11.1835 21.791
11.1987 22.079
11.2139 22.040
11.2290 21.785
11.2442 21.830
11.2594 22.025
11.2746 21.954
11.2897 21.723
11.3049 21.796
11.3201 21.866
11.3353 21.630
11.3504 21.489
11.3656 21.536
11.3808 21.303
11.3960 21.392
11.4111 21.599
11.4263 21.538
11.4415 21.384
11.4567 21.084
11.4718 20.960
11.4870 21.245
11.5022 21.207
11.5174 21.572
11.5325 21.707
11.5477 21.163
11.5629 21.201
11.5781 21.489
11.5932 21.193
11.6084 20.864
11.6236 20.974
11.6388 21.152
11.6539 20.844
11.6691 20.837
11.6843 20.790
11.6995 20.835
11.7146 20.997
11.7298 20.768
11.7450 20.627
11.7602 20.314
11.7753 20.234
11.7905 20.528
11.8057 20.394
11.8209 20.400
11.8360 20.278
11.8512 19.975
11.8664 19.761
11.8816 19.745
11.8967 19.713
11.9119 19.750
11.9271 20.015
11.9423 19.640
11.9574 19.325
11.9726 19.607
11.9878 19.422
12.0030 19.320
12.0181 19.175
12.0333 19.204
12.0485 19.189
12.0637 19.314
12.0788 19.124
12.0940 18.957
12.1092 18.728
12.1244 18.605
12.1395 18.514
12.1547 18.785
12.1699 18.535
12.1851 18.652
12.2002 18.420
12.2154 17.799
12.2306 17.955
12.2458 18.164
12.2609 17.992
12.2761 17.966
12.2913 17.663
12.3065 17.888
12.3216 17.948
12.3368 17.762
12.3520 17.409
12.3672 17.053
12.3823 17.112
12.3975 17.254
12.4127 17.106
12.4279 17.255
12.4430 17.317
12.4582 16.839
12.4734 16.814
12.4886 16.884
12.5037 16.730
12.5189 16.743
12.5341 16.877
12.5493 16.715
12.5644 16.104
12.5796 15.984
12.5948 16.342
12.6100 16.331
12.6251 16.389
12.6403 16.346
12.6555 16.385
12.6707 16.139
12.6858 15.869
12.7010 15.807
12.7162 15.591
12.7314 15.673
12.7465 15.697
12.7617 15.515
12.7769 15.395
12.7921 15.233
12.8072 15.284
12.8224 15.179
12.8376 15.113
12.8528 15.164
12.8679 14.961
12.8831 14.836
12.8983 14.667
12.9135 14.441
12.9286 14.588
12.9438 14.518
12.9590 14.457
12.9742 14.300
12.9893 14.278
13.0045 14.502
13.0197 14.418
13.0349 14.273
13.0500 14.229
13.0652 14.229
13.0804 14.188
13.0956 13.955
13.1107 13.764
13.1259 13.840
13.1411 13.986
13.1563 13.814
13.1714 13.687
13.1866 13.761
13.2018 13.525
13.2170 13.472
13.2321 13.567
13.2473 13.365
13.2625 13.191
13.2777 13.111
13.2928 13.201
13.3080 13.322
13.3232 13.232
13.3384 13.388
13.3535 13.355
13.3687 13.100
13.3839 13.222
13.3991 13.138
13.4142 12.893
13.4294 12.772
13.4446 12.693
13.4598 12.775
13.4749 12.847
13.4901 12.631
13.5053 12.419
13.5205 12.407
13.5356 12.578
13.5508 12.498
13.5660 12.349
13.5812 12.327
13.5963 12.401
13.6115 12.316
13.6267 12.218
13.6419 12.262
13.6570 11.953
13.6722 11.924
13.6874 11.929
13.7026 12.029
13.7177 12.318
13.7329 12.122
13.7481 11.861
13.7633 11.996
13.7784 11.910
13.7936 12.202
13.8088 12.606
13.8239 12.579
13.8391 12.548
13.8543 12.336
13.8695 12.277
13.8846 12.065
13.8998 12.176
13.9150 12.148
13.9302 12.172
13.9453 12.141
13.9605 11.937
13.9757 11.754
13.9909 11.853
14.0060 11.961
14.0212 11.735
14.0364 11.446
14.0516 11.268
14.0667 11.332
14.0819 11.428
14.0971 11.145
14.1123 11.414
14.1274 11.439
14.1426 11.059
14.1578 11.119
14.1730 11.171
14.1881 11.344
14.2033 11.362
14.2185 11.285
14.2337 11.246
14.2488 11.608
14.2640 11.599
14.2792 11.621
14.2944 11.987
14.3095 12.050
14.3247 11.879
14.3399 12.177
14.3551 12.679
14.3702 13.057
14.3854 13.169
14.4006 13.474
14.4158 14.053
14.4309 14.357
14.4461 14.356
14.4613 14.508
14.4765 14.424
14.4916 13.997
14.5068 14.327
14.5220 13.712
14.5372 13.383
14.5523 12.801
14.5675 12.248
14.5827 12.072
14.5979 11.803
14.6130 11.405
14.6282 11.217
14.6434 11.294
14.6586 11.332
14.6737 10.911
14.6889 10.939
14.7041 11.038
14.7193 11.032
14.7344 11.468
14.7496 11.249
14.7648 11.312
14.7800 11.297
14.7951 11.586
14.8103 11.312
14.8255 11.410
14.8407 11.253
14.8558 11.239
14.8710 11.351
14.8862 11.118
14.9014 10.959
14.9165 11.220
14.9317 11.222
14.9469 11.068
14.9621 10.950
14.9772 10.459
14.9924 10.824
15.0076 10.517
15.0228 10.781
15.0379 10.597
15.0531 10.921
15.0683 10.964
15.0835 10.340
15.0986 10.499
15.1138 10.699
15.1290 10.517
15.1442 10.767
15.1593 10.748
15.1745 10.395
15.1897 10.481
15.2049 10.252
15.2200 10.163
15.2352 10.509
15.2504 10.323
15.2656 10.584
15.2807 10.582
15.2959 10.532
15.3111 10.632
15.3263 10.421
15.3414 10.093
15.3566 10.423
15.3718 10.483
15.3870 10.205
15.4021 10.489
15.4173 10.693
15.4325 10.419
15.4477 10.663
15.4628 10.346
15.4780 10.198
15.4932 10.064
15.5084 10.453
15.5235 10.328
15.5387 10.124
15.5539 10.613
15.5691 10.272
15.5842 10.565
15.5994 10.308
15.6146 10.342
15.6298 10.344
15.6449 10.137
15.6601 10.221
15.6753 10.184
15.6905 10.097
15.7056 9.944
15.7208 9.870
15.7360 9.913
15.7512 10.162
15.7663 10.021
15.7815 10.201
15.7967 9.744
15.8119 10.181
15.8270 9.908
15.8422 9.865
15.8574 9.674
15.8726 9.746
15.8877 10.046
15.9029 9.596
15.9181 9.683
15.9333 9.722
15.9484 9.701
15.9636 9.758
15.9788 9.984
15.9940 10.097
16.0091 9.847
16.0243 9.787
16.0395 9.840
16.0547 10.071
16.0698 9.883
16.0850 9.709
16.1002 9.620
16.1154 9.644
16.1305 9.780
16.1457 10.064
16.1609 9.832
16.1761 9.745
16.1912 9.914
16.2064 9.745
16.2216 9.588
16.2368 9.781
16.2519 10.088
16.2671 10.199
16.2823 10.078
16.2975 10.088
16.3126 9.969
16.3278 10.164
16.3430 10.124
16.3582 10.149
16.3733 10.261
16.3885 10.148
16.4037 10.197
16.4189 10.358
16.4340 10.318
16.4492 9.940
16.4644 9.934
16.4796 9.961
16.4947 9.865
16.5099 9.647
16.5251 9.856
16.5403 9.736
16.5554 9.805
16.5706 10.096
16.5858 9.943
16.6010 9.907
16.6161 9.804
16.6313 9.854
16.6465 10.026
16.6617 9.924
16.6768 9.840
16.6920 10.080
16.7072 10.061
16.7224 10.166
16.7375 10.009
16.7527 10.018
16.7679 10.018
16.7831 10.013
16.7982 10.144
16.8134 10.184
16.8286 10.215
16.8438 10.033
16.8589 9.853
16.8741 9.810
16.8893 9.860
16.9045 9.795
16.9196 9.834
16.9348 9.773
16.9500 9.621
16.9652 9.879
16.9803 10.057
16.9955 10.200
17.0107 10.203
17.0259 10.138
17.0410 10.131
17.0562 10.126
17.0714 10.222
17.0866 10.602
17.1017 10.761
17.1169 10.802
17.1321 11.235
17.1473 11.506
17.1624 11.822
17.1776 12.403
17.1928 13.121
17.2080 14.257
17.2231 15.369
17.2383 16.312
17.2535 17.510
17.2687 18.555
17.2838 19.141
17.2990 18.527
17.3142 17.229
17.3294 16.527
17.3445 16.067
17.3597 16.004
17.3749 16.082
17.3901 15.483
17.4052 14.519
17.4204 13.513
17.4356 12.517
17.4508 11.715
17.4659 11.366
17.4811 11.382
17.4963 11.264
17.5115 11.027
17.5266 10.768
17.5418 10.594
17.5570 10.630
17.5722 10.708
17.5873 10.599
17.6025 10.592
17.6177 10.763
17.6329 10.733
17.6480 10.828
17.6632 10.937
17.6784 10.987
17.6936 11.163
17.7087 11.491
17.7239 11.890
17.7391 11.937
17.7543 11.962
17.7694 12.231
17.7846 12.350
17.7998 12.578
17.8150 12.812
17.8301 12.725
17.8453 12.513
17.8605 12.544
17.8757 12.503
17.8908 12.402
17.9060 12.454
17.9212 12.026
17.9364 11.542
17.9515 11.297
17.9667 11.342
17.9819 11.117
17.9971 10.720
18.0122 10.975
18.0274 10.863
18.0426 10.567
18.0578 10.398
18.0729 10.220
18.0881 9.992
18.1033 10.077
18.1185 10.097
18.1336 10.070
18.1488 10.089
18.1640 10.219
18.1792 10.009
18.1943 10.029
18.2095 10.216
18.2247 10.062
18.2399 10.117
18.2550 10.217
18.2702 10.144
18.2854 9.972
18.3006 10.286
18.3157 10.484
18.3309 10.051
18.3461 9.880
18.3613 9.971
18.3764 9.870
18.3916 10.004
18.4068 9.930
18.4220 9.948
18.4371 9.993
18.4523 9.936
18.4675 9.892
18.4827 9.706
18.4978 9.757
18.5130 10.018
18.5282 10.057
18.5434 10.015
18.5585 9.841
18.5737 9.695
18.5889 9.878
18.6041 10.018
18.6192 9.881
18.6344 9.972
18.6496 10.076
18.6648 9.668
18.6799 9.722
18.6951 9.967
18.7103 9.817
18.7255 9.663
18.7406 9.566
18.7558 9.945
18.7710 9.934
18.7862 9.784
18.8013 9.851
18.8165 9.926
18.8317 9.926
18.8469 10.135
18.8620 10.161
18.8772 10.089
18.8924 10.125
18.9076 10.167
18.9227 10.053
18.9379 10.158
18.9531 10.121
18.9683 10.135
18.9834 9.971
18.9986 10.191
19.0138 10.153
19.0290 10.114
19.0441 10.176
19.0593 10.321
19.0745 10.520
19.0897 10.451
19.1048 10.503
19.1200 10.412
19.1352 10.354
19.1504 10.463
19.1655 10.572
19.1807 10.722
19.1959 10.842
19.2111 10.785
19.2262 10.917
19.2414 10.997
19.2566 11.133
19.2718 11.145
19.2869 10.857
19.3021 10.942
19.3173 11.042
19.3325 10.985
19.3476 11.108
19.3628 11.215
19.3780 11.192
19.3932 11.280
19.4083 11.426
19.4235 11.395
19.4387 11.465
19.4539 11.648
19.4690 11.574
19.4842 11.356
19.4994 11.505
19.5146 11.597
19.5297 11.239
19.5449 11.312
19.5601 11.420
19.5753 11.424
19.5904 11.659
19.6056 11.831
19.6208 11.730
19.6360 11.698
19.6511 11.693
19.6663 11.608
19.6815 11.602
19.6967 11.725
19.7118 11.678
19.7270 11.841
19.7422 12.059
19.7574 12.068
19.7725 11.937
19.7877 11.984
19.8029 11.957
19.8180 12.001
19.8332 12.283
19.8484 12.426
19.8636 12.615
19.8787 12.826
19.8939 13.060
19.9091 13.307
19.9243 13.530
19.9394 14.065
19.9546 14.498
19.9698 14.522
19.9850 14.549
20.0001 14.690
20.0153 14.518
20.0305 14.177
20.0457 13.788
20.0608 13.614
20.0760 13.558
20.0912 13.605
20.1064 13.726
20.1215 13.553
20.1367 13.336
20.1519 13.243
20.1671 13.002
20.1822 12.794
20.1974 12.633
20.2126 12.517
20.2278 12.740
20.2429 12.579
20.2581 12.026
20.2733 11.751
20.2885 11.663
20.3036 11.683
20.3188 11.727
20.3340 11.769
20.3492 11.747
20.3643 11.737
20.3795 11.385
20.3947 11.462
20.4099 11.500
20.4250 11.387
20.4402 11.259
20.4554 11.318
20.4706 11.390
20.4857 11.426
20.5009 11.828
20.5161 11.683
20.5313 11.564
20.5464 11.414
20.5616 11.438
20.5768 11.385
20.5920 11.164
20.6071 11.594
20.6223 11.397
20.6375 11.089
20.6527 11.203
20.6678 11.229
20.6830 11.259
20.6982 11.160
20.7134 10.880
20.7285 10.612
20.7437 10.363
20.7589 10.403
20.7741 10.469
20.7892 10.736
20.8044 10.786
20.8196 10.551
20.8348 10.839
20.8499 10.816
20.8651 10.419
20.8803 10.709
20.8955 10.425
20.9106 10.668
20.9258 10.639
20.9410 10.355
20.9562 10.616
20.9713 10.850
20.9865 11.007
21.0017 10.542
21.0169 10.550
21.0320 10.463
21.0472 10.634
21.0624 10.612
21.0776 10.688
21.0927 10.374
21.1079 10.351
21.1231 10.270
21.1383 10.043
21.1534 10.310
21.1686 10.002
21.1838 9.661
21.1990 9.883
21.2141 9.829
21.2293 9.870
21.2445 9.903
21.2597 9.679
21.2748 9.805
21.2900 9.945
21.3052 9.349
21.3204 9.895
21.3355 9.660
21.3507 9.535
21.3659 9.695
21.3811 9.588
21.3962 9.422
21.4114 9.518
21.4266 9.536
21.4418 9.305
21.4569 9.567
21.4721 9.294
21.4873 9.529
21.5025 9.509
21.5176 9.244
21.5328 9.346
21.5480 9.501
21.5632 9.285
21.5783 9.185
21.5935 8.823
21.6087 9.170
21.6239 9.185
21.6390 9.333
21.6542 9.286
21.6694 9.202
21.6846 9.146
21.6997 9.061
21.7149 9.301
21.7301 9.363
21.7453 9.056
21.7604 9.061
21.7756 9.107
21.7908 9.014
21.8060 8.840
21.8211 8.940
21.8363 8.849
21.8515 9.047
21.8667 9.298
21.8818 9.210
21.8970 8.963
21.9122 9.109
21.9274 9.130
21.9425 9.074
21.9577 9.006
21.9729 8.940
21.9881 8.837
22.0032 8.818
22.0184 8.710
22.0336 8.758
22.0488 8.847
22.0639 8.755
22.0791 8.765
22.0943 8.629
22.1095 8.572
22.1246 8.639
22.1398 8.589
22.1550 8.767
22.1702 8.843
22.1853 8.694
22.2005 8.827
22.2157 8.624
22.2309 8.589
22.2460 8.647
22.2612 8.536
22.2764 8.556
22.2916 8.541
22.3067 8.504
22.3219 8.549
22.3371 8.452
22.3523 8.545
22.3674 8.473
22.3826 8.446
22.3978 8.718
22.4130 8.836
22.4281 8.712
22.4433 8.517
22.4585 8.402
22.4737 8.486
22.4888 8.602
22.5040 8.577
22.5192 8.460
22.5344 8.329
22.5495 8.239
22.5647 8.804
22.5799 8.395
22.5951 8.589
22.6102 8.771
22.6254 8.670
22.6406 8.656
22.6558 8.717
22.6709 8.586
22.6861 8.559
22.7013 8.344
22.7165 7.969
22.7316 6.508
