'Id: "" Comment: "" Operator: "Lab Manager" Anode: "Mo" Scantype: "Still (Eiger2R_500K (1D mode))" TimePerStep: "300" X: "11.8" Y: "9.4" Z: "11.284" 
7.2532 19.199
7.2684 18.789
7.2836 18.954
7.2987 19.189
7.3139 19.110
7.3291 19.294
7.3443 18.935
7.3594 19.407
7.3746 19.289
7.3898 19.516
7.4050 19.440
7.4201 19.568
7.4353 19.545
7.4505 19.517
7.4657 19.651
7.4808 19.483
7.4960 19.617
7.5112 19.964
7.5264 19.779
7.5415 19.637
7.5567 19.937
7.5719 20.255
7.5871 20.182
7.6022 20.110
7.6174 20.232
7.6326 20.324
7.6478 20.195
7.6629 19.986
7.6781 20.177
7.6933 20.471
7.7085 20.492
7.7236 20.490
7.7388 20.368
7.7540 20.149
7.7692 20.463
7.7843 20.502
7.7995 20.410
7.8147 20.676
7.8299 20.732
7.8450 20.752
7.8602 20.599
7.8754 20.657
7.8905 20.880
7.9057 20.965
7.9209 21.090
7.9361 21.039
7.9512 20.752
7.9664 20.872
7.9816 20.941
7.9968 21.241
8.0119 21.337
8.0271 21.210
8.0423 21.318
8.0575 21.119
8.0726 21.019
8.0878 21.189
8.1030 21.363
8.1182 21.065
8.1333 21.291
8.1485 21.763
8.1637 21.546
8.1789 21.941
8.1940 21.687
8.2092 21.660
8.2244 22.148
8.2396 21.693
8.2547 21.417
8.2699 21.963
8.2851 22.018
8.3003 22.179
8.3154 22.105
8.3306 21.602
8.3458 21.900
8.3610 21.673
8.3761 21.792
8.3913 21.826
8.4065 21.411
8.4217 22.225
8.4368 22.492
8.4520 22.378
8.4672 22.483
8.4824 22.078
8.4975 22.180
8.5127 21.931
8.5279 22.261
8.5431 22.079
8.5582 22.100
8.5734 22.015
8.5886 22.260
8.6038 22.012
8.6189 21.798
8.6341 22.371
8.6493 22.162
8.6645 22.633
8.6796 22.292
8.6948 21.943
8.7100 22.201
8.7252 22.502
8.7403 22.048
8.7555 22.470
8.7707 22.616
8.7859 22.750
8.8010 22.595
8.8162 22.588
8.8314 22.663
8.8466 22.969
8.8617 22.474
8.8769 22.581
8.8921 23.074
8.9073 22.610
8.9224 22.404
8.9376 22.342
8.9528 22.579
8.9680 23.092
8.9831 22.826
8.9983 22.352
9.0135 22.174
9.0287 22.764
9.0438 22.502
9.0590 22.669
9.0742 23.012
9.0894 22.825
9.1045 22.744
9.1197 23.071
9.1349 22.664
9.1501 22.553
9.1652 23.074
9.1804 23.029
9.1956 22.978
9.2108 23.162
9.2259 22.541
9.2411 22.444
9.2563 22.656
9.2715 22.675
9.2866 22.616
9.3018 23.270
9.3170 23.332
9.3322 23.096
9.3473 22.975
9.3625 22.903
9.3777 23.057
9.3929 22.851
9.4080 23.009
9.4232 23.322
9.4384 23.363
9.4536 23.369
9.4687 23.058
9.4839 23.098
9.4991 23.177
9.5143 23.287
9.5294 23.483
9.5446 23.391
9.5598 23.168
9.5750 22.935
9.5901 23.283
9.6053 23.475
9.6205 23.074
9.6357 23.256
9.6508 23.402
9.6660 23.518
9.6812 23.782
9.6964 23.816
9.7115 23.973
9.7267 24.308
9.7419 24.481
9.7571 24.235
9.7722 23.783
9.7874 23.679
9.8026 23.930
9.8178 23.799
9.8329 23.797
9.8481 23.957
9.8633 23.786
9.8785 23.789
9.8936 23.924
9.9088 23.617
9.9240 23.422
9.9392 23.551
9.9543 23.523
9.9695 23.615
9.9847 23.560
9.9999 23.105
10.0150 22.831
10.0302 22.899
10.0454 23.140
10.0606 23.183
10.0757 23.273
10.0909 23.597
10.1061 23.711
10.1213 23.531
10.1364 23.523
10.1516 23.231
10.1668 23.013
10.1820 22.909
10.1971 22.938
10.2123 23.394
10.2275 23.500
10.2427 23.129
10.2578 23.241
10.2730 23.330
10.2882 22.763
10.3034 22.338
10.3185 22.726
10.3337 22.987
10.3489 23.021
10.3641 22.891
10.3792 22.912
10.3944 23.073
10.4096 22.840
10.4248 22.512
10.4399 22.872
10.4551 22.845
10.4703 22.833
10.4855 23.080
10.5006 22.909
10.5158 22.669
10.5310 22.471
10.5462 22.474
10.5613 22.722
10.5765 22.371
10.5917 22.601
10.6069 22.472
10.6220 22.237
10.6372 22.649
10.6524 22.434
10.6676 22.470
10.6827 22.958
10.6979 22.612
10.7131 22.652
10.7283 22.569
10.7434 22.821
10.7586 22.128
10.7738 22.302
10.7890 22.348
10.8041 21.960
10.8193 22.095
10.8345 22.063
10.8497 22.124
10.8648 22.049
10.8800 21.866
10.8952 22.253
10.9104 22.486
10.9255 22.252
10.9407 22.103
10.9559 22.349
10.9711 22.344
10.9862 22.365
11.0014 22.136
11.0166 22.050
11.0318 22.258
11.0469 22.315
11.0621 21.869
11.0773 22.049
11.0925 22.445
11.1076 22.300
11.1228 22.311
11.1380 22.188
11.1532 21.837
11.1683 21.510
11.1835 21.666
11.1987 21.876
11.2139 21.919
11.2290 21.743
11.2442 21.380
11.2594 21.573
11.2746 21.587
11.2897 21.667
11.3049 21.610
11.3201 21.855
11.3353 21.757
11.3504 21.236
11.3656 21.179
11.3808 21.663
11.3960 21.342
11.4111 21.498
11.4263 21.738
11.4415 21.608
11.4567 21.490
11.4718 21.602
11.4870 21.596
11.5022 21.620
11.5174 21.546
11.5325 21.380
11.5477 21.339
11.5629 21.147
11.5781 20.903
11.5932 21.249
11.6084 20.956
11.6236 20.560
11.6388 20.429
11.6539 20.711
11.6691 20.511
11.6843 20.451
11.6995 20.509
11.7146 20.706
11.7298 20.327
11.7450 20.202
11.7602 20.930
11.7753 20.392
11.7905 20.264
11.8057 19.864
11.8209 20.067
11.8360 20.024
11.8512 20.125
11.8664 20.012
11.8816 19.768
11.8967 19.543
11.9119 19.708
11.9271 19.577
11.9423 19.412
11.9574 19.321
11.9726 19.105
11.9878 19.415
12.0030 18.968
12.0181 18.846
12.0333 19.397
12.0485 19.468
12.0637 19.278
12.0788 19.021
12.0940 18.760
12.1092 19.013
12.1244 19.319
12.1395 18.637
12.1547 18.521
12.1699 18.789
12.1851 18.666
12.2002 18.315
12.2154 18.167
12.2306 18.126
12.2458 17.927
12.2609 18.243
12.2761 18.088
12.2913 17.756
12.3065 17.788
12.3216 17.883
12.3368 17.433
12.3520 17.305
12.3672 17.267
12.3823 17.476
12.3975 17.445
12.4127 16.909
12.4279 16.940
12.4430 17.067
12.4582 16.932
12.4734 17.067
12.4886 16.933
12.5037 16.596
12.5189 16.493
12.5341 16.652
12.5493 16.634
12.5644 16.424
12.5796 16.239
12.5948 16.414
12.6100 16.287
12.6251 16.183
12.6403 16.015
12.6555 16.238
12.6707 15.949
12.6858 15.720
12.7010 15.883
12.7162 15.809
12.7314 15.796
12.7465 15.611
12.7617 15.526
12.7769 15.457
12.7921 15.214
12.8072 15.044
12.8224 15.055
12.8376 14.958
12.8528 15.013
12.8679 14.837
12.8831 14.828
12.8983 14.784
12.9135 14.711
12.9286 14.781
12.9438 14.414
12.9590 14.107
12.9742 14.257
12.9893 14.367
13.0045 14.235
13.0197 14.292
13.0349 14.688
13.0500 14.548
13.0652 14.374
13.0804 14.372
13.0956 14.113
13.1107 14.027
13.1259 14.104
13.1411 13.988
13.1563 13.706
13.1714 13.716
13.1866 13.861
13.2018 13.738
13.2170 13.293
13.2321 13.269
13.2473 13.266
13.2625 13.174
13.2777 13.380
13.2928 13.194
13.3080 13.067
13.3232 13.034
13.3384 12.989
13.3535 13.160
13.3687 13.229
13.3839 13.065
13.3991 12.962
13.4142 12.961
13.4294 12.962
13.4446 12.918
13.4598 12.945
13.4749 12.860
13.4901 12.672
13.5053 12.649
13.5205 12.530
13.5356 12.301
13.5508 12.543
13.5660 12.579
13.5812 12.484
13.5963 12.401
13.6115 12.015
13.6267 12.053
13.6419 12.078
13.6570 12.178
13.6722 11.996
13.6874 12.128
13.7026 12.037
13.7177 12.032
13.7329 11.825
13.7481 11.982
13.7633 12.317
13.7784 12.058
13.7936 12.157
13.8088 12.361
13.8239 12.228
13.8391 12.372
13.8543 12.561
13.8695 12.641
13.8846 12.771
13.8998 12.477
13.9150 12.338
13.9302 12.271
13.9453 12.288
13.9605 11.998
13.9757 11.900
13.9909 11.932
14.0060 11.927
14.0212 11.642
14.0364 11.453
14.0516 11.538
14.0667 11.462
14.0819 11.558
14.0971 11.463
14.1123 11.418
14.1274 11.490
14.1426 11.459
14.1578 11.533
14.1730 11.186
14.1881 11.468
14.2033 11.231
14.2185 11.590
14.2337 11.587
14.2488 11.509
14.2640 11.482
14.2792 11.618
14.2944 11.817
14.3095 12.008
14.3247 12.141
14.3399 12.087
14.3551 12.082
14.3702 12.612
14.3854 13.304
14.4006 13.036
14.4158 13.273
14.4309 12.739
14.4461 13.035
14.4613 12.765
14.4765 12.469
14.4916 12.506
14.5068 12.207
14.5220 11.783
14.5372 11.757
14.5523 11.436
14.5675 11.319
14.5827 11.231
14.5979 11.187
14.6130 11.225
14.6282 10.845
14.6434 11.136
14.6586 11.062
14.6737 10.902
14.6889 10.913
14.7041 11.213
14.7193 11.007
14.7344 11.001
14.7496 11.219
14.7648 11.056
14.7800 11.319
14.7951 10.893
14.8103 10.848
14.8255 10.563
14.8407 10.867
14.8558 10.793
14.8710 10.597
14.8862 10.892
14.9014 10.851
14.9165 10.884
14.9317 10.973
14.9469 10.805
14.9621 10.847
14.9772 10.592
14.9924 10.700
15.0076 10.406
15.0228 10.827
15.0379 10.393
15.0531 9.976
15.0683 10.131
15.0835 10.459
15.0986 10.091
15.1138 10.424
15.1290 10.542
15.1442 10.771
15.1593 10.598
15.1745 10.348
15.1897 10.342
15.2049 10.135
15.2200 10.735
15.2352 10.222
15.2504 10.551
15.2656 10.421
15.2807 10.090
15.2959 10.399
15.3111 10.120
15.3263 10.348
15.3414 10.415
15.3566 10.145
15.3718 10.429
15.3870 10.447
15.4021 10.299
15.4173 10.270
15.4325 10.153
15.4477 10.370
15.4628 10.468
15.4780 10.299
15.4932 10.366
15.5084 10.354
15.5235 10.189
15.5387 10.285
15.5539 9.997
15.5691 10.103
15.5842 10.043
15.5994 10.171
15.6146 10.428
15.6298 10.135
15.6449 9.846
15.6601 9.973
15.6753 9.864
15.6905 10.140
15.7056 10.087
15.7208 10.146
15.7360 10.021
15.7512 9.598
15.7663 9.673
15.7815 9.775
15.7967 9.910
15.8119 10.084
15.8270 9.816
15.8422 9.947
15.8574 9.974
15.8726 9.887
15.8877 9.631
15.9029 9.653
15.9181 9.867
15.9333 9.797
15.9484 9.808
15.9636 9.843
15.9788 9.962
15.9940 9.794
16.0091 9.806
16.0243 9.849
16.0395 9.823
16.0547 9.739
16.0698 9.818
16.0850 9.788
16.1002 9.797
16.1154 9.686
16.1305 9.494
16.1457 9.467
16.1609 9.541
16.1761 9.698
16.1912 9.772
16.2064 9.833
16.2216 9.698
16.2368 9.532
16.2519 9.878
16.2671 9.901
16.2823 9.907
16.2975 10.120
16.3126 10.053
16.3278 10.104
16.3430 10.098
16.3582 10.058
16.3733 10.190
16.3885 10.215
16.4037 10.391
16.4189 10.329
16.4340 10.216
16.4492 9.734
16.4644 9.785
16.4796 10.096
16.4947 9.944
16.5099 9.733
16.5251 9.681
16.5403 9.635
16.5554 9.802
16.5706 9.751
16.5858 9.635
16.6010 9.654
16.6161 9.773
16.6313 9.752
16.6465 9.909
16.6617 9.576
16.6768 9.528
16.6920 9.920
16.7072 10.151
16.7224 10.121
16.7375 10.088
16.7527 9.993
16.7679 9.898
16.7831 9.906
16.7982 9.859
16.8134 9.933
16.8286 9.847
16.8438 9.844
16.8589 9.975
16.8741 9.738
16.8893 9.662
16.9045 10.025
16.9196 10.161
16.9348 9.955
16.9500 9.751
16.9652 9.874
16.9803 9.927
16.9955 9.951
17.0107 10.027
17.0259 10.222
17.0410 10.236
17.0562 10.231
17.0714 10.238
17.0866 10.370
17.1017 10.609
17.1169 10.773
17.1321 11.061
17.1473 11.295
17.1624 11.749
17.1776 12.415
17.1928 13.110
17.2080 14.104
17.2231 15.067
17.2383 16.082
17.2535 17.667
17.2687 18.709
17.2838 18.873
17.2990 18.310
17.3142 16.889
17.3294 16.228
17.3445 16.424
17.3597 16.201
17.3749 15.940
17.3901 15.576
17.4052 14.480
17.4204 13.200
17.4356 12.434
17.4508 11.995
17.4659 11.628
17.4811 11.536
17.4963 11.307
17.5115 10.840
17.5266 10.686
17.5418 10.575
17.5570 10.606
17.5722 10.905
17.5873 10.848
17.6025 10.502
17.6177 10.391
17.6329 10.621
17.6480 10.810
17.6632 10.700
17.6784 10.690
17.6936 11.112
17.7087 11.020
17.7239 10.808
17.7391 10.981
17.7543 10.983
17.7694 11.071
17.7846 11.178
17.7998 11.205
17.8150 10.910
17.8301 10.927
17.8453 11.058
17.8605 10.819
17.8757 10.651
17.8908 10.822
17.9060 10.801
17.9212 10.546
17.9364 10.507
17.9515 10.326
17.9667 10.538
17.9819 10.643
17.9971 10.323
18.0122 10.404
18.0274 10.466
18.0426 10.116
18.0578 10.023
18.0729 10.128
18.0881 10.073
18.1033 9.979
18.1185 10.034
18.1336 9.974
18.1488 10.082
18.1640 10.132
18.1792 9.983
18.1943 9.896
18.2095 9.914
18.2247 9.946
18.2399 9.775
18.2550 9.766
18.2702 9.845
18.2854 10.057
18.3006 10.023
18.3157 9.750
18.3309 9.918
18.3461 9.813
18.3613 9.623
18.3764 9.891
18.3916 9.823
18.4068 9.705
18.4220 9.899
18.4371 9.782
18.4523 9.589
18.4675 9.802
18.4827 9.825
18.4978 9.607
18.5130 9.719
18.5282 9.813
18.5434 9.923
18.5585 9.751
18.5737 9.715
18.5889 9.841
18.6041 10.058
18.6192 9.775
18.6344 9.694
18.6496 9.664
18.6648 9.581
18.6799 9.620
18.6951 9.732
18.7103 9.697
18.7255 9.579
18.7406 9.780
18.7558 9.797
18.7710 9.641
18.7862 9.960
18.8013 9.988
18.8165 9.630
18.8317 9.684
18.8469 9.858
18.8620 10.095
18.8772 9.938
18.8924 9.600
18.9076 9.701
18.9227 10.132
18.9379 10.051
18.9531 9.935
18.9683 9.908
18.9834 10.233
18.9986 10.280
19.0138 10.146
19.0290 10.056
19.0441 10.225
19.0593 10.195
19.0745 10.396
19.0897 10.416
19.1048 10.365
19.1200 10.372
19.1352 10.273
19.1504 10.388
19.1655 10.426
19.1807 10.515
19.1959 10.883
19.2111 10.594
19.2262 10.609
19.2414 10.923
19.2566 10.918
19.2718 10.987
19.2869 10.919
19.3021 11.002
19.3173 10.999
19.3325 10.960
19.3476 10.947
19.3628 11.050
19.3780 11.022
19.3932 11.059
19.4083 11.166
19.4235 11.270
19.4387 11.242
19.4539 11.304
19.4690 11.359
19.4842 11.215
19.4994 11.306
19.5146 11.354
19.5297 11.490
19.5449 11.377
19.5601 11.232
19.5753 11.301
19.5904 11.554
19.6056 11.803
19.6208 11.732
19.6360 11.754
19.6511 11.794
19.6663 11.681
19.6815 11.743
19.6967 11.920
19.7118 11.895
19.7270 11.855
19.7422 11.960
19.7574 11.907
19.7725 11.914
19.7877 11.949
19.8029 12.141
19.8180 12.317
19.8332 12.219
19.8484 12.273
19.8636 12.428
19.8787 12.525
19.8939 12.940
19.9091 13.420
19.9243 13.563
19.9394 13.665
19.9546 14.011
19.9698 14.392
19.9850 14.493
20.0001 14.350
20.0153 13.983
20.0305 14.203
20.0457 14.281
20.0608 13.707
20.0760 13.449
20.0912 13.751
20.1064 13.917
20.1215 13.741
20.1367 13.464
20.1519 13.037
20.1671 12.868
20.1822 12.878
20.1974 12.651
20.2126 12.587
20.2278 12.614
20.2429 12.589
20.2581 12.193
20.2733 11.695
20.2885 11.594
20.3036 11.673
20.3188 11.738
20.3340 11.883
20.3492 11.637
20.3643 11.396
20.3795 11.353
20.3947 11.467
20.4099 11.197
20.4250 11.064
20.4402 11.015
20.4554 11.089
20.4706 11.301
20.4857 11.035
20.5009 11.231
20.5161 11.240
20.5313 11.089
20.5464 11.019
20.5616 10.906
20.5768 10.726
20.5920 10.630
20.6071 10.934
20.6223 10.833
20.6375 10.565
20.6527 10.748
20.6678 10.580
20.6830 10.435
20.6982 10.571
20.7134 10.575
20.7285 10.482
20.7437 10.346
20.7589 10.301
20.7741 10.382
20.7892 10.490
20.8044 10.517
20.8196 10.070
20.8348 10.118
20.8499 10.403
20.8651 10.200
20.8803 10.164
20.8955 10.239
20.9106 10.154
20.9258 10.371
20.9410 10.229
20.9562 10.258
20.9713 10.302
20.9865 10.370
21.0017 10.227
21.0169 9.949
21.0320 10.152
21.0472 9.942
21.0624 10.544
21.0776 10.110
21.0927 10.112
21.1079 9.824
21.1231 9.957
21.1383 9.713
21.1534 9.816
21.1686 9.792
21.1838 9.778
21.1990 9.943
21.2141 9.753
21.2293 9.461
21.2445 9.625
21.2597 9.441
21.2748 9.475
21.2900 9.757
21.3052 9.539
21.3204 9.448
21.3355 9.505
21.3507 9.626
21.3659 9.380
21.3811 9.407
21.3962 9.292
21.4114 9.431
21.4266 9.368
21.4418 9.561
21.4569 9.534
21.4721 9.396
21.4873 9.427
21.5025 9.142
21.5176 9.291
21.5328 9.150
21.5480 9.168
21.5632 9.157
21.5783 9.547
21.5935 9.234
21.6087 9.095
21.6239 9.282
21.6390 9.362
21.6542 9.172
21.6694 9.288
21.6846 9.120
21.6997 8.977
21.7149 8.971
21.7301 8.919
21.7453 9.294
21.7604 9.028
21.7756 8.974
21.7908 9.074
21.8060 9.157
21.8211 9.008
21.8363 8.997
21.8515 8.915
21.8667 8.949
21.8818 9.142
21.8970 9.113
21.9122 9.180
21.9274 9.208
21.9425 9.029
21.9577 8.948
21.9729 8.868
21.9881 8.741
22.0032 8.847
22.0184 8.945
22.0336 8.739
22.0488 8.633
22.0639 8.807
22.0791 8.889
22.0943 8.817
22.1095 9.004
22.1246 8.879
22.1398 8.640
22.1550 8.598
22.1702 8.676
22.1853 8.660
22.2005 8.746
22.2157 8.789
22.2309 8.679
22.2460 8.556
22.2612 8.469
22.2764 8.732
22.2916 8.449
22.3067 8.556
22.3219 8.444
22.3371 8.571
22.3523 8.611
22.3674 8.514
22.3826 8.479
22.3978 8.387
22.4130 8.392
22.4281 8.625
22.4433 8.527
22.4585 8.682
22.4737 8.545
22.4888 8.435
22.5040 8.573
22.5192 8.415
22.5344 8.325
22.5495 8.476
22.5647 8.274
22.5799 8.362
22.5951 8.634
22.6102 8.614
22.6254 8.574
22.6406 8.391
22.6558 8.526
22.6709 8.341
22.6861 8.366
22.7013 8.073
22.7165 7.877
22.7316 6.491
