'Id: "" Comment: "" Operator: "Lab Manager" Anode: "Mo" Scantype: "Still (Eiger2R_500K (1D mode))" TimePerStep: "300" X: "11.8" Y: "9.4" Z: "11.284" 
7.2532 18.647
7.2684 18.996
7.2836 18.644
7.2987 18.604
7.3139 18.806
7.3291 18.761
7.3443 18.917
7.3594 18.874
7.3746 18.905
7.3898 19.115
7.4050 19.401
7.4201 19.573
7.4353 19.562
7.4505 19.431
7.4657 19.456
7.4808 19.451
7.4960 19.444
7.5112 19.838
7.5264 19.623
7.5415 19.602
7.5567 19.972
7.5719 19.805
7.5871 19.901
7.6022 19.758
7.6174 20.219
7.6326 20.246
7.6478 19.945
7.6629 19.880
7.6781 19.958
7.6933 19.965
7.7085 19.948
7.7236 19.903
7.7388 20.009
7.7540 20.120
7.7692 20.197
7.7843 20.288
7.7995 20.303
7.8147 20.318
7.8299 20.430
7.8450 20.557
7.8602 20.759
7.8754 20.638
7.8905 20.817
7.9057 20.791
7.9209 20.600
7.9361 20.534
7.9512 20.732
7.9664 21.004
7.9816 21.017
7.9968 20.855
8.0119 20.727
8.0271 21.047
8.0423 20.877
8.0575 20.489
8.0726 20.977
8.0878 21.017
8.1030 20.998
8.1182 20.906
8.1333 21.037
8.1485 21.104
8.1637 21.426
8.1789 21.460
8.1940 21.111
8.2092 21.342
8.2244 21.142
8.2396 21.268
8.2547 21.807
8.2699 21.686
8.2851 21.551
8.3003 21.280
8.3154 21.236
8.3306 22.303
8.3458 21.687
8.3610 21.442
8.3761 21.437
8.3913 21.192
8.4065 21.701
8.4217 22.047
8.4368 21.665
8.4520 22.031
8.4672 21.664
8.4824 21.943
8.4975 21.656
8.5127 21.848
8.5279 21.755
8.5431 22.023
8.5582 21.924
8.5734 21.896
8.5886 21.657
8.6038 22.267
8.6189 22.236
8.6341 22.209
8.6493 22.064
8.6645 22.274
8.6796 22.030
8.6948 22.316
8.7100 21.865
8.7252 21.900
8.7403 22.009
8.7555 22.245
8.7707 22.325
8.7859 21.980
8.8010 21.916
8.8162 22.111
8.8314 22.782
8.8466 22.486
8.8617 22.310
8.8769 22.206
8.8921 22.396
8.9073 21.982
8.9224 22.246
8.9376 22.368
8.9528 22.274
8.9680 22.470
8.9831 22.586
8.9983 22.790
9.0135 22.974
9.0287 22.404
9.0438 22.524
9.0590 22.584
9.0742 22.333
9.0894 22.460
9.1045 22.653
9.1197 22.478
9.1349 22.368
9.1501 22.696
9.1652 22.624
9.1804 22.700
9.1956 22.834
9.2108 22.866
9.2259 22.482
9.2411 22.620
9.2563 22.701
9.2715 22.671
9.2866 22.793
9.3018 22.948
9.3170 22.909
9.3322 22.655
9.3473 22.882
9.3625 23.025
9.3777 22.962
9.3929 23.218
9.4080 23.255
9.4232 22.940
9.4384 22.361
9.4536 22.649
9.4687 22.960
9.4839 22.739
9.4991 23.137
9.5143 23.021
9.5294 22.815
9.5446 23.101
9.5598 23.217
9.5750 22.807
9.5901 22.933
9.6053 23.159
9.6205 22.734
9.6357 23.005
9.6508 23.325
9.6660 23.374
9.6812 23.656
9.6964 23.629
9.7115 23.509
9.7267 23.824
9.7419 23.780
9.7571 23.767
9.7722 23.691
9.7874 23.280
9.8026 23.620
9.8178 23.570
9.8329 23.071
9.8481 23.276
9.8633 23.510
9.8785 23.227
9.8936 23.142
9.9088 23.278
9.9240 23.078
9.9392 22.801
9.9543 22.880
9.9695 22.944
9.9847 22.562
9.9999 22.834
10.0150 22.959
10.0302 22.881
10.0454 22.908
10.0606 22.719
10.0757 23.048
10.0909 23.331
10.1061 23.307
10.1213 23.162
10.1364 23.259
10.1516 23.311
10.1668 23.607
10.1820 23.479
10.1971 23.312
10.2123 22.993
10.2275 22.791
10.2427 22.860
10.2578 23.118
10.2730 22.985
10.2882 22.787
10.3034 23.005
10.3185 23.070
10.3337 22.680
10.3489 22.601
10.3641 22.396
10.3792 22.537
10.3944 22.596
10.4096 22.760
10.4248 22.740
10.4399 22.497
10.4551 22.571
10.4703 22.622
10.4855 22.656
10.5006 22.337
10.5158 22.330
10.5310 22.454
10.5462 22.578
10.5613 22.406
10.5765 22.465
10.5917 22.261
10.6069 22.371
10.6220 22.395
10.6372 22.610
10.6524 22.172
10.6676 22.270
10.6827 22.266
10.6979 22.570
10.7131 22.452
10.7283 22.521
10.7434 22.455
10.7586 22.196
10.7738 21.874
10.7890 22.309
10.8041 22.288
10.8193 22.233
10.8345 22.357
10.8497 22.093
10.8648 21.953
10.8800 22.017
10.8952 22.026
10.9104 21.961
10.9255 21.762
10.9407 22.242
10.9559 22.105
10.9711 21.987
10.9862 22.174
11.0014 21.959
11.0166 22.154
11.0318 22.011
11.0469 21.972
11.0621 21.759
11.0773 21.854
11.0925 22.129
11.1076 21.976
11.1228 21.759
11.1380 21.644
11.1532 21.524
11.1683 21.666
11.1835 21.637
11.1987 21.589
11.2139 21.382
11.2290 21.400
11.2442 21.605
11.2594 21.534
11.2746 21.539
11.2897 21.579
11.3049 21.505
11.3201 21.496
11.3353 21.628
11.3504 21.482
11.3656 21.325
11.3808 20.973
11.3960 21.486
11.4111 21.199
11.4263 21.131
11.4415 21.044
11.4567 21.108
11.4718 20.846
11.4870 21.299
11.5022 20.843
11.5174 20.566
11.5325 20.960
11.5477 20.871
11.5629 20.611
11.5781 20.987
11.5932 20.551
11.6084 20.595
11.6236 20.967
11.6388 21.022
11.6539 21.016
11.6691 20.820
11.6843 20.586
11.6995 20.451
11.7146 20.661
11.7298 20.366
11.7450 20.119
11.7602 20.291
11.7753 20.262
11.7905 20.375
11.8057 20.162
11.8209 19.906
11.8360 19.795
11.8512 19.932
11.8664 19.675
11.8816 20.003
11.8967 19.803
11.9119 19.761
11.9271 19.595
11.9423 19.331
11.9574 19.044
11.9726 19.036
11.9878 19.071
12.0030 18.919
12.0181 18.686
12.0333 18.733
12.0485 18.656
12.0637 18.707
12.0788 18.429
12.0940 18.558
12.1092 18.834
12.1244 18.706
12.1395 18.425
12.1547 18.575
12.1699 18.514
12.1851 18.477
12.2002 18.472
12.2154 18.195
12.2306 18.113
12.2458 18.131
12.2609 17.960
12.2761 18.090
12.2913 18.167
12.3065 17.880
12.3216 17.766
12.3368 17.621
12.3520 17.453
12.3672 17.225
12.3823 17.178
12.3975 17.139
12.4127 17.270
12.4279 17.003
12.4430 16.861
12.4582 16.779
12.4734 16.908
12.4886 16.760
12.5037 16.648
12.5189 17.011
12.5341 16.733
12.5493 16.508
12.5644 16.417
12.5796 16.120
12.5948 15.955
12.6100 15.952
12.6251 15.967
12.6403 15.839
12.6555 15.892
12.6707 15.788
12.6858 15.741
12.7010 15.542
12.7162 15.592
12.7314 15.453
12.7465 15.051
12.7617 15.105
12.7769 15.221
12.7921 15.169
12.8072 15.219
12.8224 15.107
12.8376 14.966
12.8528 14.696
12.8679 14.598
12.8831 14.668
12.8983 14.539
12.9135 14.512
12.9286 14.414
12.9438 14.439
12.9590 14.648
12.9742 14.445
12.9893 14.189
13.0045 14.346
13.0197 14.294
13.0349 14.043
13.0500 13.854
13.0652 13.604
13.0804 13.646
13.0956 13.792
13.1107 13.656
13.1259 13.569
13.1411 13.588
13.1563 13.535
13.1714 13.338
13.1866 13.381
13.2018 13.315
13.2170 13.136
13.2321 13.278
13.2473 13.405
13.2625 13.406
13.2777 13.136
13.2928 12.981
13.3080 12.997
13.3232 13.071
13.3384 13.091
13.3535 13.047
13.3687 13.030
13.3839 12.973
13.3991 12.923
13.4142 12.953
13.4294 12.999
13.4446 12.993
13.4598 12.897
13.4749 12.751
13.4901 12.721
13.5053 12.707
13.5205 12.658
13.5356 12.455
13.5508 12.393
13.5660 12.389
13.5812 12.470
13.5963 12.298
13.6115 12.222
13.6267 12.473
13.6419 12.311
13.6570 11.923
13.6722 12.020
13.6874 11.997
13.7026 11.821
13.7177 12.141
13.7329 12.140
13.7481 12.059
13.7633 12.148
13.7784 11.931
13.7936 11.879
13.8088 11.875
13.8239 12.088
13.8391 12.270
13.8543 12.117
13.8695 12.041
13.8846 12.326
13.8998 12.076
13.9150 11.785
13.9302 12.121
13.9453 12.191
13.9605 12.054
13.9757 11.736
13.9909 11.790
14.0060 11.722
14.0212 11.509
14.0364 11.218
14.0516 11.228
14.0667 11.441
14.0819 11.233
14.0971 11.048
14.1123 11.512
14.1274 11.635
14.1426 11.309
14.1578 11.317
14.1730 11.456
14.1881 11.304
14.2033 11.564
14.2185 11.341
14.2337 11.241
14.2488 11.530
14.2640 11.539
14.2792 11.506
14.2944 11.630
14.3095 11.716
14.3247 11.785
14.3399 12.377
14.3551 12.348
14.3702 12.630
14.3854 12.825
14.4006 13.209
14.4158 13.450
14.4309 13.269
14.4461 13.380
14.4613 12.771
14.4765 12.391
14.4916 12.200
14.5068 12.716
14.5220 12.233
14.5372 11.861
14.5523 11.483
14.5675 11.233
14.5827 11.360
14.5979 11.094
14.6130 11.140
14.6282 11.175
14.6434 10.852
14.6586 10.860
14.6737 10.887
14.6889 10.631
14.7041 10.518
14.7193 10.895
14.7344 10.608
14.7496 10.806
14.7648 10.467
14.7800 10.578
14.7951 10.688
14.8103 10.436
14.8255 10.531
14.8407 10.544
14.8558 10.879
14.8710 10.514
14.8862 10.363
14.9014 10.171
14.9165 10.283
14.9317 10.811
14.9469 10.203
14.9621 10.278
14.9772 10.172
14.9924 10.197
15.0076 10.189
15.0228 10.412
15.0379 10.344
15.0531 10.130
15.0683 10.174
15.0835 10.239
15.0986 10.134
15.1138 10.018
15.1290 10.268
15.1442 10.622
15.1593 10.170
15.1745 10.020
15.1897 9.818
15.2049 9.829
15.2200 10.182
15.2352 9.650
15.2504 10.006
15.2656 10.189
15.2807 10.297
15.2959 9.796
15.3111 10.173
15.3263 10.314
15.3414 9.869
15.3566 9.908
15.3718 9.983
15.3870 10.190
15.4021 9.959
15.4173 9.965
15.4325 10.098
15.4477 10.333
15.4628 10.367
15.4780 10.362
15.4932 9.883
15.5084 10.206
15.5235 9.943
15.5387 10.335
15.5539 9.650
15.5691 9.897
15.5842 10.084
15.5994 9.922
15.6146 9.674
15.6298 9.563
15.6449 9.938
15.6601 9.610
15.6753 9.583
15.6905 9.742
15.7056 9.618
15.7208 9.615
15.7360 9.728
15.7512 9.725
15.7663 9.488
15.7815 9.731
15.7967 9.897
15.8119 9.817
15.8270 9.591
15.8422 9.579
15.8574 9.833
15.8726 9.688
15.8877 9.431
15.9029 9.572
15.9181 9.719
15.9333 9.606
15.9484 9.650
15.9636 9.429
15.9788 9.706
15.9940 10.025
16.0091 9.705
16.0243 9.458
16.0395 9.665
16.0547 9.646
16.0698 9.416
16.0850 9.760
16.1002 9.467
16.1154 9.730
16.1305 9.397
16.1457 9.486
16.1609 9.833
16.1761 9.513
16.1912 9.359
16.2064 9.530
16.2216 9.615
16.2368 9.900
16.2519 9.705
16.2671 9.843
16.2823 9.855
16.2975 9.773
16.3126 9.886
16.3278 9.772
16.3430 9.733
16.3582 9.630
16.3733 9.662
16.3885 9.705
16.4037 9.619
16.4189 9.771
16.4340 9.586
16.4492 9.591
16.4644 9.647
16.4796 9.580
16.4947 9.432
16.5099 9.463
16.5251 9.346
16.5403 9.293
16.5554 9.518
16.5706 9.812
16.5858 9.616
16.6010 9.552
16.6161 9.642
16.6313 9.723
16.6465 9.644
16.6617 9.617
16.6768 9.809
16.6920 10.018
16.7072 10.048
16.7224 9.965
16.7375 9.950
16.7527 9.813
16.7679 9.673
16.7831 9.684
16.7982 9.834
16.8134 9.797
16.8286 9.724
16.8438 9.932
16.8589 10.000
16.8741 9.701
16.8893 9.494
16.9045 9.576
16.9196 9.493
16.9348 9.436
16.9500 9.599
16.9652 9.683
16.9803 9.508
16.9955 9.513
17.0107 9.772
17.0259 10.043
17.0410 9.900
17.0562 9.936
17.0714 10.112
17.0866 10.190
17.1017 10.460
17.1169 10.825
17.1321 10.725
17.1473 11.016
17.1624 11.639
17.1776 12.202
17.1928 12.842
17.2080 13.927
17.2231 14.965
17.2383 16.137
17.2535 17.516
17.2687 18.222
17.2838 18.274
17.2990 17.553
17.3142 16.777
17.3294 16.170
17.3445 15.844
17.3597 15.842
17.3749 15.636
17.3901 14.978
17.4052 13.922
17.4204 12.991
17.4356 12.268
17.4508 11.554
17.4659 11.072
17.4811 11.096
17.4963 11.116
17.5115 11.014
17.5266 10.786
17.5418 10.685
17.5570 10.786
17.5722 10.548
17.5873 10.493
17.6025 10.575
17.6177 10.500
17.6329 10.585
17.6480 10.810
17.6632 11.023
17.6784 11.420
17.6936 11.779
17.7087 11.805
17.7239 11.806
17.7391 11.575
17.7543 11.395
17.7694 11.225
17.7846 11.121
17.7998 11.388
17.8150 11.319
17.8301 11.020
17.8453 10.725
17.8605 10.722
17.8757 10.684
17.8908 10.766
17.9060 10.602
17.9212 10.498
17.9364 10.343
17.9515 10.226
17.9667 10.323
17.9819 10.218
17.9971 10.119
18.0122 10.038
18.0274 10.035
18.0426 10.175
18.0578 10.058
18.0729 9.844
18.0881 9.854
18.1033 9.987
18.1185 9.767
18.1336 9.961
18.1488 10.034
18.1640 10.089
18.1792 9.937
18.1943 9.853
18.2095 9.787
18.2247 9.674
18.2399 9.806
18.2550 9.759
18.2702 9.794
18.2854 9.877
18.3006 9.660
18.3157 9.674
18.3309 9.543
18.3461 9.718
18.3613 9.756
18.3764 9.758
18.3916 9.857
18.4068 9.849
18.4220 9.631
18.4371 9.357
18.4523 9.484
18.4675 9.644
18.4827 9.700
18.4978 9.625
18.5130 9.612
18.5282 9.665
18.5434 9.627
18.5585 9.631
18.5737 9.929
18.5889 9.833
18.6041 9.585
18.6192 9.664
18.6344 9.804
18.6496 9.729
18.6648 9.655
18.6799 9.692
18.6951 9.826
18.7103 9.859
18.7255 9.864
18.7406 9.733
18.7558 9.598
18.7710 9.430
18.7862 9.732
18.8013 9.750
18.8165 9.593
18.8317 9.718
18.8469 9.897
18.8620 9.920
18.8772 9.783
18.8924 9.777
18.9076 9.805
18.9227 9.896
18.9379 9.927
18.9531 10.089
18.9683 9.994
18.9834 9.856
18.9986 10.010
19.0138 10.067
19.0290 10.195
19.0441 9.966
19.0593 9.915
19.0745 10.184
19.0897 10.230
19.1048 10.127
19.1200 10.213
19.1352 10.234
19.1504 10.229
19.1655 10.414
19.1807 10.403
19.1959 10.552
19.2111 10.603
19.2262 10.637
19.2414 10.636
19.2566 10.531
19.2718 10.574
19.2869 10.623
19.3021 10.830
19.3173 11.017
19.3325 10.816
19.3476 10.730
19.3628 10.987
19.3780 11.298
19.3932 11.231
19.4083 11.039
19.4235 10.974
19.4387 11.003
19.4539 10.993
19.4690 11.032
19.4842 11.117
19.4994 11.104
19.5146 11.295
19.5297 11.470
19.5449 11.593
19.5601 11.405
19.5753 11.325
19.5904 11.664
19.6056 11.565
19.6208 11.676
19.6360 11.738
19.6511 11.539
19.6663 11.505
19.6815 11.608
19.6967 11.699
19.7118 11.620
19.7270 11.641
19.7422 11.644
19.7574 11.906
19.7725 11.878
19.7877 11.668
19.8029 11.951
19.8180 12.078
19.8332 11.979
19.8484 12.045
19.8636 12.168
19.8787 12.288
19.8939 12.652
19.9091 13.202
19.9243 13.373
19.9394 13.698
19.9546 13.922
19.9698 14.099
19.9850 14.265
20.0001 14.078
20.0153 13.812
20.0305 13.688
20.0457 13.720
20.0608 13.953
20.0760 13.890
20.0912 13.524
20.1064 13.438
20.1215 13.324
20.1367 13.081
20.1519 12.726
20.1671 12.541
20.1822 12.487
20.1974 12.469
20.2126 12.231
20.2278 12.083
20.2429 12.193
20.2581 12.094
20.2733 11.821
20.2885 11.634
20.3036 11.546
20.3188 11.386
20.3340 11.665
20.3492 11.545
20.3643 11.645
20.3795 11.710
20.3947 11.589
20.4099 11.571
20.4250 11.457
20.4402 11.335
20.4554 11.680
20.4706 11.748
20.4857 11.808
20.5009 11.839
20.5161 11.769
20.5313 11.688
20.5464 11.523
20.5616 11.390
20.5768 11.289
20.5920 11.623
20.6071 11.632
20.6223 11.347
20.6375 11.331
20.6527 10.992
20.6678 10.925
20.6830 10.807
20.6982 10.733
20.7134 10.570
20.7285 10.565
20.7437 10.328
20.7589 10.458
20.7741 9.986
20.7892 10.229
20.8044 10.283
20.8196 10.356
20.8348 10.259
20.8499 9.903
20.8651 10.177
20.8803 10.205
20.8955 10.400
20.9106 9.997
20.9258 10.185
20.9410 10.401
20.9562 10.225
20.9713 10.071
20.9865 10.051
21.0017 10.041
21.0169 9.783
21.0320 10.093
21.0472 10.078
21.0624 9.712
21.0776 9.727
21.0927 9.784
21.1079 9.898
21.1231 9.516
21.1383 9.551
21.1534 9.642
21.1686 9.431
21.1838 9.446
21.1990 9.954
21.2141 9.560
21.2293 9.436
21.2445 9.738
21.2597 9.710
21.2748 9.527
21.2900 9.695
21.3052 9.332
21.3204 9.603
21.3355 9.363
21.3507 9.304
21.3659 9.553
21.3811 9.695
21.3962 9.481
21.4114 9.513
21.4266 9.509
21.4418 9.360
21.4569 9.303
21.4721 9.339
21.4873 9.446
21.5025 9.237
21.5176 8.955
21.5328 8.906
21.5480 9.234
21.5632 9.460
21.5783 9.320
21.5935 9.102
21.6087 9.027
21.6239 9.243
21.6390 9.178
21.6542 9.032
21.6694 8.935
21.6846 8.957
21.6997 8.940
21.7149 9.112
21.7301 9.102
21.7453 8.902
21.7604 8.980
21.7756 9.129
21.7908 8.963
21.8060 9.042
21.8211 8.986
21.8363 9.075
21.8515 8.962
21.8667 8.966
21.8818 8.964
21.8970 9.093
21.9122 9.000
21.9274 8.859
21.9425 9.094
21.9577 9.015
21.9729 8.757
21.9881 8.686
22.0032 8.795
22.0184 8.786
22.0336 8.664
22.0488 8.735
22.0639 8.768
22.0791 8.719
22.0943 8.935
22.1095 8.768
22.1246 8.483
22.1398 8.460
22.1550 8.590
22.1702 8.765
22.1853 8.687
22.2005 8.551
22.2157 8.561
22.2309 8.412
22.2460 8.527
22.2612 8.696
22.2764 8.450
22.2916 8.101
22.3067 8.375
22.3219 8.284
22.3371 8.448
22.3523 8.331
22.3674 8.774
22.3826 8.597
22.3978 8.486
22.4130 8.562
22.4281 8.496
22.4433 8.565
22.4585 8.621
22.4737 8.491
22.4888 8.052
22.5040 8.278
22.5192 8.232
22.5344 8.611
22.5495 8.534
22.5647 8.385
22.5799 8.485
22.5951 8.368
22.6102 8.111
22.6254 8.075
22.6406 8.166
22.6558 8.156
22.6709 8.093
22.6861 8.146
22.7013 7.942
22.7165 8.026
22.7316 6.375
