'Id: "" Comment: "" Operator: "Lab Manager" Anode: "Mo" Scantype: "Still (Eiger2R_500K (1D mode))" TimePerStep: "300" X: "11.8" Y: "9.4" Z: "11.284" 
7.2532 18.809
7.2684 18.740
7.2836 18.373
7.2987 18.616
7.3139 18.294
7.3291 18.783
7.3443 18.740
7.3594 18.770
7.3746 19.267
7.3898 19.207
7.4050 19.572
7.4201 19.657
7.4353 19.307
7.4505 19.499
7.4657 19.290
7.4808 19.202
7.4960 19.431
7.5112 19.718
7.5264 19.843
7.5415 19.630
7.5567 19.790
7.5719 19.703
7.5871 19.456
7.6022 19.822
7.6174 20.374
7.6326 19.605
7.6478 19.469
7.6629 19.816
7.6781 19.945
7.6933 20.067
7.7085 20.229
7.7236 20.387
7.7388 20.518
7.7540 20.243
7.7692 20.254
7.7843 20.328
7.7995 20.232
7.8147 20.215
7.8299 20.379
7.8450 20.422
7.8602 20.479
7.8754 20.712
7.8905 20.650
7.9057 20.562
7.9209 20.489
7.9361 20.796
7.9512 20.905
7.9664 20.987
7.9816 20.886
7.9968 20.703
8.0119 20.731
8.0271 20.650
8.0423 20.855
8.0575 21.053
8.0726 21.058
8.0878 21.036
8.1030 20.927
8.1182 21.100
8.1333 21.437
8.1485 21.675
8.1637 21.760
8.1789 21.126
8.1940 21.012
8.2092 21.162
8.2244 21.097
8.2396 21.470
8.2547 21.356
8.2699 21.403
8.2851 21.276
8.3003 21.522
8.3154 21.961
8.3306 21.447
8.3458 21.319
8.3610 21.803
8.3761 21.631
8.3913 21.550
8.4065 21.570
8.4217 21.975
8.4368 22.448
8.4520 21.432
8.4672 21.318
8.4824 21.777
8.4975 21.704
8.5127 21.666
8.5279 21.757
8.5431 22.274
8.5582 22.172
8.5734 22.116
8.5886 21.982
8.6038 21.791
8.6189 21.917
8.6341 22.068
8.6493 22.631
8.6645 22.273
8.6796 21.680
8.6948 21.955
8.7100 22.002
8.7252 22.630
8.7403 21.974
8.7555 22.174
8.7707 22.273
8.7859 21.936
8.8010 22.287
8.8162 22.577
8.8314 21.924
8.8466 22.491
8.8617 22.760
8.8769 22.398
8.8921 22.250
8.9073 22.171
8.9224 22.116
8.9376 22.012
8.9528 22.272
8.9680 22.431
8.9831 22.776
8.9983 22.475
9.0135 22.214
9.0287 22.451
9.0438 22.377
9.0590 22.839
9.0742 22.450
9.0894 22.464
9.1045 22.679
9.1197 22.877
9.1349 22.889
9.1501 22.440
9.1652 22.723
9.1804 22.919
9.1956 22.529
9.2108 22.551
9.2259 22.502
9.2411 22.167
9.2563 22.360
9.2715 22.756
9.2866 22.701
9.3018 22.672
9.3170 22.774
9.3322 22.827
9.3473 22.907
9.3625 23.102
9.3777 23.086
9.3929 22.977
9.4080 23.128
9.4232 23.017
9.4384 22.783
9.4536 23.048
9.4687 23.233
9.4839 22.939
9.4991 23.047
9.5143 23.060
9.5294 23.155
9.5446 22.985
9.5598 22.901
9.5750 23.044
9.5901 23.099
9.6053 23.384
9.6205 23.198
9.6357 22.978
9.6508 23.501
9.6660 23.634
9.6812 23.471
9.6964 23.403
9.7115 23.802
9.7267 23.963
9.7419 23.829
9.7571 23.828
9.7722 23.709
9.7874 23.689
9.8026 23.676
9.8178 23.347
9.8329 23.407
9.8481 23.446
9.8633 23.204
9.8785 23.206
9.8936 23.259
9.9088 23.392
9.9240 23.151
9.9392 23.048
9.9543 23.515
9.9695 23.551
9.9847 23.366
9.9999 23.350
10.0150 23.218
10.0302 23.080
10.0454 23.263
10.0606 22.986
10.0757 23.075
10.0909 23.153
10.1061 23.322
10.1213 23.636
10.1364 23.673
10.1516 23.299
10.1668 23.172
10.1820 23.093
10.1971 22.955
10.2123 22.938
10.2275 23.375
10.2427 23.079
10.2578 22.802
10.2730 22.731
10.2882 22.613
10.3034 22.704
10.3185 22.798
10.3337 22.646
10.3489 22.478
10.3641 22.503
10.3792 22.551
10.3944 22.711
10.4096 22.749
10.4248 22.880
10.4399 22.731
10.4551 22.269
10.4703 22.436
10.4855 22.412
10.5006 22.354
10.5158 22.359
10.5310 22.531
10.5462 22.488
10.5613 22.240
10.5765 22.286
10.5917 22.697
10.6069 22.742
10.6220 22.311
10.6372 22.336
10.6524 22.379
10.6676 22.297
10.6827 22.062
10.6979 21.981
10.7131 22.138
10.7283 22.534
10.7434 22.151
10.7586 22.120
10.7738 22.300
10.7890 22.205
10.8041 22.118
10.8193 21.912
10.8345 21.923
10.8497 22.199
10.8648 22.203
10.8800 22.158
10.8952 22.320
10.9104 22.207
10.9255 21.733
10.9407 21.693
10.9559 21.853
10.9711 21.891
10.9862 21.985
11.0014 21.994
11.0166 22.001
11.0318 22.026
11.0469 21.640
11.0621 21.539
11.0773 21.660
11.0925 22.004
11.1076 21.820
11.1228 21.527
11.1380 21.875
11.1532 21.624
11.1683 21.612
11.1835 21.614
11.1987 21.752
11.2139 21.642
11.2290 21.608
11.2442 21.462
11.2594 21.310
11.2746 21.601
11.2897 21.675
11.3049 21.523
11.3201 21.382
11.3353 21.588
11.3504 21.586
11.3656 21.286
11.3808 21.478
11.3960 21.383
11.4111 21.533
11.4263 21.076
11.4415 21.197
11.4567 21.064
11.4718 21.247
11.4870 21.423
11.5022 21.167
11.5174 20.956
11.5325 21.027
11.5477 20.825
11.5629 20.581
11.5781 20.575
11.5932 20.780
11.6084 21.080
11.6236 20.973
11.6388 20.753
11.6539 20.796
11.6691 20.586
11.6843 20.250
11.6995 20.497
11.7146 20.744
11.7298 20.535
11.7450 20.252
11.7602 20.001
11.7753 19.856
11.7905 19.790
11.8057 19.999
11.8209 20.006
11.8360 20.173
11.8512 19.906
11.8664 19.551
11.8816 19.646
11.8967 19.684
11.9119 19.376
11.9271 19.513
11.9423 19.590
11.9574 19.311
11.9726 19.451
11.9878 19.487
12.0030 19.289
12.0181 19.108
12.0333 19.378
12.0485 19.144
12.0637 19.089
12.0788 18.846
12.0940 18.781
12.1092 18.550
12.1244 18.482
12.1395 18.561
12.1547 18.380
12.1699 18.333
12.1851 18.286
12.2002 18.328
12.2154 17.886
12.2306 17.575
12.2458 17.734
12.2609 17.692
12.2761 17.452
12.2913 17.220
12.3065 17.471
12.3216 17.664
12.3368 17.540
12.3520 17.474
12.3672 17.478
12.3823 17.472
12.3975 17.155
12.4127 16.903
12.4279 16.986
12.4430 17.095
12.4582 17.035
12.4734 17.126
12.4886 16.752
12.5037 16.451
12.5189 16.530
12.5341 16.408
12.5493 16.451
12.5644 16.506
12.5796 16.372
12.5948 16.415
12.6100 16.133
12.6251 16.144
12.6403 15.824
12.6555 15.525
12.6707 15.479
12.6858 15.630
12.7010 15.761
12.7162 15.548
12.7314 15.399
12.7465 15.421
12.7617 15.562
12.7769 15.461
12.7921 15.147
12.8072 15.116
12.8224 14.900
12.8376 14.927
12.8528 14.904
12.8679 14.870
12.8831 14.817
12.8983 14.555
12.9135 14.382
12.9286 14.529
12.9438 14.580
12.9590 14.253
12.9742 14.311
12.9893 14.277
13.0045 14.260
13.0197 14.164
13.0349 13.747
13.0500 13.776
13.0652 13.840
13.0804 13.949
13.0956 14.018
13.1107 13.650
13.1259 13.674
13.1411 13.550
13.1563 13.494
13.1714 13.796
13.1866 13.523
13.2018 13.611
13.2170 13.539
13.2321 13.255
13.2473 13.379
13.2625 13.210
13.2777 12.982
13.2928 12.836
13.3080 12.898
13.3232 13.039
13.3384 12.933
13.3535 12.868
13.3687 12.976
13.3839 12.927
13.3991 13.083
13.4142 13.114
13.4294 12.937
13.4446 12.906
13.4598 12.588
13.4749 12.531
13.4901 12.685
13.5053 12.598
13.5205 12.614
13.5356 12.495
13.5508 12.394
13.5660 12.426
13.5812 12.276
13.5963 12.144
13.6115 12.077
13.6267 12.066
13.6419 12.435
13.6570 12.532
13.6722 11.823
13.6874 11.908
13.7026 11.944
13.7177 11.871
13.7329 11.800
13.7481 11.786
13.7633 12.009
13.7784 12.179
13.7936 12.006
13.8088 12.015
13.8239 12.330
13.8391 12.470
13.8543 12.444
13.8695 12.221
13.8846 12.273
13.8998 12.219
13.9150 12.293
13.9302 12.225
13.9453 12.042
13.9605 11.680
13.9757 11.787
13.9909 11.668
14.0060 11.817
14.0212 11.662
14.0364 11.603
14.0516 11.574
14.0667 11.771
14.0819 11.625
14.0971 11.636
14.1123 11.480
14.1274 11.580
14.1426 11.792
14.1578 11.763
14.1730 11.570
14.1881 11.454
14.2033 11.841
14.2185 11.627
14.2337 11.439
14.2488 11.859
14.2640 11.874
14.2792 11.662
14.2944 11.998
14.3095 12.113
14.3247 12.084
14.3399 12.341
14.3551 12.740
14.3702 12.778
14.3854 12.766
14.4006 12.835
14.4158 12.640
14.4309 12.909
14.4461 12.802
14.4613 12.855
14.4765 12.539
14.4916 12.227
14.5068 11.951
14.5220 12.024
14.5372 11.422
14.5523 11.374
14.5675 10.934
14.5827 11.170
14.5979 11.157
14.6130 10.665
14.6282 10.747
14.6434 10.393
14.6586 10.455
14.6737 10.625
14.6889 10.294
14.7041 10.533
14.7193 10.612
14.7344 10.609
14.7496 10.625
14.7648 10.296
14.7800 10.446
14.7951 10.743
14.8103 10.730
14.8255 10.465
14.8407 10.156
14.8558 10.222
14.8710 10.311
14.8862 10.517
14.9014 10.731
14.9165 10.548
14.9317 10.678
14.9469 10.313
14.9621 10.543
14.9772 10.369
14.9924 10.312
15.0076 10.327
15.0228 10.330
15.0379 10.321
15.0531 10.386
15.0683 10.357
15.0835 10.153
15.0986 10.336
15.1138 9.754
15.1290 10.081
15.1442 10.240
15.1593 9.899
15.1745 10.022
15.1897 10.198
15.2049 9.886
15.2200 10.094
15.2352 10.072
15.2504 9.874
15.2656 10.115
15.2807 10.234
15.2959 9.935
15.3111 9.909
15.3263 10.268
15.3414 10.279
15.3566 10.443
15.3718 10.094
15.3870 10.088
15.4021 10.241
15.4173 10.054
15.4325 10.437
15.4477 9.991
15.4628 10.090
15.4780 9.770
15.4932 9.942
15.5084 9.935
15.5235 10.332
15.5387 10.185
15.5539 9.846
15.5691 9.952
15.5842 10.005
15.5994 9.617
15.6146 9.868
15.6298 9.584
15.6449 9.357
15.6601 9.881
15.6753 9.419
15.6905 9.672
15.7056 9.860
15.7208 9.332
15.7360 9.363
15.7512 9.730
15.7663 9.916
15.7815 9.583
15.7967 9.412
15.8119 9.563
15.8270 9.593
15.8422 9.520
15.8574 9.375
15.8726 9.568
15.8877 9.410
15.9029 9.603
15.9181 9.541
15.9333 9.765
15.9484 9.543
15.9636 9.585
15.9788 9.588
15.9940 9.513
16.0091 9.513
16.0243 9.529
16.0395 9.518
16.0547 9.328
16.0698 9.445
16.0850 9.379
16.1002 9.313
16.1154 9.603
16.1305 9.641
16.1457 9.393
16.1609 9.691
16.1761 9.534
16.1912 9.456
16.2064 9.587
16.2216 9.754
16.2368 10.078
16.2519 9.967
16.2671 9.917
16.2823 9.722
16.2975 9.542
16.3126 9.649
16.3278 9.712
16.3430 9.663
16.3582 9.735
16.3733 9.711
16.3885 9.922
16.4037 10.020
16.4189 9.638
16.4340 9.623
16.4492 9.676
16.4644 9.791
16.4796 9.738
16.4947 9.637
16.5099 9.398
16.5251 9.617
16.5403 9.454
16.5554 9.405
16.5706 9.592
16.5858 9.588
16.6010 9.593
16.6161 9.720
16.6313 9.644
16.6465 9.765
16.6617 9.674
16.6768 9.586
16.6920 9.524
16.7072 9.651
16.7224 9.641
16.7375 9.754
16.7527 9.806
16.7679 9.847
16.7831 9.800
16.7982 9.889
16.8134 9.910
16.8286 9.744
16.8438 9.691
16.8589 9.670
16.8741 9.642
16.8893 9.772
16.9045 9.789
16.9196 9.567
16.9348 9.498
16.9500 9.441
16.9652 9.541
16.9803 9.826
16.9955 9.760
17.0107 9.577
17.0259 9.652
17.0410 9.765
17.0562 9.921
17.0714 10.143
17.0866 10.325
17.1017 10.213
17.1169 10.543
17.1321 10.911
17.1473 11.073
17.1624 11.414
17.1776 12.156
17.1928 12.933
17.2080 13.700
17.2231 15.056
17.2383 16.333
17.2535 17.415
17.2687 18.429
17.2838 18.471
17.2990 17.775
17.3142 17.031
17.3294 16.342
17.3445 15.884
17.3597 16.005
17.3749 16.039
17.3901 15.250
17.4052 14.332
17.4204 13.583
17.4356 12.850
17.4508 12.209
17.4659 11.734
17.4811 11.589
17.4963 11.478
17.5115 11.216
17.5266 10.867
17.5418 10.739
17.5570 10.878
17.5722 10.969
17.5873 11.025
17.6025 11.021
17.6177 11.067
17.6329 11.166
17.6480 11.300
17.6632 11.231
17.6784 11.362
17.6936 11.522
17.7087 11.417
17.7239 11.244
17.7391 11.071
17.7543 11.013
17.7694 11.039
17.7846 11.066
17.7998 10.844
17.8150 10.529
17.8301 10.508
17.8453 10.560
17.8605 10.295
17.8757 10.239
17.8908 10.046
17.9060 10.188
17.9212 10.248
17.9364 10.051
17.9515 9.976
17.9667 10.186
17.9819 10.223
17.9971 10.054
18.0122 10.066
18.0274 10.086
18.0426 10.132
18.0578 10.225
18.0729 10.203
18.0881 10.099
18.1033 9.866
18.1185 9.872
18.1336 9.964
18.1488 10.082
18.1640 9.968
18.1792 9.849
18.1943 9.765
18.2095 9.624
18.2247 9.640
18.2399 9.697
18.2550 9.810
18.2702 9.831
18.2854 9.964
18.3006 9.949
18.3157 9.790
18.3309 9.851
18.3461 9.843
18.3613 9.805
18.3764 9.764
18.3916 9.679
18.4068 9.822
18.4220 9.725
18.4371 9.745
18.4523 9.821
18.4675 9.880
18.4827 9.876
18.4978 9.922
18.5130 9.922
18.5282 9.658
18.5434 9.796
18.5585 9.941
18.5737 9.836
18.5889 9.666
18.6041 9.799
18.6192 9.821
18.6344 9.878
18.6496 9.817
18.6648 9.747
18.6799 9.629
18.6951 9.672
18.7103 9.889
18.7255 9.730
18.7406 9.601
18.7558 9.824
18.7710 9.587
18.7862 9.714
18.8013 9.691
18.8165 9.724
18.8317 9.838
18.8469 9.861
18.8620 9.825
18.8772 9.811
18.8924 10.032
18.9076 9.923
18.9227 9.963
18.9379 10.140
18.9531 10.245
18.9683 10.264
18.9834 10.083
18.9986 10.071
19.0138 9.998
19.0290 10.025
19.0441 10.238
19.0593 10.255
19.0745 10.280
19.0897 10.275
19.1048 10.261
19.1200 10.324
19.1352 10.610
19.1504 10.749
19.1655 10.638
19.1807 10.593
19.1959 10.727
19.2111 10.627
19.2262 10.671
19.2414 10.742
19.2566 10.735
19.2718 10.665
19.2869 10.783
19.3021 10.992
19.3173 10.989
19.3325 10.889
19.3476 10.989
19.3628 11.205
19.3780 11.268
19.3932 11.232
19.4083 11.155
19.4235 11.364
19.4387 11.378
19.4539 11.084
19.4690 11.234
19.4842 11.479
19.4994 11.519
19.5146 11.574
19.5297 11.601
19.5449 11.489
19.5601 11.533
19.5753 11.578
19.5904 11.639
19.6056 11.642
19.6208 11.695
19.6360 11.652
19.6511 11.638
19.6663 11.783
19.6815 11.958
19.6967 12.012
19.7118 11.672
19.7270 11.671
19.7422 11.880
19.7574 11.821
19.7725 11.683
19.7877 11.803
19.8029 11.937
19.8180 12.102
19.8332 12.232
19.8484 12.081
19.8636 12.201
19.8787 12.579
19.8939 12.923
19.9091 13.515
19.9243 13.732
19.9394 13.768
19.9546 14.201
19.9698 14.555
19.9850 14.778
20.0001 14.693
20.0153 14.253
20.0305 13.980
20.0457 13.766
20.0608 13.773
20.0760 13.745
20.0912 13.731
20.1064 13.814
20.1215 13.732
20.1367 13.423
20.1519 12.979
20.1671 12.762
20.1822 12.789
20.1974 12.673
20.2126 12.757
20.2278 12.951
20.2429 12.934
20.2581 12.566
20.2733 12.240
20.2885 11.984
20.3036 11.834
20.3188 12.112
20.3340 11.971
20.3492 12.187
20.3643 11.942
20.3795 11.701
20.3947 11.725
20.4099 11.777
20.4250 12.045
20.4402 11.780
20.4554 11.742
20.4706 11.654
20.4857 11.849
20.5009 11.766
20.5161 11.532
20.5313 11.499
20.5464 11.513
20.5616 11.391
20.5768 11.612
20.5920 11.383
20.6071 10.945
20.6223 10.812
20.6375 10.736
20.6527 10.775
20.6678 10.924
20.6830 10.849
20.6982 10.694
20.7134 10.682
20.7285 10.381
20.7437 10.551
20.7589 10.737
20.7741 10.385
20.7892 10.363
20.8044 10.239
20.8196 10.454
20.8348 10.249
20.8499 10.334
20.8651 10.452
20.8803 10.236
20.8955 10.161
20.9106 10.182
20.9258 10.369
20.9410 9.964
20.9562 9.990
20.9713 10.414
20.9865 10.362
21.0017 10.192
21.0169 10.079
21.0320 10.085
21.0472 9.784
21.0624 10.041
21.0776 10.005
21.0927 10.017
21.1079 9.815
21.1231 9.670
21.1383 9.781
21.1534 9.714
21.1686 9.881
21.1838 9.791
21.1990 9.974
21.2141 9.790
21.2293 9.722
21.2445 9.616
21.2597 9.786
21.2748 9.656
21.2900 9.615
21.3052 9.544
21.3204 9.500
21.3355 9.169
21.3507 9.184
21.3659 9.469
21.3811 9.268
21.3962 9.401
21.4114 9.701
21.4266 9.628
21.4418 9.341
21.4569 9.411
21.4721 9.285
21.4873 9.462
21.5025 9.597
21.5176 9.376
21.5328 9.529
21.5480 9.250
21.5632 9.187
21.5783 9.491
21.5935 9.425
21.6087 9.363
21.6239 9.283
21.6390 9.337
21.6542 9.335
21.6694 9.179
21.6846 9.150
21.6997 9.235
21.7149 8.960
21.7301 9.049
21.7453 9.022
21.7604 8.945
21.7756 8.963
21.7908 8.882
21.8060 8.994
21.8211 8.951
21.8363 9.136
21.8515 9.053
21.8667 9.037
21.8818 9.072
21.8970 8.896
21.9122 8.873
21.9274 8.948
21.9425 8.959
21.9577 8.932
21.9729 8.854
21.9881 8.797
22.0032 8.847
22.0184 8.852
22.0336 8.812
22.0488 8.760
22.0639 8.880
22.0791 9.041
22.0943 8.934
22.1095 8.675
22.1246 8.824
22.1398 8.766
22.1550 8.535
22.1702 8.734
22.1853 8.503
22.2005 8.461
22.2157 8.674
22.2309 8.642
22.2460 8.529
22.2612 8.627
22.2764 8.644
22.2916 8.742
22.3067 8.400
22.3219 8.354
22.3371 8.397
22.3523 8.413
22.3674 8.348
22.3826 8.579
22.3978 8.429
22.4130 8.503
22.4281 8.653
22.4433 8.550
22.4585 8.494
22.4737 8.225
22.4888 8.422
22.5040 8.367
22.5192 8.447
22.5344 8.110
22.5495 8.279
22.5647 8.437
22.5799 8.301
22.5951 8.299
22.6102 8.368
22.6254 8.554
22.6406 8.067
22.6558 8.386
22.6709 8.476
22.6861 8.339
22.7013 8.092
22.7165 8.107
22.7316 6.314
