'Id: "" Comment: "" Operator: "Lab Manager" Anode: "Mo" Scantype: "Still (Eiger2R_500K (1D mode))" TimePerStep: "300" X: "11.8" Y: "9.4" Z: "11.284" 
7.2532 18.635
7.2684 18.905
7.2836 18.643
7.2987 18.296
7.3139 18.790
7.3291 18.790
7.3443 18.992
7.3594 19.386
7.3746 19.252
7.3898 19.180
7.4050 19.010
7.4201 19.354
7.4353 19.587
7.4505 18.916
7.4657 19.057
7.4808 19.334
7.4960 19.329
7.5112 19.437
7.5264 19.706
7.5415 19.743
7.5567 19.552
7.5719 19.937
7.5871 19.609
7.6022 19.629
7.6174 19.719
7.6326 19.854
7.6478 19.952
7.6629 20.038
7.6781 19.995
7.6933 20.026
7.7085 20.298
7.7236 20.011
7.7388 20.121
7.7540 20.556
7.7692 20.354
7.7843 20.388
7.7995 20.535
7.8147 20.366
7.8299 20.333
7.8450 20.249
7.8602 20.630
7.8754 20.938
7.8905 21.000
7.9057 20.863
7.9209 20.621
7.9361 20.502
7.9512 20.561
7.9664 20.524
7.9816 20.784
7.9968 20.872
8.0119 20.846
8.0271 21.472
8.0423 21.362
8.0575 21.055
8.0726 20.900
8.0878 20.988
8.1030 21.406
8.1182 21.111
8.1333 21.067
8.1485 21.274
8.1637 21.076
8.1789 20.915
8.1940 21.032
8.2092 21.432
8.2244 21.050
8.2396 21.003
8.2547 20.888
8.2699 21.130
8.2851 21.473
8.3003 21.092
8.3154 21.538
8.3306 21.592
8.3458 21.656
8.3610 21.547
8.3761 21.642
8.3913 21.610
8.4065 21.717
8.4217 21.969
8.4368 21.625
8.4520 21.777
8.4672 21.855
8.4824 21.830
8.4975 21.613
8.5127 21.764
8.5279 21.644
8.5431 21.713
8.5582 21.636
8.5734 22.139
8.5886 22.252
8.6038 21.977
8.6189 21.814
8.6341 21.868
8.6493 21.651
8.6645 22.380
8.6796 22.365
8.6948 21.702
8.7100 22.220
8.7252 22.134
8.7403 21.617
8.7555 22.075
8.7707 22.013
8.7859 21.601
8.8010 22.256
8.8162 22.244
8.8314 21.974
8.8466 22.238
8.8617 22.586
8.8769 22.361
8.8921 22.575
8.9073 22.488
8.9224 21.984
8.9376 21.904
8.9528 22.127
8.9680 22.477
8.9831 22.470
8.9983 22.590
9.0135 22.539
9.0287 22.542
9.0438 22.284
9.0590 22.530
9.0742 22.548
9.0894 22.549
9.1045 22.704
9.1197 22.381
9.1349 22.541
9.1501 22.487
9.1652 22.578
9.1804 22.437
9.1956 22.732
9.2108 22.732
9.2259 22.784
9.2411 22.752
9.2563 22.649
9.2715 22.994
9.2866 22.891
9.3018 22.652
9.3170 23.011
9.3322 22.992
9.3473 22.762
9.3625 22.700
9.3777 22.958
9.3929 23.061
9.4080 22.868
9.4232 22.710
9.4384 22.884
9.4536 23.212
9.4687 23.111
9.4839 22.656
9.4991 22.907
9.5143 22.696
9.5294 22.783
9.5446 22.938
9.5598 23.132
9.5750 23.167
9.5901 22.802
9.6053 22.807
9.6205 22.812
9.6357 22.791
9.6508 22.967
9.6660 23.341
9.6812 23.537
9.6964 23.681
9.7115 23.594
9.7267 23.512
9.7419 23.703
9.7571 23.808
9.7722 23.682
9.7874 23.400
9.8026 23.240
9.8178 23.230
9.8329 23.135
9.8481 22.852
9.8633 22.843
9.8785 22.836
9.8936 22.969
9.9088 23.308
9.9240 23.293
9.9392 23.064
9.9543 23.024
9.9695 23.170
9.9847 23.099
9.9999 22.941
10.0150 23.006
10.0302 22.852
10.0454 22.461
10.0606 22.789
10.0757 23.055
10.0909 22.897
10.1061 23.132
10.1213 23.335
10.1364 23.024
10.1516 23.124
10.1668 23.133
10.1820 23.218
10.1971 22.994
10.2123 23.070
10.2275 23.070
10.2427 22.898
10.2578 22.821
10.2730 22.898
10.2882 22.720
10.3034 22.788
10.3185 22.851
10.3337 22.582
10.3489 22.567
10.3641 22.643
10.3792 22.660
10.3944 22.634
10.4096 23.034
10.4248 22.877
10.4399 22.557
10.4551 22.500
10.4703 22.448
10.4855 22.524
10.5006 22.342
10.5158 22.242
10.5310 22.774
10.5462 22.767
10.5613 22.700
10.5765 22.669
10.5917 22.590
10.6069 22.562
10.6220 22.203
10.6372 22.123
10.6524 22.361
10.6676 22.097
10.6827 22.315
10.6979 21.833
10.7131 21.723
10.7283 22.028
10.7434 22.166
10.7586 22.358
10.7738 22.474
10.7890 22.033
10.8041 21.940
10.8193 22.074
10.8345 22.273
10.8497 22.676
10.8648 22.464
10.8800 22.363
10.8952 22.071
10.9104 21.932
10.9255 22.028
10.9407 21.912
10.9559 21.912
10.9711 21.912
10.9862 21.888
11.0014 22.076
11.0166 22.239
11.0318 22.238
11.0469 22.357
11.0621 22.247
11.0773 21.982
11.0925 21.670
11.1076 21.463
11.1228 21.645
11.1380 21.284
11.1532 21.403
11.1683 21.435
11.1835 21.569
11.1987 21.384
11.2139 21.376
11.2290 21.496
11.2442 21.751
11.2594 21.734
11.2746 21.581
11.2897 21.426
11.3049 21.241
11.3201 21.566
11.3353 21.378
11.3504 21.095
11.3656 21.543
11.3808 21.502
11.3960 21.358
11.4111 21.229
11.4263 21.402
11.4415 21.166
11.4567 21.021
11.4718 21.170
11.4870 20.908
11.5022 20.940
11.5174 20.857
11.5325 21.164
11.5477 20.986
11.5629 20.635
11.5781 21.053
11.5932 20.912
11.6084 20.383
11.6236 20.641
11.6388 20.832
11.6539 20.917
11.6691 20.565
11.6843 20.671
11.6995 20.813
11.7146 20.696
11.7298 20.456
11.7450 20.259
11.7602 20.019
11.7753 19.989
11.7905 20.486
11.8057 20.348
11.8209 20.172
11.8360 20.103
11.8512 19.943
11.8664 19.906
11.8816 19.859
11.8967 19.380
11.9119 19.650
11.9271 19.620
11.9423 19.257
11.9574 19.114
11.9726 19.301
11.9878 19.367
12.0030 19.177
12.0181 18.715
12.0333 18.555
12.0485 18.806
12.0637 18.718
12.0788 18.862
12.0940 18.669
12.1092 18.301
12.1244 18.607
12.1395 18.533
12.1547 18.165
12.1699 18.084
12.1851 18.039
12.2002 18.082
12.2154 18.072
12.2306 18.248
12.2458 18.308
12.2609 17.766
12.2761 17.538
12.2913 17.826
12.3065 17.768
12.3216 17.615
12.3368 17.547
12.3520 17.419
12.3672 17.029
12.3823 17.103
12.3975 17.217
12.4127 17.182
12.4279 16.907
12.4430 16.695
12.4582 16.863
12.4734 16.646
12.4886 16.459
12.5037 16.409
12.5189 16.661
12.5341 16.366
12.5493 16.012
12.5644 16.315
12.5796 16.318
12.5948 16.092
12.6100 16.214
12.6251 16.075
12.6403 15.869
12.6555 16.035
12.6707 16.042
12.6858 15.873
12.7010 15.779
12.7162 15.486
12.7314 15.409
12.7465 15.347
12.7617 15.130
12.7769 15.211
12.7921 15.480
12.8072 15.270
12.8224 15.178
12.8376 15.367
12.8528 14.876
12.8679 14.636
12.8831 14.771
12.8983 14.843
12.9135 14.767
12.9286 14.644
12.9438 14.667
12.9590 14.575
12.9742 14.439
12.9893 14.078
13.0045 14.099
13.0197 14.504
13.0349 14.275
13.0500 13.966
13.0652 13.768
13.0804 13.586
13.0956 13.813
13.1107 13.750
13.1259 13.776
13.1411 13.813
13.1563 13.578
13.1714 13.439
13.1866 13.469
13.2018 13.491
13.2170 13.409
13.2321 13.387
13.2473 13.046
13.2625 13.140
13.2777 13.463
13.2928 13.446
13.3080 13.327
13.3232 12.999
13.3384 12.746
13.3535 12.838
13.3687 12.887
13.3839 12.798
13.3991 12.767
13.4142 12.742
13.4294 12.888
13.4446 12.876
13.4598 12.768
13.4749 12.744
13.4901 12.834
13.5053 12.720
13.5205 12.589
13.5356 12.316
13.5508 12.275
13.5660 12.219
13.5812 12.311
13.5963 12.322
13.6115 12.135
13.6267 12.202
13.6419 11.961
13.6570 11.960
13.6722 12.072
13.6874 11.977
13.7026 11.980
13.7177 12.178
13.7329 11.937
13.7481 12.045
13.7633 12.195
13.7784 12.093
13.7936 12.142
13.8088 12.410
13.8239 12.415
13.8391 12.203
13.8543 12.309
13.8695 12.368
13.8846 12.190
13.8998 12.114
13.9150 12.309
13.9302 12.293
13.9453 12.268
13.9605 11.891
13.9757 11.408
13.9909 11.505
14.0060 11.674
14.0212 11.763
14.0364 11.703
14.0516 11.265
14.0667 11.293
14.0819 11.505
14.0971 11.543
14.1123 11.617
14.1274 11.496
14.1426 11.814
14.1578 11.571
14.1730 11.715
14.1881 11.876
14.2033 11.803
14.2185 11.601
14.2337 11.543
14.2488 11.533
14.2640 11.613
14.2792 11.609
14.2944 11.853
14.3095 12.172
14.3247 12.129
14.3399 12.046
14.3551 12.509
14.3702 12.767
14.3854 12.714
14.4006 12.916
14.4158 12.829
14.4309 12.944
14.4461 12.645
14.4613 12.513
14.4765 12.331
14.4916 11.869
14.5068 11.759
14.5220 11.949
14.5372 11.670
14.5523 11.147
14.5675 11.163
14.5827 10.937
14.5979 10.955
14.6130 11.048
14.6282 11.112
14.6434 10.574
14.6586 10.456
14.6737 10.908
14.6889 10.533
14.7041 10.681
14.7193 10.677
14.7344 10.627
14.7496 10.752
14.7648 10.658
14.7800 10.668
14.7951 10.671
14.8103 10.434
14.8255 10.445
14.8407 10.541
14.8558 10.584
14.8710 10.400
14.8862 10.555
14.9014 10.358
14.9165 10.363
14.9317 10.598
14.9469 10.320
14.9621 10.342
14.9772 10.192
14.9924 10.157
15.0076 10.064
15.0228 10.172
15.0379 10.208
15.0531 10.259
15.0683 10.052
15.0835 10.307
15.0986 10.006
15.1138 10.363
15.1290 10.334
15.1442 10.023
15.1593 10.078
15.1745 10.198
15.1897 10.357
15.2049 10.037
15.2200 10.544
15.2352 10.169
15.2504 10.333
15.2656 10.075
15.2807 10.267
15.2959 9.798
15.3111 9.864
15.3263 10.342
15.3414 10.049
15.3566 9.943
15.3718 9.813
15.3870 9.970
15.4021 10.019
15.4173 9.998
15.4325 10.163
15.4477 10.049
15.4628 9.893
15.4780 10.230
15.4932 10.021
15.5084 9.978
15.5235 10.116
15.5387 10.022
15.5539 10.016
15.5691 9.786
15.5842 9.992
15.5994 9.861
15.6146 9.591
15.6298 9.725
15.6449 9.779
15.6601 9.954
15.6753 9.670
15.6905 9.792
15.7056 9.542
15.7208 9.517
15.7360 9.386
15.7512 9.638
15.7663 9.721
15.7815 9.830
15.7967 9.986
15.8119 9.981
15.8270 9.616
15.8422 9.886
15.8574 9.792
15.8726 9.550
15.8877 9.469
15.9029 9.126
15.9181 9.670
15.9333 9.680
15.9484 9.427
15.9636 9.657
15.9788 9.549
15.9940 9.621
16.0091 9.383
16.0243 9.465
16.0395 9.697
16.0547 9.738
16.0698 9.486
16.0850 9.518
16.1002 9.482
16.1154 9.479
16.1305 9.703
16.1457 9.499
16.1609 9.589
16.1761 9.519
16.1912 9.661
16.2064 9.591
16.2216 9.586
16.2368 9.750
16.2519 9.662
16.2671 9.710
16.2823 9.773
16.2975 9.647
16.3126 9.694
16.3278 9.714
16.3430 9.590
16.3582 9.867
16.3733 9.792
16.3885 9.996
16.4037 9.955
16.4189 9.819
16.4340 9.714
16.4492 9.629
16.4644 9.617
16.4796 9.702
16.4947 9.606
16.5099 9.562
16.5251 9.830
16.5403 9.623
16.5554 9.558
16.5706 9.613
16.5858 9.523
16.6010 9.221
16.6161 9.379
16.6313 9.708
16.6465 9.294
16.6617 9.703
16.6768 9.974
16.6920 9.891
16.7072 9.768
16.7224 9.759
16.7375 9.903
16.7527 9.828
16.7679 9.808
16.7831 9.954
16.7982 9.888
16.8134 9.839
16.8286 9.915
16.8438 9.946
16.8589 9.858
16.8741 9.584
16.8893 9.686
16.9045 9.740
16.9196 9.783
16.9348 9.807
16.9500 9.819
16.9652 9.779
16.9803 9.756
16.9955 9.911
17.0107 9.820
17.0259 9.702
17.0410 9.938
17.0562 10.078
17.0714 10.110
17.0866 10.296
17.1017 10.452
17.1169 10.634
17.1321 11.115
17.1473 11.390
17.1624 11.696
17.1776 12.261
17.1928 13.003
17.2080 14.183
17.2231 15.276
17.2383 16.181
17.2535 17.472
17.2687 18.262
17.2838 18.338
17.2990 18.072
17.3142 17.236
17.3294 16.355
17.3445 16.001
17.3597 15.969
17.3749 16.058
17.3901 15.368
17.4052 14.082
17.4204 13.242
17.4356 12.552
17.4508 11.882
17.4659 11.600
17.4811 11.526
17.4963 11.329
17.5115 11.272
17.5266 10.887
17.5418 10.739
17.5570 11.107
17.5722 11.099
17.5873 10.987
17.6025 11.037
17.6177 11.023
17.6329 11.060
17.6480 11.337
17.6632 11.482
17.6784 11.251
17.6936 11.162
17.7087 11.192
17.7239 11.314
17.7391 11.583
17.7543 11.221
17.7694 10.855
17.7846 10.788
17.7998 10.677
17.8150 10.613
17.8301 10.575
17.8453 10.340
17.8605 10.318
17.8757 10.277
17.8908 10.181
17.9060 10.299
17.9212 10.204
17.9364 10.034
17.9515 10.072
17.9667 10.045
17.9819 10.072
17.9971 10.176
18.0122 10.274
18.0274 10.170
18.0426 10.209
18.0578 9.984
18.0729 9.902
18.0881 10.102
18.1033 10.037
18.1185 10.124
18.1336 10.032
18.1488 9.753
18.1640 9.653
18.1792 10.015
18.1943 10.011
18.2095 9.731
18.2247 9.706
18.2399 9.868
18.2550 9.847
18.2702 9.798
18.2854 9.850
18.3006 9.811
18.3157 9.771
18.3309 9.755
18.3461 9.826
18.3613 9.786
18.3764 9.856
18.3916 9.714
18.4068 9.791
18.4220 9.862
18.4371 9.909
18.4523 9.892
18.4675 9.796
18.4827 9.774
18.4978 9.470
18.5130 9.486
18.5282 9.654
18.5434 9.777
18.5585 9.942
18.5737 9.810
18.5889 9.741
18.6041 9.709
18.6192 9.668
18.6344 9.658
18.6496 9.613
18.6648 9.495
18.6799 9.676
18.6951 9.786
18.7103 9.833
18.7255 9.736
18.7406 9.891
18.7558 9.871
18.7710 9.721
18.7862 9.758
18.8013 9.865
18.8165 9.777
18.8317 9.980
18.8469 9.903
18.8620 10.153
18.8772 10.218
18.8924 9.922
18.9076 10.004
18.9227 10.128
18.9379 10.084
18.9531 10.221
18.9683 10.077
18.9834 9.878
18.9986 10.123
19.0138 10.197
19.0290 10.089
19.0441 10.180
19.0593 10.274
19.0745 10.388
19.0897 10.284
19.1048 10.395
19.1200 10.348
19.1352 10.184
19.1504 10.218
19.1655 10.307
19.1807 10.367
19.1959 10.473
19.2111 10.586
19.2262 10.644
19.2414 10.763
19.2566 10.927
19.2718 10.821
19.2869 10.774
19.3021 10.841
19.3173 10.989
19.3325 11.062
19.3476 11.025
19.3628 11.088
19.3780 10.891
19.3932 11.253
19.4083 11.284
19.4235 11.189
19.4387 11.240
19.4539 11.316
19.4690 11.423
19.4842 11.248
19.4994 11.236
19.5146 11.382
19.5297 11.528
19.5449 11.607
19.5601 11.829
19.5753 11.777
19.5904 11.789
19.6056 11.831
19.6208 11.698
19.6360 11.489
19.6511 11.519
19.6663 11.704
19.6815 11.694
19.6967 11.582
19.7118 11.445
19.7270 11.594
19.7422 11.883
19.7574 11.875
19.7725 11.762
19.7877 11.759
19.8029 12.033
19.8180 12.262
19.8332 12.156
19.8484 12.165
19.8636 12.394
19.8787 12.620
19.8939 12.908
19.9091 13.067
19.9243 13.445
19.9394 13.958
19.9546 14.312
19.9698 14.426
19.9850 14.383
20.0001 14.603
20.0153 14.443
20.0305 14.200
20.0457 14.002
20.0608 14.035
20.0760 14.004
20.0912 13.833
20.1064 13.854
20.1215 13.591
20.1367 13.398
20.1519 13.263
20.1671 13.226
20.1822 12.807
20.1974 12.886
20.2126 12.778
20.2278 12.545
20.2429 12.858
20.2581 12.341
20.2733 11.992
20.2885 11.946
20.3036 12.231
20.3188 12.447
20.3340 12.263
20.3492 12.176
20.3643 12.058
20.3795 12.047
20.3947 11.863
20.4099 11.704
20.4250 11.789
20.4402 11.757
20.4554 11.593
20.4706 12.015
20.4857 12.068
20.5009 11.909
20.5161 11.544
20.5313 11.459
20.5464 11.257
20.5616 11.060
20.5768 11.231
20.5920 11.555
20.6071 11.398
20.6223 11.231
20.6375 11.045
20.6527 10.951
20.6678 10.940
20.6830 10.560
20.6982 10.549
20.7134 10.598
20.7285 10.696
20.7437 10.625
20.7589 10.507
20.7741 10.379
20.7892 10.503
20.8044 10.577
20.8196 10.534
20.8348 10.445
20.8499 10.249
20.8651 10.428
20.8803 10.331
20.8955 10.645
20.9106 10.739
20.9258 10.197
20.9410 10.295
20.9562 10.114
20.9713 10.318
20.9865 10.191
21.0017 10.227
21.0169 9.932
21.0320 10.245
21.0472 9.727
21.0624 9.999
21.0776 9.764
21.0927 10.185
21.1079 9.949
21.1231 9.718
21.1383 10.034
21.1534 9.674
21.1686 9.561
21.1838 9.712
21.1990 9.528
21.2141 9.605
21.2293 9.805
21.2445 9.575
21.2597 9.692
21.2748 9.399
21.2900 9.543
21.3052 9.667
21.3204 9.256
21.3355 9.458
21.3507 9.661
21.3659 9.555
21.3811 9.486
21.3962 9.583
21.4114 9.568
21.4266 9.650
21.4418 9.500
21.4569 9.344
21.4721 9.134
21.4873 9.384
21.5025 9.453
21.5176 9.412
21.5328 9.236
21.5480 9.240
21.5632 9.121
21.5783 9.254
21.5935 9.441
21.6087 9.089
21.6239 9.220
21.6390 9.438
21.6542 9.424
21.6694 9.241
21.6846 9.167
21.6997 9.135
21.7149 9.033
21.7301 9.001
21.7453 9.174
21.7604 9.244
21.7756 9.055
21.7908 8.920
21.8060 8.998
21.8211 9.286
21.8363 9.186
21.8515 9.215
21.8667 9.050
21.8818 9.022
21.8970 9.187
21.9122 9.141
21.9274 8.841
21.9425 8.659
21.9577 8.781
21.9729 8.948
21.9881 8.756
22.0032 8.841
22.0184 8.682
22.0336 8.578
22.0488 8.847
22.0639 8.873
22.0791 8.673
22.0943 8.574
22.1095 8.675
22.1246 8.772
22.1398 8.619
22.1550 8.618
22.1702 8.707
22.1853 8.585
22.2005 8.399
22.2157 8.499
22.2309 8.742
22.2460 8.550
22.2612 8.495
22.2764 8.674
22.2916 8.512
22.3067 8.506
22.3219 8.567
22.3371 8.610
22.3523 8.323
22.3674 8.401
22.3826 8.479
22.3978 8.473
22.4130 8.322
22.4281 8.376
22.4433 8.520
22.4585 8.650
22.4737 8.398
22.4888 8.249
22.5040 8.215
22.5192 8.506
22.5344 8.586
22.5495 8.556
22.5647 7.942
22.5799 8.532
22.5951 8.487
22.6102 8.276
22.6254 8.454
22.6406 8.396
22.6558 8.228
22.6709 8.434
22.6861 8.351
22.7013 8.430
22.7165 7.971
22.7316 6.460
