'Id: "" Comment: "" Operator: "Lab Manager" Anode: "Mo" Scantype: "Still (Eiger2R_500K (1D mode))" TimePerStep: "300" X: "11.8" Y: "9.4" Z: "11.284" 
7.2532 19.026
7.2684 19.159
7.2836 19.007
7.2987 18.839
7.3139 18.904
7.3291 19.080
7.3443 19.283
7.3594 19.228
7.3746 19.745
7.3898 19.086
7.4050 19.477
7.4201 19.545
7.4353 19.652
7.4505 19.634
7.4657 19.684
7.4808 19.625
7.4960 19.512
7.5112 20.051
7.5264 20.001
7.5415 19.628
7.5567 19.973
7.5719 19.987
7.5871 20.121
7.6022 20.167
7.6174 20.194
7.6326 20.457
7.6478 20.575
7.6629 20.399
7.6781 20.408
7.6933 19.938
7.7085 20.227
7.7236 20.524
7.7388 20.654
7.7540 20.712
7.7692 20.496
7.7843 20.644
7.7995 20.432
7.8147 20.430
7.8299 20.648
7.8450 21.144
7.8602 21.122
7.8754 20.835
7.8905 21.078
7.9057 21.172
7.9209 20.977
7.9361 20.773
7.9512 20.725
7.9664 21.294
7.9816 21.101
7.9968 20.960
8.0119 21.117
8.0271 21.482
8.0423 21.787
8.0575 21.124
8.0726 20.948
8.0878 21.178
8.1030 21.299
8.1182 21.257
8.1333 21.107
8.1485 21.078
8.1637 21.434
8.1789 21.733
8.1940 21.773
8.2092 21.514
8.2244 21.678
8.2396 21.268
8.2547 21.735
8.2699 21.850
8.2851 21.743
8.3003 21.727
8.3154 22.034
8.3306 21.738
8.3458 21.847
8.3610 21.923
8.3761 21.852
8.3913 21.888
8.4065 22.112
8.4217 21.937
8.4368 22.405
8.4520 22.227
8.4672 22.319
8.4824 21.753
8.4975 22.259
8.5127 22.633
8.5279 22.011
8.5431 22.371
8.5582 22.866
8.5734 22.513
8.5886 22.379
8.6038 22.108
8.6189 22.384
8.6341 22.009
8.6493 22.617
8.6645 22.793
8.6796 22.747
8.6948 22.707
8.7100 22.456
8.7252 22.261
8.7403 22.935
8.7555 22.250
8.7707 22.653
8.7859 22.513
8.8010 22.654
8.8162 22.595
8.8314 23.120
8.8466 22.665
8.8617 22.412
8.8769 22.705
8.8921 22.572
8.9073 22.603
8.9224 22.624
8.9376 22.483
8.9528 22.745
8.9680 22.725
8.9831 22.956
8.9983 23.066
9.0135 23.159
9.0287 22.725
9.0438 22.814
9.0590 22.805
9.0742 22.377
9.0894 22.790
9.1045 23.082
9.1197 23.177
9.1349 23.201
9.1501 22.908
9.1652 22.868
9.1804 23.336
9.1956 22.947
9.2108 23.258
9.2259 23.282
9.2411 23.462
9.2563 23.529
9.2715 23.233
9.2866 23.162
9.3018 22.989
9.3170 23.047
9.3322 23.470
9.3473 23.293
9.3625 23.052
9.3777 23.388
9.3929 23.423
9.4080 23.161
9.4232 23.142
9.4384 23.064
9.4536 22.860
9.4687 22.965
9.4839 23.134
9.4991 23.168
9.5143 22.916
9.5294 23.042
9.5446 23.663
9.5598 23.357
9.5750 23.195
9.5901 23.490
9.6053 23.310
9.6205 23.256
9.6357 23.409
9.6508 23.650
9.6660 23.867
9.6812 23.906
9.6964 23.968
9.7115 23.780
9.7267 23.726
9.7419 23.908
9.7571 24.162
9.7722 23.904
9.7874 23.570
9.8026 23.656
9.8178 23.663
9.8329 23.521
9.8481 23.531
9.8633 23.345
9.8785 23.203
9.8936 23.353
9.9088 23.810
9.9240 23.574
9.9392 23.256
9.9543 23.290
9.9695 23.211
9.9847 23.372
9.9999 23.226
10.0150 23.505
10.0302 23.877
10.0454 23.691
10.0606 23.262
10.0757 23.518
10.0909 23.537
10.1061 23.395
10.1213 23.491
10.1364 23.604
10.1516 23.659
10.1668 23.405
10.1820 23.237
10.1971 23.540
10.2123 23.388
10.2275 23.602
10.2427 23.585
10.2578 23.496
10.2730 23.474
10.2882 23.494
10.3034 23.754
10.3185 23.451
10.3337 23.288
10.3489 23.267
10.3641 22.886
10.3792 22.656
10.3944 22.837
10.4096 23.048
10.4248 22.564
10.4399 22.741
10.4551 22.810
10.4703 22.855
10.4855 23.122
10.5006 22.984
10.5158 22.680
10.5310 22.778
10.5462 22.601
10.5613 22.555
10.5765 22.732
10.5917 22.728
10.6069 22.471
10.6220 22.801
10.6372 22.810
10.6524 22.501
10.6676 22.514
10.6827 22.495
10.6979 22.559
10.7131 22.596
10.7283 22.358
10.7434 22.297
10.7586 22.043
10.7738 22.700
10.7890 22.498
10.8041 22.293
10.8193 22.649
10.8345 22.492
10.8497 22.649
10.8648 21.990
10.8800 22.287
10.8952 22.448
10.9104 22.127
10.9255 22.272
10.9407 22.605
10.9559 22.275
10.9711 22.003
10.9862 22.401
11.0014 22.528
11.0166 22.601
11.0318 22.829
11.0469 22.298
11.0621 22.077
11.0773 22.212
11.0925 22.158
11.1076 22.282
11.1228 21.976
11.1380 21.857
11.1532 21.515
11.1683 21.752
11.1835 21.479
11.1987 21.932
11.2139 21.911
11.2290 22.094
11.2442 22.038
11.2594 22.374
11.2746 22.412
11.2897 22.036
11.3049 22.069
11.3201 21.632
11.3353 21.684
11.3504 21.585
11.3656 21.778
11.3808 21.747
11.3960 21.239
11.4111 21.440
11.4263 21.496
11.4415 21.301
11.4567 21.458
11.4718 21.564
11.4870 21.264
11.5022 21.119
11.5174 21.237
11.5325 21.488
11.5477 20.922
11.5629 20.709
11.5781 20.967
11.5932 20.860
11.6084 20.855
11.6236 20.730
11.6388 20.614
11.6539 20.590
11.6691 20.638
11.6843 20.770
11.6995 20.658
11.7146 20.562
11.7298 20.367
11.7450 20.178
11.7602 19.887
11.7753 20.013
11.7905 19.965
11.8057 19.854
11.8209 19.885
11.8360 19.907
11.8512 19.960
11.8664 19.902
11.8816 20.054
11.8967 19.509
11.9119 19.928
11.9271 19.930
11.9423 19.709
11.9574 19.451
11.9726 19.571
11.9878 19.422
12.0030 19.191
12.0181 19.104
12.0333 19.235
12.0485 19.199
12.0637 19.112
12.0788 19.291
12.0940 19.065
12.1092 18.890
12.1244 19.078
12.1395 18.714
12.1547 18.577
12.1699 18.735
12.1851 18.383
12.2002 18.330
12.2154 18.382
12.2306 18.150
12.2458 17.776
12.2609 17.368
12.2761 17.582
12.2913 18.018
12.3065 17.751
12.3216 17.220
12.3368 17.615
12.3520 17.856
12.3672 17.581
12.3823 17.486
12.3975 17.438
12.4127 16.995
12.4279 17.347
12.4430 17.550
12.4582 17.342
12.4734 17.399
12.4886 17.137
12.5037 16.958
12.5189 17.137
12.5341 16.981
12.5493 16.729
12.5644 16.510
12.5796 16.520
12.5948 16.409
12.6100 16.127
12.6251 16.226
12.6403 16.447
12.6555 16.510
12.6707 16.255
12.6858 15.968
12.7010 15.914
12.7162 15.943
12.7314 15.790
12.7465 15.509
12.7617 15.512
12.7769 15.395
12.7921 15.150
12.8072 15.216
12.8224 15.163
12.8376 15.061
12.8528 15.048
12.8679 15.063
12.8831 14.907
12.8983 14.660
12.9135 14.758
12.9286 14.786
12.9438 14.625
12.9590 14.579
12.9742 14.599
12.9893 14.371
13.0045 14.272
13.0197 14.231
13.0349 14.256
13.0500 14.124
13.0652 13.974
13.0804 14.009
13.0956 14.121
13.1107 14.077
13.1259 13.785
13.1411 13.649
13.1563 13.725
13.1714 13.799
13.1866 13.768
13.2018 13.552
13.2170 13.328
13.2321 13.208
13.2473 13.199
13.2625 13.555
13.2777 13.540
13.2928 13.302
13.3080 13.155
13.3232 13.191
13.3384 13.253
13.3535 13.114
13.3687 13.194
13.3839 13.189
13.3991 13.212
13.4142 13.162
13.4294 13.047
13.4446 13.003
13.4598 12.854
13.4749 12.575
13.4901 12.546
13.5053 12.673
13.5205 12.633
13.5356 12.557
13.5508 12.597
13.5660 12.464
13.5812 12.392
13.5963 12.476
13.6115 12.570
13.6267 12.497
13.6419 12.323
13.6570 12.350
13.6722 12.345
13.6874 12.406
13.7026 12.490
13.7177 12.195
13.7329 12.206
13.7481 12.049
13.7633 11.908
13.7784 12.192
13.7936 12.228
13.8088 12.422
13.8239 12.346
13.8391 12.429
13.8543 12.376
13.8695 12.372
13.8846 12.275
13.8998 12.228
13.9150 12.129
13.9302 12.053
13.9453 11.989
13.9605 11.688
13.9757 11.796
13.9909 11.724
14.0060 11.796
14.0212 11.796
14.0364 11.569
14.0516 11.945
14.0667 11.574
14.0819 11.472
14.0971 11.455
14.1123 11.197
14.1274 11.640
14.1426 11.562
14.1578 11.713
14.1730 11.795
14.1881 11.513
14.2033 11.781
14.2185 11.563
14.2337 11.736
14.2488 11.942
14.2640 11.744
14.2792 11.895
14.2944 11.991
14.3095 12.041
14.3247 12.179
14.3399 12.281
14.3551 12.180
14.3702 12.487
14.3854 12.621
14.4006 12.914
14.4158 12.629
14.4309 12.346
14.4461 12.326
14.4613 11.944
14.4765 12.042
14.4916 11.968
14.5068 12.020
14.5220 11.634
14.5372 11.585
14.5523 11.358
14.5675 11.501
14.5827 10.938
14.5979 11.159
14.6130 10.949
14.6282 11.011
14.6434 10.897
14.6586 11.154
14.6737 10.948
14.6889 10.610
14.7041 11.020
14.7193 10.925
14.7344 11.051
14.7496 10.547
14.7648 10.946
14.7800 10.676
14.7951 10.738
14.8103 10.795
14.8255 10.679
14.8407 10.622
14.8558 10.446
14.8710 10.755
14.8862 10.888
14.9014 10.675
14.9165 10.621
14.9317 10.562
14.9469 10.410
14.9621 10.497
14.9772 10.242
14.9924 10.468
15.0076 10.292
15.0228 10.871
15.0379 10.477
15.0531 10.540
15.0683 10.288
15.0835 10.717
15.0986 10.444
15.1138 10.364
15.1290 10.722
15.1442 10.720
15.1593 10.607
15.1745 10.167
15.1897 10.530
15.2049 10.552
15.2200 10.060
15.2352 10.294
15.2504 9.961
15.2656 10.530
15.2807 10.466
15.2959 10.515
15.3111 10.630
15.3263 10.149
15.3414 10.200
15.3566 10.146
15.3718 10.511
15.3870 10.291
15.4021 10.311
15.4173 10.390
15.4325 10.385
15.4477 10.424
15.4628 10.396
15.4780 10.537
15.4932 10.709
15.5084 10.407
15.5235 10.391
15.5387 10.157
15.5539 10.485
15.5691 10.227
15.5842 10.179
15.5994 10.407
15.6146 10.110
15.6298 9.916
15.6449 10.054
15.6601 9.911
15.6753 10.046
15.6905 10.067
15.7056 9.858
15.7208 10.283
15.7360 9.973
15.7512 9.811
15.7663 9.975
15.7815 9.872
15.7967 9.620
15.8119 9.724
15.8270 10.246
15.8422 9.933
15.8574 10.202
15.8726 10.092
15.8877 9.970
15.9029 9.737
15.9181 9.796
15.9333 9.763
15.9484 9.579
15.9636 9.874
15.9788 9.778
15.9940 9.811
16.0091 9.763
16.0243 9.789
16.0395 9.778
16.0547 9.784
16.0698 9.992
16.0850 9.638
16.1002 9.827
16.1154 9.835
16.1305 10.018
16.1457 9.654
16.1609 9.763
16.1761 9.709
16.1912 9.860
16.2064 9.832
16.2216 9.956
16.2368 9.865
16.2519 9.753
16.2671 10.077
16.2823 10.347
16.2975 10.128
16.3126 9.898
16.3278 9.835
16.3430 9.838
16.3582 9.965
16.3733 10.088
16.3885 10.225
16.4037 10.265
16.4189 10.029
16.4340 9.763
16.4492 9.922
16.4644 10.094
16.4796 9.895
16.4947 9.957
16.5099 9.753
16.5251 9.754
16.5403 9.962
16.5554 10.056
16.5706 9.960
16.5858 9.848
16.6010 9.718
16.6161 9.511
16.6313 9.712
16.6465 10.124
16.6617 10.029
16.6768 9.851
16.6920 9.887
16.7072 9.962
16.7224 10.030
16.7375 10.230
16.7527 10.239
16.7679 10.245
16.7831 10.018
16.7982 10.072
16.8134 10.120
16.8286 10.081
16.8438 10.200
16.8589 10.000
16.8741 9.918
16.8893 9.900
16.9045 10.096
16.9196 9.918
16.9348 9.809
16.9500 9.954
16.9652 9.769
16.9803 9.985
16.9955 10.009
17.0107 9.895
17.0259 10.023
17.0410 10.268
17.0562 10.406
17.0714 10.372
17.0866 10.478
17.1017 10.389
17.1169 10.571
17.1321 10.823
17.1473 11.186
17.1624 11.531
17.1776 12.281
17.1928 13.310
17.2080 14.056
17.2231 14.725
17.2383 16.188
17.2535 17.862
17.2687 18.752
17.2838 18.716
17.2990 18.265
17.3142 17.331
17.3294 16.408
17.3445 16.225
17.3597 16.220
17.3749 16.089
17.3901 15.480
17.4052 14.291
17.4204 13.095
17.4356 12.368
17.4508 11.912
17.4659 11.692
17.4811 11.701
17.4963 11.481
17.5115 11.267
17.5266 11.278
17.5418 11.275
17.5570 11.272
17.5722 11.103
17.5873 11.112
17.6025 11.193
17.6177 11.094
17.6329 11.027
17.6480 10.966
17.6632 10.901
17.6784 10.968
17.6936 10.912
17.7087 10.865
17.7239 10.739
17.7391 10.570
17.7543 10.352
17.7694 10.261
17.7846 10.294
17.7998 10.168
17.8150 10.039
17.8301 10.098
17.8453 10.144
17.8605 10.019
17.8757 10.177
17.8908 10.500
17.9060 10.474
17.9212 10.182
17.9364 9.966
17.9515 10.080
17.9667 10.228
17.9819 10.413
17.9971 10.211
18.0122 10.324
18.0274 10.200
18.0426 10.058
18.0578 10.245
18.0729 10.239
18.0881 10.351
18.1033 10.170
18.1185 9.897
18.1336 10.086
18.1488 10.007
18.1640 9.965
18.1792 9.822
18.1943 9.911
18.2095 10.044
18.2247 10.092
18.2399 10.128
18.2550 10.126
18.2702 10.030
18.2854 9.822
18.3006 9.895
18.3157 10.018
18.3309 9.912
18.3461 9.716
18.3613 9.549
18.3764 9.610
18.3916 9.978
18.4068 9.909
18.4220 9.721
18.4371 9.635
18.4523 9.728
18.4675 10.026
18.4827 9.871
18.4978 9.755
18.5130 9.772
18.5282 9.918
18.5434 9.892
18.5585 9.733
18.5737 9.912
18.5889 9.855
18.6041 9.819
18.6192 9.727
18.6344 9.586
18.6496 9.718
18.6648 9.706
18.6799 9.946
18.6951 9.940
18.7103 9.857
18.7255 9.902
18.7406 9.583
18.7558 9.507
18.7710 9.751
18.7862 10.004
18.8013 9.912
18.8165 9.640
18.8317 9.690
18.8469 9.658
18.8620 9.694
18.8772 9.921
18.8924 9.924
18.9076 9.981
18.9227 9.977
18.9379 10.103
18.9531 10.108
18.9683 10.140
18.9834 9.998
18.9986 10.232
19.0138 10.284
19.0290 10.212
19.0441 10.052
19.0593 10.128
19.0745 10.191
19.0897 10.358
19.1048 10.564
19.1200 10.472
19.1352 10.328
19.1504 10.392
19.1655 10.701
19.1807 10.652
19.1959 10.657
19.2111 10.536
19.2262 10.467
19.2414 10.789
19.2566 10.995
19.2718 10.924
19.2869 10.782
19.3021 10.907
19.3173 11.096
19.3325 10.896
19.3476 11.114
19.3628 11.230
19.3780 11.035
19.3932 11.127
19.4083 11.049
19.4235 11.207
19.4387 11.406
19.4539 11.270
19.4690 11.192
19.4842 11.256
19.4994 11.322
19.5146 11.451
19.5297 11.401
19.5449 11.275
19.5601 11.322
19.5753 11.491
19.5904 11.752
19.6056 11.821
19.6208 11.657
19.6360 11.545
19.6511 11.548
19.6663 11.707
19.6815 11.865
19.6967 11.825
19.7118 11.960
19.7270 11.918
19.7422 11.901
19.7574 12.005
19.7725 11.849
19.7877 11.724
19.8029 11.798
19.8180 11.987
19.8332 11.863
19.8484 11.789
19.8636 12.241
19.8787 12.597
19.8939 12.668
19.9091 13.139
19.9243 13.652
19.9394 13.669
19.9546 13.785
19.9698 14.184
19.9850 14.494
20.0001 14.471
20.0153 14.386
20.0305 13.981
20.0457 13.833
20.0608 13.815
20.0760 13.720
20.0912 13.709
20.1064 13.676
20.1215 13.530
20.1367 13.324
20.1519 13.231
20.1671 13.009
20.1822 12.935
20.1974 13.158
20.2126 12.960
20.2278 12.877
20.2429 12.764
20.2581 12.595
20.2733 12.254
20.2885 11.885
20.3036 11.620
20.3188 11.764
20.3340 11.769
20.3492 11.764
20.3643 11.722
20.3795 11.173
20.3947 11.063
20.4099 10.989
20.4250 10.942
20.4402 10.923
20.4554 10.889
20.4706 10.958
20.4857 10.839
20.5009 10.594
20.5161 10.564
20.5313 10.685
20.5464 10.757
20.5616 10.764
20.5768 10.503
20.5920 10.596
20.6071 10.965
20.6223 10.604
20.6375 10.509
20.6527 10.419
20.6678 10.752
20.6830 11.206
20.6982 10.639
20.7134 10.697
20.7285 10.762
20.7437 10.586
20.7589 10.718
20.7741 10.174
20.7892 10.224
20.8044 10.275
20.8196 10.439
20.8348 10.538
20.8499 10.497
20.8651 10.514
20.8803 10.156
20.8955 10.255
20.9106 10.036
20.9258 10.305
20.9410 10.171
20.9562 10.080
20.9713 9.961
20.9865 9.881
21.0017 9.819
21.0169 9.784
21.0320 10.129
21.0472 9.909
21.0624 10.047
21.0776 10.166
21.0927 9.938
21.1079 9.797
21.1231 9.806
21.1383 9.704
21.1534 9.653
21.1686 9.607
21.1838 9.566
21.1990 9.662
21.2141 9.734
21.2293 9.766
21.2445 9.583
21.2597 9.394
21.2748 9.295
21.2900 9.403
21.3052 9.585
21.3204 9.449
21.3355 9.472
21.3507 9.600
21.3659 9.611
21.3811 9.423
21.3962 9.451
21.4114 9.563
21.4266 9.601
21.4418 9.575
21.4569 9.641
21.4721 9.830
21.4873 9.201
21.5025 9.300
21.5176 9.427
21.5328 9.507
21.5480 9.763
21.5632 9.541
21.5783 9.381
21.5935 9.112
21.6087 9.199
21.6239 9.318
21.6390 9.333
21.6542 9.197
21.6694 9.143
21.6846 9.458
21.6997 9.240
21.7149 8.978
21.7301 8.970
21.7453 8.998
21.7604 9.234
21.7756 9.215
21.7908 9.120
21.8060 9.075
21.8211 9.121
21.8363 8.972
21.8515 9.076
21.8667 9.232
21.8818 9.066
21.8970 8.838
21.9122 8.726
21.9274 8.784
21.9425 9.062
21.9577 9.339
21.9729 9.055
21.9881 8.889
22.0032 8.932
22.0184 8.740
22.0336 8.800
22.0488 8.909
22.0639 8.779
22.0791 8.819
22.0943 8.914
22.1095 8.834
22.1246 8.691
22.1398 8.660
22.1550 8.694
22.1702 8.679
22.1853 8.678
22.2005 8.497
22.2157 8.859
22.2309 8.677
22.2460 8.631
22.2612 8.751
22.2764 8.532
22.2916 8.211
22.3067 8.517
22.3219 8.567
22.3371 8.551
22.3523 8.554
22.3674 8.446
22.3826 8.676
22.3978 8.580
22.4130 8.431
22.4281 8.788
22.4433 8.444
22.4585 8.498
22.4737 8.367
22.4888 8.515
22.5040 8.380
22.5192 8.484
22.5344 8.228
22.5495 8.795
22.5647 8.706
22.5799 8.336
22.5951 8.333
22.6102 8.350
22.6254 8.648
22.6406 8.445
22.6558 8.636
22.6709 8.565
22.6861 8.434
22.7013 8.118
22.7165 7.902
22.7316 6.440
