'Id: "" Comment: "" Operator: "Lab Manager" Anode: "Mo" Scantype: "Still (Eiger2R_500K (1D mode))" TimePerStep: "300" X: "11.8" Y: "9.4" Z: "11.284" 
7.2532 18.947
7.2684 18.771
7.2836 18.826
7.2987 18.857
7.3139 18.949
7.3291 18.978
7.3443 18.657
7.3594 19.006
7.3746 19.260
7.3898 19.100
7.4050 19.400
7.4201 19.338
7.4353 19.607
7.4505 19.680
7.4657 19.446
7.4808 19.063
7.4960 19.523
7.5112 19.950
7.5264 19.800
7.5415 19.814
7.5567 19.759
7.5719 20.241
7.5871 20.091
7.6022 19.660
7.6174 19.564
7.6326 19.782
7.6478 20.044
7.6629 19.984
7.6781 19.890
7.6933 20.094
7.7085 20.108
7.7236 20.342
7.7388 20.272
7.7540 19.988
7.7692 20.212
7.7843 20.507
7.7995 20.539
7.8147 20.515
7.8299 20.506
7.8450 20.631
7.8602 20.624
7.8754 20.404
7.8905 20.644
7.9057 20.838
7.9209 20.667
7.9361 20.573
7.9512 21.027
7.9664 21.306
7.9816 21.184
7.9968 20.810
8.0119 20.594
8.0271 20.732
8.0423 21.041
8.0575 21.051
8.0726 21.090
8.0878 21.071
8.1030 20.817
8.1182 20.963
8.1333 21.328
8.1485 21.469
8.1637 21.102
8.1789 21.261
8.1940 21.272
8.2092 21.187
8.2244 21.515
8.2396 21.647
8.2547 21.671
8.2699 21.184
8.2851 21.102
8.3003 21.594
8.3154 21.367
8.3306 21.402
8.3458 21.665
8.3610 21.588
8.3761 21.737
8.3913 21.535
8.4065 21.714
8.4217 22.029
8.4368 21.808
8.4520 22.246
8.4672 21.798
8.4824 21.728
8.4975 21.862
8.5127 21.815
8.5279 21.804
8.5431 21.973
8.5582 22.235
8.5734 22.422
8.5886 22.103
8.6038 21.780
8.6189 21.999
8.6341 22.383
8.6493 22.572
8.6645 21.974
8.6796 22.095
8.6948 21.883
8.7100 21.470
8.7252 22.141
8.7403 22.097
8.7555 22.693
8.7707 22.463
8.7859 22.377
8.8010 22.711
8.8162 22.615
8.8314 22.679
8.8466 22.628
8.8617 22.422
8.8769 22.285
8.8921 22.697
8.9073 22.607
8.9224 21.994
8.9376 22.577
8.9528 22.698
8.9680 22.825
8.9831 22.840
8.9983 22.522
9.0135 22.523
9.0287 22.313
9.0438 22.459
9.0590 22.601
9.0742 22.499
9.0894 22.808
9.1045 22.553
9.1197 22.862
9.1349 22.833
9.1501 22.604
9.1652 22.893
9.1804 22.730
9.1956 22.801
9.2108 22.634
9.2259 22.343
9.2411 22.099
9.2563 22.502
9.2715 22.969
9.2866 22.826
9.3018 22.564
9.3170 23.489
9.3322 23.509
9.3473 23.019
9.3625 22.803
9.3777 22.849
9.3929 22.897
9.4080 22.826
9.4232 23.167
9.4384 22.942
9.4536 22.686
9.4687 22.900
9.4839 23.260
9.4991 22.788
9.5143 22.638
9.5294 22.738
9.5446 22.744
9.5598 23.002
9.5750 23.176
9.5901 23.181
9.6053 23.199
9.6205 23.168
9.6357 23.099
9.6508 23.219
9.6660 23.548
9.6812 23.700
9.6964 23.805
9.7115 23.814
9.7267 23.718
9.7419 23.596
9.7571 23.776
9.7722 24.031
9.7874 24.024
9.8026 23.525
9.8178 23.167
9.8329 23.250
9.8481 22.990
9.8633 22.703
9.8785 22.852
9.8936 23.117
9.9088 23.030
9.9240 22.983
9.9392 22.872
9.9543 23.037
9.9695 23.520
9.9847 23.199
9.9999 23.217
10.0150 23.460
10.0302 23.094
10.0454 23.125
10.0606 22.979
10.0757 23.268
10.0909 23.581
10.1061 23.556
10.1213 23.509
10.1364 23.177
10.1516 23.325
10.1668 23.410
10.1820 23.401
10.1971 23.249
10.2123 23.120
10.2275 23.327
10.2427 23.099
10.2578 22.899
10.2730 22.860
10.2882 22.616
10.3034 22.866
10.3185 22.957
10.3337 22.934
10.3489 23.079
10.3641 23.121
10.3792 22.987
10.3944 22.902
10.4096 22.671
10.4248 22.276
10.4399 22.316
10.4551 22.424
10.4703 22.665
10.4855 22.438
10.5006 22.151
10.5158 22.435
10.5310 22.519
10.5462 22.529
10.5613 22.333
10.5765 22.377
10.5917 22.622
10.6069 22.453
10.6220 22.609
10.6372 22.629
10.6524 22.963
10.6676 22.474
10.6827 22.280
10.6979 22.350
10.7131 22.358
10.7283 22.241
10.7434 22.178
10.7586 22.152
10.7738 21.870
10.7890 22.222
10.8041 22.517
10.8193 22.357
10.8345 22.313
10.8497 22.435
10.8648 22.373
10.8800 22.246
10.8952 21.976
10.9104 21.867
10.9255 22.291
10.9407 22.277
10.9559 22.063
10.9711 21.849
10.9862 22.038
11.0014 21.770
11.0166 21.694
11.0318 21.746
11.0469 21.867
11.0621 21.890
11.0773 21.914
11.0925 21.248
11.1076 21.478
11.1228 21.667
11.1380 21.779
11.1532 21.635
11.1683 21.582
11.1835 21.322
11.1987 21.433
11.2139 21.790
11.2290 21.500
11.2442 21.464
11.2594 21.461
11.2746 21.787
11.2897 21.681
11.3049 21.230
11.3201 20.955
11.3353 21.410
11.3504 21.398
11.3656 21.089
11.3808 21.176
11.3960 21.590
11.4111 21.641
11.4263 21.610
11.4415 21.409
11.4567 21.380
11.4718 20.939
11.4870 20.967
11.5022 20.822
11.5174 21.031
11.5325 20.984
11.5477 20.599
11.5629 20.874
11.5781 20.598
11.5932 20.394
11.6084 20.787
11.6236 20.544
11.6388 20.614
11.6539 20.540
11.6691 20.393
11.6843 20.518
11.6995 20.642
11.7146 20.399
11.7298 20.442
11.7450 20.113
11.7602 20.303
11.7753 20.586
11.7905 20.270
11.8057 19.971
11.8209 19.928
11.8360 19.768
11.8512 19.949
11.8664 19.821
11.8816 19.559
11.8967 19.681
11.9119 19.777
11.9271 19.529
11.9423 19.512
11.9574 19.408
11.9726 19.503
11.9878 19.341
12.0030 19.440
12.0181 19.219
12.0333 18.875
12.0485 18.470
12.0637 18.885
12.0788 18.574
12.0940 18.516
12.1092 18.386
12.1244 18.412
12.1395 18.634
12.1547 18.693
12.1699 18.483
12.1851 18.146
12.2002 18.271
12.2154 17.933
12.2306 17.879
12.2458 17.786
12.2609 17.717
12.2761 17.675
12.2913 17.541
12.3065 17.524
12.3216 17.355
12.3368 17.036
12.3520 17.170
12.3672 16.972
12.3823 16.911
12.3975 17.031
12.4127 17.099
12.4279 16.986
12.4430 16.937
12.4582 17.061
12.4734 17.067
12.4886 16.686
12.5037 16.444
12.5189 16.380
12.5341 16.339
12.5493 15.985
12.5644 16.139
12.5796 16.142
12.5948 15.885
12.6100 15.881
12.6251 15.777
12.6403 15.796
12.6555 16.038
12.6707 15.706
12.6858 15.610
12.7010 15.855
12.7162 15.465
12.7314 14.997
12.7465 15.240
12.7617 15.480
12.7769 15.160
12.7921 14.824
12.8072 15.159
12.8224 15.202
12.8376 15.050
12.8528 14.827
12.8679 14.967
12.8831 14.740
12.8983 14.269
12.9135 14.347
12.9286 14.440
12.9438 14.353
12.9590 14.378
12.9742 14.314
12.9893 14.291
13.0045 14.197
13.0197 14.181
13.0349 14.087
13.0500 14.144
13.0652 13.882
13.0804 13.730
13.0956 13.896
13.1107 13.891
13.1259 13.842
13.1411 13.746
13.1563 13.614
13.1714 13.311
13.1866 13.184
13.2018 13.375
13.2170 13.608
13.2321 13.335
13.2473 13.256
13.2625 13.478
13.2777 13.332
13.2928 12.955
13.3080 12.896
13.3232 13.016
13.3384 12.779
13.3535 12.819
13.3687 13.046
13.3839 13.067
13.3991 13.258
13.4142 13.227
13.4294 12.997
13.4446 12.931
13.4598 12.650
13.4749 12.619
13.4901 12.788
13.5053 12.407
13.5205 12.294
13.5356 12.359
13.5508 12.081
13.5660 12.311
13.5812 12.603
13.5963 12.382
13.6115 12.143
13.6267 12.004
13.6419 12.153
13.6570 12.098
13.6722 11.935
13.6874 12.098
13.7026 11.887
13.7177 12.210
13.7329 12.276
13.7481 12.085
13.7633 12.028
13.7784 11.995
13.7936 12.030
13.8088 12.213
13.8239 12.201
13.8391 12.144
13.8543 12.128
13.8695 12.172
13.8846 12.324
13.8998 12.288
13.9150 12.241
13.9302 12.210
13.9453 11.970
13.9605 11.742
13.9757 11.563
13.9909 11.486
14.0060 11.686
14.0212 11.585
14.0364 11.424
14.0516 11.582
14.0667 11.688
14.0819 11.448
14.0971 11.308
14.1123 11.315
14.1274 11.357
14.1426 11.388
14.1578 11.554
14.1730 11.341
14.1881 11.493
14.2033 11.590
14.2185 11.532
14.2337 11.596
14.2488 11.505
14.2640 11.763
14.2792 11.741
14.2944 11.837
14.3095 12.034
14.3247 11.890
14.3399 12.114
14.3551 12.490
14.3702 12.643
14.3854 13.272
14.4006 13.186
14.4158 13.689
14.4309 13.524
14.4461 13.041
14.4613 12.945
14.4765 12.622
14.4916 12.765
14.5068 12.218
14.5220 11.929
14.5372 11.876
14.5523 11.219
14.5675 11.125
14.5827 10.987
14.5979 10.926
14.6130 10.907
14.6282 11.100
14.6434 10.743
14.6586 10.837
14.6737 10.636
14.6889 10.418
14.7041 10.899
14.7193 10.570
14.7344 10.454
14.7496 10.577
14.7648 10.537
14.7800 10.603
14.7951 10.583
14.8103 10.873
14.8255 10.558
14.8407 10.671
14.8558 10.273
14.8710 10.300
14.8862 10.157
14.9014 10.520
14.9165 10.829
14.9317 10.566
14.9469 10.404
14.9621 10.449
14.9772 10.342
14.9924 10.192
15.0076 10.878
15.0228 10.517
15.0379 10.222
15.0531 10.387
15.0683 10.235
15.0835 10.121
15.0986 10.148
15.1138 10.196
15.1290 10.212
15.1442 10.303
15.1593 10.091
15.1745 10.290
15.1897 9.740
15.2049 9.760
15.2200 10.327
15.2352 10.173
15.2504 10.273
15.2656 10.390
15.2807 9.934
15.2959 10.003
15.3111 10.334
15.3263 10.483
15.3414 9.790
15.3566 10.441
15.3718 10.174
15.3870 10.523
15.4021 10.379
15.4173 10.359
15.4325 10.291
15.4477 10.047
15.4628 10.227
15.4780 10.123
15.4932 10.032
15.5084 9.897
15.5235 9.943
15.5387 9.992
15.5539 9.865
15.5691 9.753
15.5842 9.711
15.5994 9.866
15.6146 9.895
15.6298 9.378
15.6449 9.727
15.6601 9.872
15.6753 9.769
15.6905 9.932
15.7056 9.849
15.7208 9.675
15.7360 9.592
15.7512 9.901
15.7663 9.582
15.7815 9.872
15.7967 9.624
15.8119 9.398
15.8270 9.587
15.8422 9.725
15.8574 9.599
15.8726 9.675
15.8877 9.609
15.9029 9.482
15.9181 9.746
15.9333 9.430
15.9484 9.448
15.9636 9.732
15.9788 9.745
15.9940 9.686
16.0091 9.243
16.0243 9.385
16.0395 9.621
16.0547 9.679
16.0698 9.504
16.0850 9.641
16.1002 9.566
16.1154 9.575
16.1305 9.533
16.1457 9.492
16.1609 9.506
16.1761 9.526
16.1912 9.686
16.2064 10.106
16.2216 10.264
16.2368 9.836
16.2519 9.775
16.2671 9.799
16.2823 9.869
16.2975 9.902
16.3126 9.972
16.3278 9.802
16.3430 9.904
16.3582 9.651
16.3733 9.758
16.3885 9.899
16.4037 9.851
16.4189 9.616
16.4340 9.548
16.4492 9.568
16.4644 9.613
16.4796 9.656
16.4947 9.386
16.5099 9.264
16.5251 9.440
16.5403 9.350
16.5554 9.226
16.5706 9.481
16.5858 9.635
16.6010 9.552
16.6161 9.707
16.6313 9.873
16.6465 9.758
16.6617 9.780
16.6768 9.707
16.6920 9.902
16.7072 9.968
16.7224 9.920
16.7375 9.828
16.7527 9.678
16.7679 9.514
16.7831 9.635
16.7982 9.835
16.8134 9.887
16.8286 9.846
16.8438 9.875
16.8589 9.803
16.8741 9.772
16.8893 9.899
16.9045 9.785
16.9196 9.666
16.9348 9.740
16.9500 9.706
16.9652 9.665
16.9803 9.784
16.9955 9.703
17.0107 9.816
17.0259 10.096
17.0410 10.048
17.0562 10.090
17.0714 10.149
17.0866 10.226
17.1017 10.160
17.1169 10.204
17.1321 10.654
17.1473 11.248
17.1624 11.511
17.1776 11.828
17.1928 12.912
17.2080 13.995
17.2231 14.804
17.2383 15.979
17.2535 17.392
17.2687 18.398
17.2838 18.685
17.2990 18.019
17.3142 16.679
17.3294 15.837
17.3445 15.893
17.3597 16.032
17.3749 15.741
17.3901 15.020
17.4052 14.010
17.4204 12.988
17.4356 12.072
17.4508 11.717
17.4659 11.576
17.4811 11.231
17.4963 11.114
17.5115 11.111
17.5266 10.909
17.5418 10.832
17.5570 11.043
17.5722 11.010
17.5873 11.033
17.6025 11.084
17.6177 10.987
17.6329 11.037
17.6480 11.109
17.6632 11.376
17.6784 11.732
17.6936 11.920
17.7087 12.059
17.7239 11.950
17.7391 11.553
17.7543 11.329
17.7694 11.328
17.7846 11.231
17.7998 11.419
17.8150 11.496
17.8301 11.014
17.8453 10.501
17.8605 10.365
17.8757 10.661
17.8908 10.556
17.9060 10.339
17.9212 10.382
17.9364 10.242
17.9515 10.210
17.9667 10.288
17.9819 10.134
17.9971 9.935
18.0122 10.071
18.0274 10.099
18.0426 10.188
18.0578 10.136
18.0729 10.090
18.0881 10.054
18.1033 9.905
18.1185 9.978
18.1336 10.071
18.1488 10.107
18.1640 9.916
18.1792 9.950
18.1943 10.133
18.2095 10.074
18.2247 9.951
18.2399 10.002
18.2550 9.829
18.2702 9.677
18.2854 9.850
18.3006 9.882
18.3157 9.966
18.3309 10.121
18.3461 9.840
18.3613 9.585
18.3764 9.733
18.3916 9.828
18.4068 9.925
18.4220 9.906
18.4371 9.762
18.4523 9.667
18.4675 9.726
18.4827 9.840
18.4978 9.872
18.5130 9.959
18.5282 9.964
18.5434 9.740
18.5585 9.592
18.5737 9.662
18.5889 9.469
18.6041 9.449
18.6192 9.619
18.6344 9.719
18.6496 9.728
18.6648 9.959
18.6799 10.002
18.6951 9.847
18.7103 9.793
18.7255 9.844
18.7406 9.884
18.7558 9.756
18.7710 9.748
18.7862 9.655
18.8013 9.444
18.8165 9.566
18.8317 9.854
18.8469 9.988
18.8620 9.942
18.8772 9.640
18.8924 9.537
18.9076 9.566
18.9227 9.910
18.9379 10.092
18.9531 10.249
18.9683 10.038
18.9834 9.837
18.9986 10.137
19.0138 10.150
19.0290 10.098
19.0441 10.060
19.0593 10.116
19.0745 10.239
19.0897 10.287
19.1048 10.319
19.1200 10.450
19.1352 10.314
19.1504 10.471
19.1655 10.459
19.1807 10.504
19.1959 10.557
19.2111 10.517
19.2262 10.535
19.2414 10.643
19.2566 10.782
19.2718 10.584
19.2869 10.925
19.3021 10.880
19.3173 10.584
19.3325 10.754
19.3476 11.002
19.3628 10.989
19.3780 11.107
19.3932 10.949
19.4083 10.894
19.4235 10.974
19.4387 11.041
19.4539 11.156
19.4690 11.271
19.4842 11.398
19.4994 11.369
19.5146 11.381
19.5297 11.437
19.5449 11.291
19.5601 11.448
19.5753 11.609
19.5904 11.475
19.6056 11.252
19.6208 11.435
19.6360 11.626
19.6511 11.808
19.6663 11.859
19.6815 11.680
19.6967 11.655
19.7118 11.613
19.7270 11.525
19.7422 11.464
19.7574 11.772
19.7725 11.987
19.7877 11.939
19.8029 12.028
19.8180 12.212
19.8332 12.203
19.8484 12.086
19.8636 12.108
19.8787 12.430
19.8939 12.825
19.9091 13.245
19.9243 13.507
19.9394 13.584
19.9546 13.740
19.9698 14.265
19.9850 14.465
20.0001 14.208
20.0153 13.906
20.0305 13.857
20.0457 13.623
20.0608 13.559
20.0760 13.644
20.0912 13.817
20.1064 13.703
20.1215 13.539
20.1367 13.386
20.1519 12.952
20.1671 12.612
20.1822 12.909
20.1974 12.826
20.2126 12.656
20.2278 12.703
20.2429 12.620
20.2581 12.251
20.2733 12.098
20.2885 12.012
20.3036 11.779
20.3188 12.065
20.3340 12.243
20.3492 12.120
20.3643 12.169
20.3795 12.001
20.3947 11.859
20.4099 11.807
20.4250 11.609
20.4402 11.893
20.4554 12.114
20.4706 11.924
20.4857 11.865
20.5009 12.156
20.5161 11.962
20.5313 11.733
20.5464 11.352
20.5616 11.424
20.5768 11.367
20.5920 11.479
20.6071 11.298
20.6223 11.215
20.6375 10.949
20.6527 11.037
20.6678 10.762
20.6830 10.703
20.6982 10.798
20.7134 10.481
20.7285 10.218
20.7437 10.347
20.7589 10.552
20.7741 10.240
20.7892 10.491
20.8044 10.194
20.8196 10.285
20.8348 10.274
20.8499 10.097
20.8651 10.169
20.8803 9.963
20.8955 10.069
20.9106 10.005
20.9258 9.936
20.9410 10.435
20.9562 10.208
20.9713 9.833
20.9865 10.021
21.0017 10.196
21.0169 10.094
21.0320 10.046
21.0472 9.868
21.0624 9.987
21.0776 10.267
21.0927 9.687
21.1079 9.963
21.1231 10.299
21.1383 9.628
21.1534 9.646
21.1686 9.857
21.1838 9.785
21.1990 9.731
21.2141 9.329
21.2293 9.664
21.2445 9.713
21.2597 9.778
21.2748 9.617
21.2900 9.506
21.3052 9.611
21.3204 9.319
21.3355 9.417
21.3507 9.486
21.3659 9.371
21.3811 9.483
21.3962 9.291
21.4114 9.516
21.4266 9.859
21.4418 9.496
21.4569 9.498
21.4721 9.428
21.4873 9.389
21.5025 9.369
21.5176 9.395
21.5328 9.064
21.5480 9.200
21.5632 9.639
21.5783 9.248
21.5935 9.296
21.6087 9.264
21.6239 9.162
21.6390 9.130
21.6542 9.256
21.6694 9.290
21.6846 8.904
21.6997 9.216
21.7149 9.308
21.7301 8.981
21.7453 8.989
21.7604 8.906
21.7756 8.972
21.7908 8.911
21.8060 9.078
21.8211 9.144
21.8363 9.081
21.8515 9.143
21.8667 9.131
21.8818 9.202
21.8970 9.068
21.9122 8.991
21.9274 8.845
21.9425 8.799
21.9577 8.679
21.9729 8.676
21.9881 8.796
22.0032 8.938
22.0184 8.826
22.0336 8.603
22.0488 8.547
22.0639 8.468
22.0791 8.715
22.0943 8.749
22.1095 8.571
22.1246 8.612
22.1398 8.574
22.1550 8.524
22.1702 8.334
22.1853 8.652
22.2005 8.691
22.2157 8.638
22.2309 8.592
22.2460 8.633
22.2612 8.447
22.2764 8.306
22.2916 8.559
22.3067 8.708
22.3219 8.649
22.3371 8.404
22.3523 8.448
22.3674 8.364
22.3826 8.468
22.3978 8.390
22.4130 8.729
22.4281 8.411
22.4433 8.201
22.4585 8.308
22.4737 8.453
22.4888 8.163
22.5040 8.394
22.5192 8.114
22.5344 8.384
22.5495 8.260
22.5647 8.327
22.5799 8.389
22.5951 8.394
22.6102 8.376
22.6254 8.235
22.6406 8.261
22.6558 8.297
22.6709 8.587
22.6861 8.187
22.7013 8.173
22.7165 7.944
22.7316 6.377
