'Id: "" Comment: "" Operator: "Lab Manager" Anode: "Mo" Scantype: "Still (Eiger2R_500K (1D mode))" TimePerStep: "300" X: "11.8" Y: "9.4" Z: "11.284" 
7.2532 19.110
7.2684 18.931
7.2836 18.881
7.2987 18.315
7.3139 18.879
7.3291 19.047
7.3443 19.128
7.3594 18.729
7.3746 18.598
7.3898 19.203
7.4050 19.269
7.4201 19.409
7.4353 19.058
7.4505 19.229
7.4657 19.230
7.4808 19.609
7.4960 19.424
7.5112 19.240
7.5264 19.778
7.5415 19.482
7.5567 19.153
7.5719 19.487
7.5871 19.754
7.6022 19.696
7.6174 19.914
7.6326 19.898
7.6478 19.979
7.6629 20.105
7.6781 19.883
7.6933 19.964
7.7085 20.276
7.7236 20.268
7.7388 20.328
7.7540 20.256
7.7692 20.391
7.7843 20.437
7.7995 20.527
7.8147 20.558
7.8299 20.666
7.8450 20.535
7.8602 20.671
7.8754 20.557
7.8905 20.705
7.9057 20.924
7.9209 20.438
7.9361 20.798
7.9512 20.938
7.9664 20.578
7.9816 20.507
7.9968 20.650
8.0119 20.878
8.0271 20.898
8.0423 20.782
8.0575 20.888
8.0726 20.794
8.0878 20.953
8.1030 21.002
8.1182 21.204
8.1333 20.969
8.1485 21.208
8.1637 21.377
8.1789 21.449
8.1940 20.995
8.2092 21.750
8.2244 21.434
8.2396 21.541
8.2547 20.934
8.2699 21.364
8.2851 21.391
8.3003 21.283
8.3154 21.603
8.3306 21.304
8.3458 21.405
8.3610 21.267
8.3761 21.262
8.3913 21.416
8.4065 21.434
8.4217 22.092
8.4368 21.705
8.4520 21.911
8.4672 21.487
8.4824 21.576
8.4975 21.485
8.5127 21.732
8.5279 21.802
8.5431 21.882
8.5582 21.864
8.5734 21.929
8.5886 22.059
8.6038 22.110
8.6189 21.919
8.6341 21.880
8.6493 22.253
8.6645 22.351
8.6796 22.273
8.6948 22.249
8.7100 22.197
8.7252 21.878
8.7403 21.928
8.7555 22.321
8.7707 21.894
8.7859 22.017
8.8010 22.297
8.8162 22.268
8.8314 22.297
8.8466 21.976
8.8617 22.234
8.8769 22.077
8.8921 22.324
8.9073 22.065
8.9224 22.259
8.9376 22.415
8.9528 22.724
8.9680 22.106
8.9831 22.792
8.9983 22.494
9.0135 22.415
9.0287 22.471
9.0438 22.220
9.0590 22.383
9.0742 22.919
9.0894 22.802
9.1045 22.500
9.1197 22.667
9.1349 22.445
9.1501 22.105
9.1652 22.382
9.1804 22.790
9.1956 22.811
9.2108 22.596
9.2259 22.584
9.2411 22.550
9.2563 22.707
9.2715 22.681
9.2866 22.465
9.3018 22.869
9.3170 22.626
9.3322 22.861
9.3473 22.938
9.3625 22.764
9.3777 22.701
9.3929 22.774
9.4080 22.843
9.4232 22.943
9.4384 22.945
9.4536 23.104
9.4687 23.213
9.4839 22.968
9.4991 22.577
9.5143 22.824
9.5294 23.075
9.5446 22.981
9.5598 22.762
9.5750 22.711
9.5901 22.916
9.6053 23.049
9.6205 23.016
9.6357 23.039
9.6508 23.351
9.6660 23.174
9.6812 23.024
9.6964 23.288
9.7115 23.604
9.7267 23.861
9.7419 23.990
9.7571 23.853
9.7722 23.470
9.7874 23.347
9.8026 23.438
9.8178 23.423
9.8329 23.344
9.8481 23.021
9.8633 23.195
9.8785 23.594
9.8936 23.392
9.9088 23.182
9.9240 22.977
9.9392 22.716
9.9543 22.906
9.9695 23.035
9.9847 22.992
9.9999 22.850
10.0150 22.919
10.0302 22.900
10.0454 22.700
10.0606 22.867
10.0757 22.932
10.0909 23.154
10.1061 23.586
10.1213 23.307
10.1364 23.087
10.1516 23.068
10.1668 23.022
10.1820 23.237
10.1971 23.115
10.2123 22.758
10.2275 22.790
10.2427 22.812
10.2578 23.210
10.2730 23.221
10.2882 22.725
10.3034 22.627
10.3185 22.877
10.3337 22.632
10.3489 22.461
10.3641 22.585
10.3792 22.310
10.3944 22.495
10.4096 22.698
10.4248 22.765
10.4399 22.346
10.4551 22.350
10.4703 22.574
10.4855 22.421
10.5006 22.253
10.5158 22.386
10.5310 22.348
10.5462 22.380
10.5613 22.332
10.5765 22.460
10.5917 22.307
10.6069 22.373
10.6220 22.359
10.6372 22.579
10.6524 22.601
10.6676 22.334
10.6827 22.483
10.6979 22.416
10.7131 22.910
10.7283 22.833
10.7434 22.402
10.7586 22.275
10.7738 21.855
10.7890 21.716
10.8041 22.062
10.8193 21.908
10.8345 21.728
10.8497 22.131
10.8648 22.445
10.8800 21.934
10.8952 21.850
10.9104 21.702
10.9255 21.812
10.9407 21.997
10.9559 22.030
10.9711 21.772
10.9862 21.747
11.0014 21.782
11.0166 21.782
11.0318 21.859
11.0469 21.468
11.0621 21.777
11.0773 21.779
11.0925 21.504
11.1076 21.937
11.1228 21.615
11.1380 21.705
11.1532 21.682
11.1683 21.379
11.1835 21.527
11.1987 21.738
11.2139 21.614
11.2290 21.185
11.2442 21.178
11.2594 21.411
11.2746 21.332
11.2897 21.746
11.3049 21.466
11.3201 21.167
11.3353 21.249
11.3504 21.273
11.3656 21.201
11.3808 21.040
11.3960 21.340
11.4111 21.457
11.4263 21.273
11.4415 21.077
11.4567 21.007
11.4718 20.818
11.4870 21.239
11.5022 21.102
11.5174 20.941
11.5325 20.726
11.5477 20.948
11.5629 20.552
11.5781 20.595
11.5932 20.646
11.6084 20.764
11.6236 20.522
11.6388 20.723
11.6539 20.520
11.6691 20.469
11.6843 20.369
11.6995 20.220
11.7146 20.327
11.7298 20.246
11.7450 20.290
11.7602 20.412
11.7753 19.902
11.7905 19.705
11.8057 20.085
11.8209 19.718
11.8360 19.668
11.8512 19.787
11.8664 19.680
11.8816 19.653
11.8967 19.280
11.9119 19.399
11.9271 19.450
11.9423 19.334
11.9574 18.961
11.9726 18.681
11.9878 19.200
12.0030 19.215
12.0181 18.790
12.0333 18.823
12.0485 18.818
12.0637 18.500
12.0788 18.422
12.0940 18.533
12.1092 18.937
12.1244 18.638
12.1395 18.301
12.1547 18.186
12.1699 18.126
12.1851 18.294
12.2002 18.113
12.2154 18.144
12.2306 18.027
12.2458 17.891
12.2609 17.838
12.2761 17.816
12.2913 17.231
12.3065 17.271
12.3216 17.584
12.3368 17.708
12.3520 17.533
12.3672 17.433
12.3823 17.120
12.3975 17.013
12.4127 17.053
12.4279 17.074
12.4430 16.928
12.4582 16.842
12.4734 16.759
12.4886 16.569
12.5037 16.466
12.5189 16.526
12.5341 16.268
12.5493 15.911
12.5644 15.775
12.5796 16.017
12.5948 15.935
12.6100 15.948
12.6251 16.137
12.6403 15.972
12.6555 15.740
12.6707 15.585
12.6858 15.771
12.7010 15.898
12.7162 15.682
12.7314 15.424
12.7465 15.113
12.7617 15.166
12.7769 15.328
12.7921 15.250
12.8072 14.803
12.8224 14.772
12.8376 14.997
12.8528 15.159
12.8679 14.734
12.8831 14.531
12.8983 14.841
12.9135 14.598
12.9286 14.539
12.9438 14.439
12.9590 14.420
12.9742 14.595
12.9893 14.419
13.0045 14.281
13.0197 14.312
13.0349 14.181
13.0500 13.952
13.0652 13.693
13.0804 13.755
13.0956 13.866
13.1107 13.663
13.1259 13.478
13.1411 13.691
13.1563 13.927
13.1714 13.722
13.1866 13.494
13.2018 13.642
13.2170 13.557
13.2321 13.111
13.2473 13.158
13.2625 13.122
13.2777 12.904
13.2928 12.968
13.3080 13.088
13.3232 12.967
13.3384 12.967
13.3535 13.022
13.3687 12.964
13.3839 13.125
13.3991 12.886
13.4142 12.648
13.4294 12.722
13.4446 12.872
13.4598 12.744
13.4749 12.373
13.4901 12.562
13.5053 12.805
13.5205 12.712
13.5356 12.472
13.5508 12.198
13.5660 12.327
13.5812 12.474
13.5963 12.329
13.6115 12.353
13.6267 12.259
13.6419 12.092
13.6570 12.056
13.6722 12.335
13.6874 12.008
13.7026 11.793
13.7177 11.789
13.7329 11.840
13.7481 11.756
13.7633 11.739
13.7784 11.903
13.7936 11.970
13.8088 12.069
13.8239 12.012
13.8391 11.740
13.8543 12.037
13.8695 12.047
13.8846 11.893
13.8998 11.921
13.9150 11.822
13.9302 11.759
13.9453 11.657
13.9605 11.893
13.9757 11.848
13.9909 11.579
14.0060 11.424
14.0212 11.478
14.0364 11.454
14.0516 11.335
14.0667 11.236
14.0819 11.367
14.0971 11.091
14.1123 11.115
14.1274 11.258
14.1426 11.334
14.1578 11.367
14.1730 11.267
14.1881 11.488
14.2033 11.307
14.2185 11.458
14.2337 11.782
14.2488 11.521
14.2640 11.668
14.2792 11.493
14.2944 11.407
14.3095 11.724
14.3247 11.984
14.3399 12.068
14.3551 12.538
14.3702 12.680
14.3854 12.673
14.4006 13.153
14.4158 13.349
14.4309 13.307
14.4461 12.935
14.4613 12.812
14.4765 12.424
14.4916 12.871
14.5068 12.315
14.5220 12.290
14.5372 12.178
14.5523 11.680
14.5675 11.399
14.5827 11.286
14.5979 11.072
14.6130 11.068
14.6282 11.090
14.6434 11.047
14.6586 11.265
14.6737 10.692
14.6889 10.799
14.7041 11.008
14.7193 10.791
14.7344 10.844
14.7496 10.783
14.7648 10.446
14.7800 10.463
14.7951 10.551
14.8103 10.356
14.8255 10.306
14.8407 10.489
14.8558 10.589
14.8710 10.568
14.8862 10.701
14.9014 10.635
14.9165 10.580
14.9317 10.630
14.9469 10.369
14.9621 10.476
14.9772 10.288
14.9924 10.659
15.0076 10.453
15.0228 10.537
15.0379 10.476
15.0531 10.472
15.0683 9.872
15.0835 10.146
15.0986 9.930
15.1138 10.171
15.1290 10.454
15.1442 9.987
15.1593 10.178
15.1745 10.381
15.1897 10.019
15.2049 10.005
15.2200 10.062
15.2352 9.957
15.2504 10.210
15.2656 10.439
15.2807 10.215
15.2959 9.980
15.3111 10.495
15.3263 10.164
15.3414 10.148
15.3566 10.059
15.3718 9.897
15.3870 10.093
15.4021 10.252
15.4173 10.388
15.4325 10.265
15.4477 10.024
15.4628 10.390
15.4780 10.100
15.4932 9.762
15.5084 10.002
15.5235 10.092
15.5387 10.075
15.5539 9.795
15.5691 9.831
15.5842 9.768
15.5994 10.113
15.6146 9.875
15.6298 9.641
15.6449 9.746
15.6601 9.972
15.6753 9.878
15.6905 9.888
15.7056 9.550
15.7208 9.611
15.7360 9.874
15.7512 9.690
15.7663 9.708
15.7815 9.627
15.7967 9.543
15.8119 9.791
15.8270 9.719
15.8422 9.877
15.8574 9.727
15.8726 9.802
15.8877 9.306
15.9029 9.385
15.9181 9.615
15.9333 9.916
15.9484 9.698
15.9636 9.612
15.9788 9.803
15.9940 9.787
16.0091 9.645
16.0243 9.557
16.0395 9.471
16.0547 9.337
16.0698 9.486
16.0850 9.312
16.1002 9.790
16.1154 9.643
16.1305 9.499
16.1457 9.695
16.1609 9.581
16.1761 9.507
16.1912 9.510
16.2064 9.519
16.2216 9.750
16.2368 9.809
16.2519 9.577
16.2671 9.755
16.2823 9.846
16.2975 9.484
16.3126 9.702
16.3278 9.731
16.3430 9.736
16.3582 9.834
16.3733 9.835
16.3885 9.966
16.4037 9.824
16.4189 9.809
16.4340 9.761
16.4492 9.912
16.4644 9.906
16.4796 9.667
16.4947 9.741
16.5099 9.788
16.5251 9.704
16.5403 9.587
16.5554 9.452
16.5706 9.684
16.5858 9.669
16.6010 9.647
16.6161 9.705
16.6313 9.537
16.6465 9.563
16.6617 9.679
16.6768 9.809
16.6920 9.740
16.7072 9.872
16.7224 9.852
16.7375 9.766
16.7527 9.911
16.7679 9.914
16.7831 9.705
16.7982 9.688
16.8134 9.919
16.8286 9.908
16.8438 9.571
16.8589 9.574
16.8741 9.716
16.8893 9.690
16.9045 9.714
16.9196 9.667
16.9348 9.887
16.9500 9.997
16.9652 9.749
16.9803 9.798
16.9955 9.934
17.0107 9.714
17.0259 9.687
17.0410 9.721
17.0562 9.907
17.0714 10.146
17.0866 10.149
17.1017 10.270
17.1169 10.463
17.1321 10.712
17.1473 10.972
17.1624 11.520
17.1776 12.374
17.1928 12.704
17.2080 13.440
17.2231 14.889
17.2383 15.892
17.2535 17.061
17.2687 18.373
17.2838 18.512
17.2990 17.789
17.3142 16.912
17.3294 16.213
17.3445 15.970
17.3597 15.690
17.3749 15.406
17.3901 14.854
17.4052 13.839
17.4204 12.942
17.4356 12.306
17.4508 11.807
17.4659 11.325
17.4811 11.072
17.4963 11.219
17.5115 10.864
17.5266 10.246
17.5418 10.351
17.5570 10.273
17.5722 10.409
17.5873 10.907
17.6025 10.858
17.6177 10.628
17.6329 10.620
17.6480 10.802
17.6632 11.083
17.6784 11.348
17.6936 11.537
17.7087 11.731
17.7239 11.674
17.7391 11.406
17.7543 11.208
17.7694 11.214
17.7846 11.246
17.7998 11.355
17.8150 11.349
17.8301 11.053
17.8453 10.792
17.8605 10.578
17.8757 10.459
17.8908 10.531
17.9060 10.647
17.9212 10.451
17.9364 10.318
17.9515 10.107
17.9667 10.237
17.9819 10.537
17.9971 10.296
18.0122 9.963
18.0274 10.015
18.0426 9.910
18.0578 9.985
18.0729 10.078
18.0881 10.105
18.1033 10.117
18.1185 10.064
18.1336 9.981
18.1488 10.039
18.1640 10.061
18.1792 9.849
18.1943 9.735
18.2095 9.919
18.2247 9.936
18.2399 9.733
18.2550 9.695
18.2702 9.986
18.2854 9.908
18.3006 9.826
18.3157 9.928
18.3309 9.883
18.3461 9.894
18.3613 9.679
18.3764 9.535
18.3916 9.611
18.4068 9.742
18.4220 9.621
18.4371 9.525
18.4523 9.737
18.4675 9.766
18.4827 9.626
18.4978 9.654
18.5130 9.680
18.5282 9.745
18.5434 9.693
18.5585 9.544
18.5737 9.614
18.5889 9.605
18.6041 9.655
18.6192 9.729
18.6344 9.630
18.6496 9.565
18.6648 9.589
18.6799 9.568
18.6951 9.721
18.7103 9.731
18.7255 9.679
18.7406 9.833
18.7558 9.874
18.7710 9.711
18.7862 9.626
18.8013 9.573
18.8165 9.452
18.8317 9.513
18.8469 9.906
18.8620 10.013
18.8772 10.009
18.8924 9.951
18.9076 9.941
18.9227 10.177
18.9379 10.101
18.9531 9.933
18.9683 9.825
18.9834 10.046
18.9986 10.102
19.0138 10.098
19.0290 10.080
19.0441 9.783
19.0593 9.786
19.0745 10.146
19.0897 10.233
19.1048 10.066
19.1200 10.069
19.1352 10.139
19.1504 10.138
19.1655 10.277
19.1807 10.516
19.1959 10.595
19.2111 10.577
19.2262 10.668
19.2414 10.826
19.2566 10.902
19.2718 10.747
19.2869 10.799
19.3021 10.879
19.3173 10.839
19.3325 10.738
19.3476 10.867
19.3628 11.050
19.3780 10.978
19.3932 11.128
19.4083 11.218
19.4235 11.202
19.4387 11.073
19.4539 10.989
19.4690 11.351
19.4842 11.334
19.4994 11.011
19.5146 11.316
19.5297 11.559
19.5449 11.362
19.5601 11.352
19.5753 11.610
19.5904 11.681
19.6056 11.489
19.6208 11.464
19.6360 11.517
19.6511 11.584
19.6663 11.358
19.6815 11.452
19.6967 11.567
19.7118 11.535
19.7270 11.486
19.7422 11.197
19.7574 11.431
19.7725 11.810
19.7877 11.937
19.8029 12.089
19.8180 11.954
19.8332 11.881
19.8484 12.190
19.8636 12.321
19.8787 12.346
19.8939 12.661
19.9091 12.923
19.9243 13.159
19.9394 13.520
19.9546 13.757
19.9698 13.911
19.9850 14.200
20.0001 14.214
20.0153 14.082
20.0305 13.809
20.0457 13.853
20.0608 13.810
20.0760 13.414
20.0912 13.650
20.1064 13.625
20.1215 13.292
20.1367 13.016
20.1519 12.932
20.1671 12.782
20.1822 12.786
20.1974 12.599
20.2126 12.522
20.2278 12.423
20.2429 12.375
20.2581 12.287
20.2733 11.950
20.2885 11.746
20.3036 11.725
20.3188 11.724
20.3340 11.666
20.3492 11.335
20.3643 11.537
20.3795 11.483
20.3947 11.390
20.4099 11.377
20.4250 11.539
20.4402 11.523
20.4554 11.715
20.4706 11.877
20.4857 11.869
20.5009 11.726
20.5161 11.517
20.5313 11.467
20.5464 11.418
20.5616 11.289
20.5768 11.172
20.5920 10.849
20.6071 11.231
20.6223 11.191
20.6375 10.822
20.6527 10.629
20.6678 10.748
20.6830 10.717
20.6982 10.605
20.7134 10.511
20.7285 10.544
20.7437 10.485
20.7589 10.447
20.7741 10.146
20.7892 10.520
20.8044 10.755
20.8196 10.274
20.8348 10.244
20.8499 10.044
20.8651 10.033
20.8803 10.058
20.8955 10.084
20.9106 10.162
20.9258 10.389
20.9410 9.907
20.9562 9.860
20.9713 9.837
20.9865 10.056
21.0017 9.964
21.0169 10.080
21.0320 10.066
21.0472 10.343
21.0624 9.916
21.0776 9.795
21.0927 9.666
21.1079 9.704
21.1231 9.927
21.1383 9.751
21.1534 9.598
21.1686 9.636
21.1838 9.684
21.1990 9.903
21.2141 9.722
21.2293 9.927
21.2445 9.682
21.2597 9.659
21.2748 9.298
21.2900 9.487
21.3052 9.373
21.3204 9.625
21.3355 9.521
21.3507 9.395
21.3659 9.725
21.3811 9.668
21.3962 9.792
21.4114 9.408
21.4266 9.452
21.4418 9.429
21.4569 9.208
21.4721 9.332
21.4873 9.231
21.5025 9.256
21.5176 9.644
21.5328 9.238
21.5480 9.253
21.5632 9.013
21.5783 9.041
21.5935 9.071
21.6087 9.507
21.6239 9.435
21.6390 9.259
21.6542 9.127
21.6694 8.928
21.6846 8.987
21.6997 9.194
21.7149 9.122
21.7301 9.190
21.7453 9.018
21.7604 8.947
21.7756 9.066
21.7908 8.906
21.8060 9.060
21.8211 9.194
21.8363 8.995
21.8515 8.854
21.8667 8.981
21.8818 9.146
21.8970 9.081
21.9122 8.780
21.9274 8.822
21.9425 9.026
21.9577 8.924
21.9729 8.797
21.9881 8.772
22.0032 8.619
22.0184 8.548
22.0336 8.638
22.0488 8.681
22.0639 8.604
22.0791 8.662
22.0943 8.743
22.1095 8.631
22.1246 8.827
22.1398 8.806
22.1550 8.495
22.1702 8.527
22.1853 8.744
22.2005 8.792
22.2157 8.523
22.2309 8.355
22.2460 8.232
22.2612 8.469
22.2764 8.600
22.2916 8.488
22.3067 8.273
22.3219 8.224
22.3371 8.376
22.3523 8.327
22.3674 8.348
22.3826 8.445
22.3978 8.420
22.4130 8.213
22.4281 8.334
22.4433 8.197
22.4585 8.473
22.4737 8.327
22.4888 8.427
22.5040 8.740
22.5192 8.237
22.5344 8.189
22.5495 8.170
22.5647 8.307
22.5799 8.409
22.5951 8.073
22.6102 8.264
22.6254 8.381
22.6406 8.417
22.6558 8.127
22.6709 8.253
22.6861 8.415
22.7013 8.265
22.7165 7.933
22.7316 6.395
