'Id: "" Comment: "" Operator: "Lab Manager" Anode: "Mo" Scantype: "Still (Eiger2R_500K (1D mode))" TimePerStep: "300" X: "11.8" Y: "9.4" Z: "11.284" 
7.2532 18.951
7.2684 18.971
7.2836 18.842
7.2987 18.722
7.3139 18.555
7.3291 19.237
7.3443 18.915
7.3594 19.226
7.3746 18.915
7.3898 19.072
7.4050 18.784
7.4201 18.907
7.4353 19.278
7.4505 19.068
7.4657 19.351
7.4808 19.304
7.4960 19.265
7.5112 19.425
7.5264 19.974
7.5415 19.868
7.5567 19.760
7.5719 19.921
7.5871 19.844
7.6022 19.889
7.6174 19.788
7.6326 19.498
7.6478 19.737
7.6629 20.170
7.6781 20.138
7.6933 19.935
7.7085 19.872
7.7236 20.177
7.7388 20.300
7.7540 20.328
7.7692 20.634
7.7843 20.874
7.7995 20.538
7.8147 20.417
7.8299 20.705
7.8450 20.506
7.8602 20.271
7.8754 20.402
7.8905 20.485
7.9057 20.357
7.9209 20.615
7.9361 20.904
7.9512 20.728
7.9664 20.523
7.9816 20.441
7.9968 20.712
8.0119 20.900
8.0271 21.219
8.0423 21.045
8.0575 21.024
8.0726 20.935
8.0878 20.907
8.1030 20.993
8.1182 21.123
8.1333 21.078
8.1485 21.202
8.1637 21.209
8.1789 21.396
8.1940 21.495
8.2092 21.353
8.2244 21.207
8.2396 21.068
8.2547 21.337
8.2699 21.403
8.2851 21.131
8.3003 21.758
8.3154 21.568
8.3306 21.430
8.3458 21.461
8.3610 21.263
8.3761 21.394
8.3913 21.447
8.4065 21.788
8.4217 21.585
8.4368 21.751
8.4520 21.432
8.4672 21.892
8.4824 21.890
8.4975 22.301
8.5127 21.796
8.5279 21.648
8.5431 22.046
8.5582 21.477
8.5734 22.108
8.5886 22.191
8.6038 21.506
8.6189 21.589
8.6341 22.158
8.6493 22.031
8.6645 21.743
8.6796 22.284
8.6948 22.140
8.7100 22.115
8.7252 22.504
8.7403 22.130
8.7555 22.130
8.7707 22.302
8.7859 21.905
8.8010 22.043
8.8162 21.979
8.8314 21.873
8.8466 22.445
8.8617 22.403
8.8769 22.300
8.8921 22.185
8.9073 22.101
8.9224 22.072
8.9376 22.562
8.9528 22.505
8.9680 22.419
8.9831 22.404
8.9983 22.190
9.0135 22.521
9.0287 22.359
9.0438 22.263
9.0590 22.386
9.0742 22.208
9.0894 22.171
9.1045 22.231
9.1197 22.499
9.1349 22.435
9.1501 22.688
9.1652 22.638
9.1804 22.442
9.1956 22.477
9.2108 22.555
9.2259 22.721
9.2411 22.806
9.2563 22.699
9.2715 22.529
9.2866 22.514
9.3018 22.657
9.3170 22.681
9.3322 22.754
9.3473 22.660
9.3625 22.512
9.3777 22.959
9.3929 23.277
9.4080 23.101
9.4232 22.710
9.4384 22.495
9.4536 22.850
9.4687 22.898
9.4839 22.966
9.4991 22.880
9.5143 22.841
9.5294 22.992
9.5446 23.201
9.5598 23.294
9.5750 23.201
9.5901 23.079
9.6053 23.055
9.6205 23.126
9.6357 23.230
9.6508 23.396
9.6660 23.368
9.6812 23.402
9.6964 23.708
9.7115 23.819
9.7267 23.761
9.7419 23.645
9.7571 23.549
9.7722 23.617
9.7874 23.628
9.8026 23.576
9.8178 23.411
9.8329 23.284
9.8481 23.283
9.8633 23.176
9.8785 23.173
9.8936 23.250
9.9088 23.335
9.9240 23.234
9.9392 23.070
9.9543 23.157
9.9695 23.188
9.9847 23.106
9.9999 22.950
10.0150 23.190
10.0302 22.837
10.0454 22.576
10.0606 22.705
10.0757 22.780
10.0909 23.005
10.1061 23.025
10.1213 23.155
10.1364 23.290
10.1516 23.616
10.1668 23.532
10.1820 23.254
10.1971 23.036
10.2123 23.398
10.2275 23.529
10.2427 22.957
10.2578 23.092
10.2730 23.301
10.2882 22.780
10.3034 22.791
10.3185 22.995
10.3337 22.869
10.3489 22.437
10.3641 22.323
10.3792 22.333
10.3944 22.477
10.4096 22.904
10.4248 22.737
10.4399 22.658
10.4551 22.410
10.4703 22.147
10.4855 22.084
10.5006 22.547
10.5158 22.715
10.5310 22.651
10.5462 22.547
10.5613 22.372
10.5765 22.259
10.5917 22.112
10.6069 22.501
10.6220 22.503
10.6372 22.380
10.6524 22.347
10.6676 22.266
10.6827 22.162
10.6979 22.155
10.7131 21.868
10.7283 22.012
10.7434 22.168
10.7586 22.296
10.7738 22.173
10.7890 22.184
10.8041 22.446
10.8193 21.893
10.8345 21.740
10.8497 21.891
10.8648 22.280
10.8800 22.165
10.8952 22.029
10.9104 21.893
10.9255 21.913
10.9407 22.194
10.9559 21.992
10.9711 21.490
10.9862 21.937
11.0014 21.877
11.0166 22.283
11.0318 22.331
11.0469 22.124
11.0621 21.721
11.0773 21.761
11.0925 21.529
11.1076 21.792
11.1228 21.755
11.1380 21.901
11.1532 22.135
11.1683 22.408
11.1835 21.913
11.1987 21.594
11.2139 21.507
11.2290 21.518
11.2442 21.667
11.2594 21.622
11.2746 21.432
11.2897 21.156
11.3049 21.515
11.3201 21.263
11.3353 21.326
11.3504 21.547
11.3656 21.274
11.3808 21.065
11.3960 21.015
11.4111 20.987
11.4263 21.017
11.4415 20.973
11.4567 21.005
11.4718 21.019
11.4870 20.993
11.5022 21.139
11.5174 20.776
11.5325 20.778
11.5477 21.183
11.5629 21.106
11.5781 20.684
11.5932 20.565
11.6084 20.501
11.6236 20.480
11.6388 20.582
11.6539 20.735
11.6691 20.438
11.6843 20.236
11.6995 20.444
11.7146 20.527
11.7298 20.017
11.7450 20.092
11.7602 20.013
11.7753 19.917
11.7905 20.038
11.8057 20.223
11.8209 20.119
11.8360 19.751
11.8512 19.599
11.8664 19.608
11.8816 19.668
11.8967 19.520
11.9119 19.498
11.9271 19.513
11.9423 19.446
11.9574 19.308
11.9726 19.130
11.9878 19.129
12.0030 18.971
12.0181 18.616
12.0333 18.957
12.0485 19.077
12.0637 18.761
12.0788 18.802
12.0940 18.817
12.1092 18.456
12.1244 18.240
12.1395 18.229
12.1547 18.290
12.1699 18.290
12.1851 18.414
12.2002 18.271
12.2154 17.873
12.2306 17.973
12.2458 18.014
12.2609 17.944
12.2761 17.868
12.2913 17.685
12.3065 17.735
12.3216 17.818
12.3368 17.567
12.3520 17.244
12.3672 17.361
12.3823 17.338
12.3975 17.209
12.4127 17.016
12.4279 17.069
12.4430 16.978
12.4582 16.804
12.4734 16.765
12.4886 16.316
12.5037 16.225
12.5189 16.502
12.5341 16.597
12.5493 16.396
12.5644 16.106
12.5796 16.053
12.5948 16.182
12.6100 15.883
12.6251 15.950
12.6403 15.953
12.6555 15.964
12.6707 15.718
12.6858 15.741
12.7010 15.723
12.7162 15.604
12.7314 15.481
12.7465 15.396
12.7617 15.208
12.7769 15.162
12.7921 15.099
12.8072 15.186
12.8224 15.144
12.8376 15.053
12.8528 14.664
12.8679 14.355
12.8831 14.481
12.8983 14.684
12.9135 14.690
12.9286 14.608
12.9438 14.616
12.9590 14.448
12.9742 14.402
12.9893 14.246
13.0045 14.098
13.0197 13.851
13.0349 13.759
13.0500 14.060
13.0652 14.040
13.0804 13.880
13.0956 13.718
13.1107 13.629
13.1259 13.414
13.1411 13.506
13.1563 13.761
13.1714 13.685
13.1866 13.587
13.2018 13.398
13.2170 13.422
13.2321 13.521
13.2473 13.333
13.2625 13.150
13.2777 13.399
13.2928 13.579
13.3080 13.206
13.3232 12.889
13.3384 12.918
13.3535 13.145
13.3687 13.155
13.3839 12.975
13.3991 13.142
13.4142 13.013
13.4294 12.905
13.4446 13.077
13.4598 12.916
13.4749 12.726
13.4901 12.701
13.5053 12.699
13.5205 12.598
13.5356 12.399
13.5508 12.293
13.5660 12.162
13.5812 12.028
13.5963 12.143
13.6115 12.115
13.6267 12.122
13.6419 11.958
13.6570 11.916
13.6722 11.972
13.6874 12.186
13.7026 12.173
13.7177 12.182
13.7329 12.134
13.7481 12.100
13.7633 11.994
13.7784 11.904
13.7936 12.165
13.8088 12.253
13.8239 12.311
13.8391 12.395
13.8543 12.310
13.8695 12.131
13.8846 12.005
13.8998 12.159
13.9150 12.162
13.9302 11.959
13.9453 12.000
13.9605 11.925
13.9757 11.759
13.9909 11.652
14.0060 11.572
14.0212 11.590
14.0364 11.361
14.0516 11.321
14.0667 11.228
14.0819 11.235
14.0971 11.431
14.1123 11.407
14.1274 11.417
14.1426 11.523
14.1578 11.445
14.1730 11.076
14.1881 11.253
14.2033 11.263
14.2185 11.420
14.2337 11.468
14.2488 11.284
14.2640 11.512
14.2792 11.478
14.2944 11.476
14.3095 11.721
14.3247 12.004
14.3399 12.161
14.3551 12.287
14.3702 12.558
14.3854 12.697
14.4006 13.087
14.4158 13.383
14.4309 13.414
14.4461 13.143
14.4613 12.700
14.4765 12.694
14.4916 12.745
14.5068 12.696
14.5220 12.253
14.5372 11.581
14.5523 11.532
14.5675 11.364
14.5827 11.452
14.5979 11.204
14.6130 11.070
14.6282 10.864
14.6434 11.056
14.6586 10.611
14.6737 10.784
14.6889 10.417
14.7041 10.411
14.7193 10.843
14.7344 10.788
14.7496 10.484
14.7648 10.914
14.7800 10.910
14.7951 10.472
14.8103 10.536
14.8255 10.271
14.8407 10.636
14.8558 10.406
14.8710 10.238
14.8862 10.253
14.9014 10.713
14.9165 10.588
14.9317 10.779
14.9469 10.469
14.9621 10.300
14.9772 10.349
14.9924 10.221
15.0076 9.932
15.0228 10.334
15.0379 10.144
15.0531 10.468
15.0683 10.078
15.0835 10.294
15.0986 10.240
15.1138 10.426
15.1290 10.455
15.1442 10.061
15.1593 10.291
15.1745 9.757
15.1897 10.117
15.2049 10.050
15.2200 10.008
15.2352 10.124
15.2504 10.413
15.2656 10.055
15.2807 10.048
15.2959 10.174
15.3111 9.893
15.3263 9.779
15.3414 9.791
15.3566 9.973
15.3718 10.174
15.3870 10.153
15.4021 10.350
15.4173 10.240
15.4325 10.052
15.4477 10.133
15.4628 10.142
15.4780 10.368
15.4932 10.047
15.5084 10.278
15.5235 10.133
15.5387 9.929
15.5539 9.864
15.5691 9.828
15.5842 10.018
15.5994 9.990
15.6146 9.777
15.6298 9.840
15.6449 9.907
15.6601 9.886
15.6753 9.973
15.6905 9.624
15.7056 9.717
15.7208 9.763
15.7360 9.783
15.7512 9.713
15.7663 9.711
15.7815 9.634
15.7967 9.438
15.8119 9.607
15.8270 9.852
15.8422 9.576
15.8574 9.598
15.8726 9.477
15.8877 9.223
15.9029 9.446
15.9181 9.540
15.9333 9.267
15.9484 9.441
15.9636 9.657
15.9788 9.746
15.9940 9.484
16.0091 9.705
16.0243 9.520
16.0395 9.430
16.0547 9.599
16.0698 9.675
16.0850 9.581
16.1002 9.395
16.1154 9.330
16.1305 9.766
16.1457 9.708
16.1609 9.413
16.1761 9.702
16.1912 9.547
16.2064 9.673
16.2216 9.853
16.2368 9.841
16.2519 9.758
16.2671 9.946
16.2823 9.824
16.2975 9.648
16.3126 9.835
16.3278 9.609
16.3430 9.778
16.3582 9.987
16.3733 10.117
16.3885 10.127
16.4037 9.944
16.4189 9.737
16.4340 9.725
16.4492 9.852
16.4644 9.637
16.4796 9.853
16.4947 9.928
16.5099 9.588
16.5251 9.476
16.5403 9.492
16.5554 9.420
16.5706 9.452
16.5858 9.523
16.6010 9.474
16.6161 9.579
16.6313 9.583
16.6465 9.667
16.6617 9.613
16.6768 9.661
16.6920 9.579
16.7072 9.630
16.7224 9.925
16.7375 9.885
16.7527 9.867
16.7679 9.693
16.7831 9.485
16.7982 9.463
16.8134 9.585
16.8286 9.786
16.8438 9.915
16.8589 9.927
16.8741 9.708
16.8893 9.601
16.9045 9.594
16.9196 9.663
16.9348 9.680
16.9500 9.648
16.9652 9.641
16.9803 9.821
16.9955 9.767
17.0107 9.741
17.0259 9.880
17.0410 9.816
17.0562 9.802
17.0714 9.943
17.0866 10.035
17.1017 10.279
17.1169 10.686
17.1321 11.146
17.1473 11.461
17.1624 11.828
17.1776 12.051
17.1928 12.678
17.2080 13.715
17.2231 14.768
17.2383 15.875
17.2535 17.258
17.2687 18.484
17.2838 18.603
17.2990 17.823
17.3142 16.753
17.3294 16.173
17.3445 16.169
17.3597 15.793
17.3749 15.465
17.3901 14.814
17.4052 13.830
17.4204 13.034
17.4356 12.161
17.4508 11.701
17.4659 11.414
17.4811 11.097
17.4963 10.994
17.5115 10.951
17.5266 10.668
17.5418 10.652
17.5570 10.726
17.5722 10.713
17.5873 10.933
17.6025 10.863
17.6177 10.615
17.6329 10.640
17.6480 10.774
17.6632 11.134
17.6784 11.488
17.6936 11.866
17.7087 12.037
17.7239 11.686
17.7391 11.338
17.7543 11.117
17.7694 11.147
17.7846 11.277
17.7998 11.208
17.8150 11.025
17.8301 11.082
17.8453 10.836
17.8605 10.580
17.8757 10.601
17.8908 10.373
17.9060 10.472
17.9212 10.404
17.9364 10.165
17.9515 9.974
17.9667 9.894
17.9819 10.001
17.9971 10.115
18.0122 10.154
18.0274 10.092
18.0426 10.247
18.0578 10.093
18.0729 10.046
18.0881 9.909
18.1033 9.798
18.1185 9.773
18.1336 9.874
18.1488 10.078
18.1640 9.932
18.1792 9.668
18.1943 9.581
18.2095 9.781
18.2247 10.010
18.2399 9.974
18.2550 9.995
18.2702 9.963
18.2854 10.089
18.3006 9.834
18.3157 9.667
18.3309 9.770
18.3461 9.662
18.3613 9.479
18.3764 9.591
18.3916 9.784
18.4068 9.906
18.4220 9.877
18.4371 9.976
18.4523 9.853
18.4675 9.859
18.4827 9.812
18.4978 9.742
18.5130 9.659
18.5282 9.564
18.5434 9.627
18.5585 9.637
18.5737 9.765
18.5889 9.837
18.6041 10.077
18.6192 9.678
18.6344 9.657
18.6496 9.809
18.6648 9.836
18.6799 9.862
18.6951 9.730
18.7103 9.802
18.7255 9.746
18.7406 9.691
18.7558 9.931
18.7710 9.778
18.7862 9.626
18.8013 9.655
18.8165 9.660
18.8317 9.733
18.8469 9.903
18.8620 10.059
18.8772 10.021
18.8924 9.827
18.9076 9.560
18.9227 9.775
18.9379 9.670
18.9531 9.653
18.9683 9.817
18.9834 9.960
18.9986 10.000
19.0138 9.791
19.0290 9.808
19.0441 10.101
19.0593 10.134
19.0745 10.022
19.0897 10.108
19.1048 10.295
19.1200 10.183
19.1352 10.159
19.1504 10.360
19.1655 10.113
19.1807 10.247
19.1959 10.541
19.2111 10.649
19.2262 10.540
19.2414 10.488
19.2566 10.617
19.2718 10.777
19.2869 10.826
19.3021 10.856
19.3173 10.800
19.3325 10.942
19.3476 10.836
19.3628 10.778
19.3780 10.893
19.3932 11.078
19.4083 11.037
19.4235 11.139
19.4387 11.160
19.4539 10.952
19.4690 11.049
19.4842 11.119
19.4994 11.222
19.5146 11.415
19.5297 11.470
19.5449 11.609
19.5601 11.637
19.5753 11.363
19.5904 11.539
19.6056 11.649
19.6208 11.652
19.6360 11.553
19.6511 11.139
19.6663 11.363
19.6815 11.657
19.6967 11.646
19.7118 11.558
19.7270 11.558
19.7422 11.710
19.7574 11.628
19.7725 11.654
19.7877 11.747
19.8029 11.798
19.8180 11.825
19.8332 11.750
19.8484 11.754
19.8636 12.129
19.8787 12.463
19.8939 12.550
19.9091 12.878
19.9243 13.413
19.9394 13.475
19.9546 13.629
19.9698 14.156
19.9850 14.383
20.0001 14.179
20.0153 13.792
20.0305 13.644
20.0457 13.589
20.0608 13.720
20.0760 13.851
20.0912 13.387
20.1064 13.284
20.1215 13.256
20.1367 13.025
20.1519 13.024
20.1671 12.845
20.1822 12.479
20.1974 12.390
20.2126 12.262
20.2278 12.353
20.2429 12.244
20.2581 11.894
20.2733 11.815
20.2885 11.808
20.3036 11.751
20.3188 11.563
20.3340 11.546
20.3492 11.963
20.3643 11.677
20.3795 11.494
20.3947 11.761
20.4099 11.575
20.4250 11.489
20.4402 11.832
20.4554 11.708
20.4706 11.922
20.4857 11.964
20.5009 12.057
20.5161 11.932
20.5313 11.576
20.5464 11.193
20.5616 11.283
20.5768 11.391
20.5920 11.184
20.6071 11.359
20.6223 11.046
20.6375 10.780
20.6527 10.850
20.6678 10.699
20.6830 10.652
20.6982 10.930
20.7134 10.452
20.7285 10.664
20.7437 10.495
20.7589 10.379
20.7741 10.522
20.7892 10.486
20.8044 10.305
20.8196 10.290
20.8348 10.696
20.8499 10.166
20.8651 10.369
20.8803 10.026
20.8955 10.120
20.9106 10.319
20.9258 9.970
20.9410 10.131
20.9562 10.176
20.9713 10.192
20.9865 10.126
21.0017 10.124
21.0169 9.567
21.0320 9.937
21.0472 9.945
21.0624 10.052
21.0776 9.891
21.0927 9.720
21.1079 9.806
21.1231 9.549
21.1383 9.662
21.1534 9.536
21.1686 9.617
21.1838 9.732
21.1990 9.487
21.2141 9.727
21.2293 9.744
21.2445 9.248
21.2597 9.333
21.2748 9.586
21.2900 9.700
21.3052 9.734
21.3204 9.581
21.3355 9.755
21.3507 9.464
21.3659 9.279
21.3811 9.522
21.3962 9.289
21.4114 9.534
21.4266 9.134
21.4418 9.350
21.4569 9.528
21.4721 9.481
21.4873 9.281
21.5025 9.256
21.5176 9.590
21.5328 9.160
21.5480 9.223
21.5632 9.251
21.5783 9.038
21.5935 9.274
21.6087 9.446
21.6239 9.211
21.6390 9.075
21.6542 9.007
21.6694 9.006
21.6846 8.745
21.6997 8.971
21.7149 9.040
21.7301 9.007
21.7453 9.136
21.7604 8.971
21.7756 8.898
21.7908 8.943
21.8060 9.036
21.8211 9.182
21.8363 9.138
21.8515 9.001
21.8667 8.997
21.8818 9.049
21.8970 9.247
21.9122 9.052
21.9274 8.817
21.9425 8.761
21.9577 8.876
21.9729 8.886
21.9881 8.903
22.0032 8.751
22.0184 8.749
22.0336 8.901
22.0488 8.847
22.0639 8.872
22.0791 8.781
22.0943 8.756
22.1095 8.752
22.1246 8.609
22.1398 8.648
22.1550 8.467
22.1702 8.422
22.1853 8.735
22.2005 8.630
22.2157 8.463
22.2309 8.589
22.2460 8.428
22.2612 8.258
22.2764 8.219
22.2916 8.423
22.3067 8.365
22.3219 8.464
22.3371 8.631
22.3523 8.455
22.3674 8.483
22.3826 8.345
22.3978 8.530
22.4130 8.565
22.4281 8.462
22.4433 8.504
22.4585 8.581
22.4737 8.582
22.4888 8.221
22.5040 8.407
22.5192 8.598
22.5344 8.197
22.5495 8.305
22.5647 8.241
22.5799 8.362
22.5951 8.427
22.6102 8.012
22.6254 8.245
22.6406 8.114
22.6558 8.336
22.6709 8.284
22.6861 7.858
22.7013 8.017
22.7165 7.844
22.7316 6.218
