'Id: "" Comment: "" Operator: "Lab Manager" Anode: "Mo" Scantype: "Still (Eiger2R_500K (1D mode))" TimePerStep: "300" X: "11.8" Y: "9.4" Z: "11.284" 
7.2532 18.577
7.2684 19.144
7.2836 18.760
7.2987 19.226
7.3139 19.106
7.3291 19.239
7.3443 19.078
7.3594 19.357
7.3746 19.316
7.3898 19.705
7.4050 19.584
7.4201 20.022
7.4353 19.492
7.4505 20.009
7.4657 20.268
7.4808 20.064
7.4960 20.183
7.5112 20.299
7.5264 20.107
7.5415 19.929
7.5567 19.829
7.5719 19.765
7.5871 19.951
7.6022 19.895
7.6174 20.154
7.6326 20.066
7.6478 19.937
7.6629 20.237
7.6781 20.462
7.6933 20.393
7.7085 20.724
7.7236 20.589
7.7388 20.488
7.7540 20.558
7.7692 20.342
7.7843 20.248
7.7995 20.227
7.8147 20.379
7.8299 20.606
7.8450 20.648
7.8602 20.768
7.8754 20.674
7.8905 20.523
7.9057 20.714
7.9209 21.165
7.9361 21.104
7.9512 21.163
7.9664 21.030
7.9816 21.019
7.9968 20.962
8.0119 20.962
8.0271 21.371
8.0423 21.189
8.0575 21.221
8.0726 21.146
8.0878 21.333
8.1030 21.181
8.1182 21.197
8.1333 21.632
8.1485 21.729
8.1637 21.875
8.1789 21.730
8.1940 21.673
8.2092 21.555
8.2244 21.391
8.2396 21.704
8.2547 21.703
8.2699 21.576
8.2851 21.474
8.3003 21.573
8.3154 21.934
8.3306 21.902
8.3458 21.556
8.3610 22.059
8.3761 21.625
8.3913 21.911
8.4065 22.124
8.4217 22.092
8.4368 21.875
8.4520 21.604
8.4672 22.270
8.4824 21.924
8.4975 22.470
8.5127 21.917
8.5279 22.137
8.5431 22.275
8.5582 21.907
8.5734 21.720
8.5886 22.582
8.6038 22.004
8.6189 22.166
8.6341 22.501
8.6493 22.420
8.6645 22.244
8.6796 22.223
8.6948 22.349
8.7100 22.214
8.7252 21.913
8.7403 22.581
8.7555 22.436
8.7707 22.263
8.7859 22.051
8.8010 22.273
8.8162 22.489
8.8314 22.300
8.8466 22.632
8.8617 23.185
8.8769 22.969
8.8921 22.556
8.9073 22.855
8.9224 22.874
8.9376 23.111
8.9528 22.994
8.9680 22.792
8.9831 22.387
8.9983 22.712
9.0135 22.566
9.0287 22.755
9.0438 22.773
9.0590 22.858
9.0742 22.806
9.0894 22.985
9.1045 22.873
9.1197 22.896
9.1349 22.752
9.1501 22.859
9.1652 22.853
9.1804 23.252
9.1956 22.859
9.2108 22.904
9.2259 22.791
9.2411 23.082
9.2563 22.887
9.2715 23.013
9.2866 23.034
9.3018 22.929
9.3170 22.900
9.3322 22.993
9.3473 23.193
9.3625 23.180
9.3777 23.069
9.3929 23.205
9.4080 23.002
9.4232 23.012
9.4384 23.147
9.4536 23.431
9.4687 23.223
9.4839 23.238
9.4991 23.170
9.5143 22.988
9.5294 23.304
9.5446 23.174
9.5598 23.414
9.5750 23.485
9.5901 23.499
9.6053 23.419
9.6205 23.385
9.6357 23.406
9.6508 23.526
9.6660 23.708
9.6812 23.794
9.6964 23.825
9.7115 24.113
9.7267 24.167
9.7419 24.019
9.7571 24.195
9.7722 24.352
9.7874 23.939
9.8026 23.719
9.8178 23.823
9.8329 23.488
9.8481 23.489
9.8633 23.715
9.8785 23.622
9.8936 23.683
9.9088 23.751
9.9240 23.389
9.9392 23.374
9.9543 23.965
9.9695 23.719
9.9847 23.412
9.9999 23.409
10.0150 23.427
10.0302 23.233
10.0454 23.119
10.0606 23.117
10.0757 23.262
10.0909 23.451
10.1061 23.419
10.1213 23.097
10.1364 23.044
10.1516 22.897
10.1668 23.153
10.1820 23.406
10.1971 23.343
10.2123 23.244
10.2275 23.018
10.2427 22.961
10.2578 23.543
10.2730 23.653
10.2882 23.317
10.3034 23.030
10.3185 23.027
10.3337 23.247
10.3489 23.186
10.3641 22.996
10.3792 23.169
10.3944 23.378
10.4096 22.912
10.4248 22.875
10.4399 22.874
10.4551 23.017
10.4703 22.571
10.4855 22.594
10.5006 22.560
10.5158 22.638
10.5310 22.630
10.5462 22.773
10.5613 22.996
10.5765 23.022
10.5917 22.711
10.6069 22.618
10.6220 22.805
10.6372 22.575
10.6524 22.663
10.6676 22.675
10.6827 23.085
10.6979 22.917
10.7131 22.570
10.7283 22.737
10.7434 22.685
10.7586 22.438
10.7738 22.286
10.7890 22.245
10.8041 22.250
10.8193 22.051
10.8345 21.919
10.8497 22.224
10.8648 22.610
10.8800 22.200
10.8952 21.906
10.9104 22.188
10.9255 22.131
10.9407 22.071
10.9559 21.890
10.9711 21.654
10.9862 21.627
11.0014 21.867
11.0166 22.073
11.0318 22.212
11.0469 21.860
11.0621 21.866
11.0773 22.099
11.0925 21.760
11.1076 21.598
11.1228 21.861
11.1380 21.837
11.1532 21.646
11.1683 21.697
11.1835 21.936
11.1987 21.741
11.2139 21.568
11.2290 21.880
11.2442 21.992
11.2594 21.678
11.2746 21.441
11.2897 21.558
11.3049 21.446
11.3201 21.563
11.3353 21.659
11.3504 21.486
11.3656 21.236
11.3808 21.273
11.3960 21.460
11.4111 21.675
11.4263 21.436
11.4415 21.320
11.4567 21.349
11.4718 21.102
11.4870 21.109
11.5022 21.334
11.5174 21.084
11.5325 21.031
11.5477 20.984
11.5629 20.971
11.5781 21.035
11.5932 21.076
11.6084 20.926
11.6236 20.407
11.6388 20.557
11.6539 20.882
11.6691 20.775
11.6843 21.067
11.6995 20.649
11.7146 20.736
11.7298 20.604
11.7450 20.227
11.7602 20.518
11.7753 20.140
11.7905 20.321
11.8057 20.368
11.8209 20.352
11.8360 19.970
11.8512 19.741
11.8664 20.149
11.8816 20.081
11.8967 19.850
11.9119 19.447
11.9271 19.653
11.9423 19.886
11.9574 19.808
11.9726 19.486
11.9878 19.320
12.0030 19.125
12.0181 19.247
12.0333 19.346
12.0485 18.889
12.0637 19.154
12.0788 19.040
12.0940 18.442
12.1092 18.771
12.1244 18.511
12.1395 18.458
12.1547 18.463
12.1699 18.560
12.1851 18.463
12.2002 18.568
12.2154 18.121
12.2306 18.255
12.2458 18.347
12.2609 18.148
12.2761 17.951
12.2913 17.883
12.3065 17.959
12.3216 18.045
12.3368 17.905
12.3520 17.229
12.3672 17.263
12.3823 17.183
12.3975 17.140
12.4127 17.420
12.4279 17.147
12.4430 17.270
12.4582 17.515
12.4734 17.152
12.4886 16.946
12.5037 16.670
12.5189 16.729
12.5341 16.555
12.5493 16.461
12.5644 16.531
12.5796 16.255
12.5948 16.135
12.6100 16.252
12.6251 16.225
12.6403 15.908
12.6555 15.761
12.6707 15.832
12.6858 15.643
12.7010 15.546
12.7162 15.673
12.7314 15.535
12.7465 15.486
12.7617 15.704
12.7769 15.383
12.7921 15.180
12.8072 15.363
12.8224 15.177
12.8376 14.860
12.8528 14.842
12.8679 14.745
12.8831 14.731
12.8983 14.739
12.9135 14.656
12.9286 14.615
12.9438 14.585
12.9590 14.502
12.9742 14.325
12.9893 14.300
13.0045 14.193
13.0197 14.193
13.0349 14.228
13.0500 13.720
13.0652 13.892
13.0804 14.217
13.0956 13.855
13.1107 13.881
13.1259 13.832
13.1411 13.524
13.1563 13.677
13.1714 13.846
13.1866 13.812
13.2018 13.805
13.2170 13.625
13.2321 13.574
13.2473 13.684
13.2625 13.614
13.2777 13.544
13.2928 13.436
13.3080 13.197
13.3232 13.153
13.3384 13.265
13.3535 13.318
13.3687 13.223
13.3839 13.095
13.3991 12.958
13.4142 13.000
13.4294 13.076
13.4446 12.648
13.4598 12.464
13.4749 12.653
13.4901 12.668
13.5053 12.507
13.5205 12.739
13.5356 12.457
13.5508 12.263
13.5660 12.446
13.5812 12.363
13.5963 12.158
13.6115 12.091
13.6267 12.338
13.6419 12.160
13.6570 12.094
13.6722 11.996
13.6874 12.064
13.7026 12.004
13.7177 11.903
13.7329 12.188
13.7481 12.149
13.7633 11.986
13.7784 11.946
13.7936 12.105
13.8088 12.281
13.8239 12.350
13.8391 12.256
13.8543 12.346
13.8695 12.399
13.8846 12.287
13.8998 12.080
13.9150 12.052
13.9302 12.158
13.9453 12.188
13.9605 12.191
13.9757 11.873
13.9909 11.765
14.0060 11.753
14.0212 11.651
14.0364 11.318
14.0516 11.333
14.0667 11.492
14.0819 11.401
14.0971 11.503
14.1123 11.578
14.1274 11.457
14.1426 11.314
14.1578 11.385
14.1730 11.451
14.1881 11.466
14.2033 11.432
14.2185 11.439
14.2337 11.698
14.2488 11.414
14.2640 11.428
14.2792 11.446
14.2944 11.534
14.3095 11.866
14.3247 11.802
14.3399 12.011
14.3551 11.984
14.3702 12.043
14.3854 12.248
14.4006 12.396
14.4158 12.763
14.4309 12.620
14.4461 12.527
14.4613 12.619
14.4765 12.550
14.4916 12.102
14.5068 11.901
14.5220 11.908
14.5372 11.730
14.5523 11.944
14.5675 11.403
14.5827 11.051
14.5979 11.199
14.6130 11.415
14.6282 11.003
14.6434 11.335
14.6586 11.319
14.6737 11.225
14.6889 11.186
14.7041 11.338
14.7193 11.205
14.7344 11.048
14.7496 10.983
14.7648 11.375
14.7800 11.240
14.7951 11.033
14.8103 10.678
14.8255 10.901
14.8407 10.912
14.8558 10.896
14.8710 11.050
14.8862 10.752
14.9014 10.769
14.9165 10.893
14.9317 11.167
14.9469 10.941
14.9621 10.844
14.9772 10.378
14.9924 10.608
15.0076 10.292
15.0228 10.792
15.0379 10.618
15.0531 10.253
15.0683 10.568
15.0835 10.458
15.0986 10.515
15.1138 10.512
15.1290 10.597
15.1442 10.599
15.1593 10.823
15.1745 10.746
15.1897 10.285
15.2049 10.504
15.2200 10.535
15.2352 10.493
15.2504 10.448
15.2656 10.396
15.2807 10.077
15.2959 10.092
15.3111 10.167
15.3263 10.161
15.3414 10.182
15.3566 10.342
15.3718 10.604
15.3870 10.499
15.4021 10.455
15.4173 10.159
15.4325 10.414
15.4477 10.175
15.4628 10.046
15.4780 10.434
15.4932 10.322
15.5084 10.093
15.5235 10.330
15.5387 10.278
15.5539 10.205
15.5691 10.053
15.5842 10.239
15.5994 10.249
15.6146 10.255
15.6298 9.958
15.6449 10.130
15.6601 10.335
15.6753 10.007
15.6905 10.083
15.7056 10.209
15.7208 10.020
15.7360 9.599
15.7512 9.827
15.7663 10.033
15.7815 9.925
15.7967 10.111
15.8119 9.699
15.8270 9.988
15.8422 9.859
15.8574 9.829
15.8726 9.804
15.8877 9.762
15.9029 9.609
15.9181 9.952
15.9333 9.890
15.9484 9.984
15.9636 9.786
15.9788 9.871
15.9940 10.156
16.0091 9.800
16.0243 9.588
16.0395 10.038
16.0547 9.858
16.0698 9.894
16.0850 9.830
16.1002 9.897
16.1154 9.481
16.1305 9.441
16.1457 9.802
16.1609 9.658
16.1761 9.828
16.1912 9.724
16.2064 9.895
16.2216 9.647
16.2368 10.181
16.2519 10.097
16.2671 10.165
16.2823 9.874
16.2975 9.799
16.3126 9.837
16.3278 9.783
16.3430 9.731
16.3582 10.044
16.3733 10.024
16.3885 9.951
16.4037 10.215
16.4189 10.113
16.4340 9.966
16.4492 10.005
16.4644 9.993
16.4796 9.974
16.4947 9.748
16.5099 9.980
16.5251 9.965
16.5403 9.848
16.5554 9.876
16.5706 9.952
16.5858 9.910
16.6010 9.811
16.6161 9.970
16.6313 10.230
16.6465 9.876
16.6617 9.953
16.6768 10.004
16.6920 10.159
16.7072 10.223
16.7224 10.036
16.7375 10.009
16.7527 10.005
16.7679 9.930
16.7831 9.960
16.7982 9.969
16.8134 10.146
16.8286 10.098
16.8438 10.129
16.8589 10.113
16.8741 10.016
16.8893 10.066
16.9045 9.964
16.9196 9.944
16.9348 9.746
16.9500 9.857
16.9652 10.026
16.9803 10.129
16.9955 10.043
17.0107 10.089
17.0259 10.250
17.0410 10.193
17.0562 10.083
17.0714 10.324
17.0866 10.571
17.1017 10.563
17.1169 10.820
17.1321 11.066
17.1473 11.334
17.1624 12.015
17.1776 12.547
17.1928 13.207
17.2080 14.301
17.2231 15.236
17.2383 16.486
17.2535 17.689
17.2687 18.558
17.2838 19.003
17.2990 18.063
17.3142 16.965
17.3294 16.568
17.3445 16.286
17.3597 16.080
17.3749 15.907
17.3901 15.404
17.4052 14.301
17.4204 13.245
17.4356 12.449
17.4508 11.830
17.4659 11.641
17.4811 11.415
17.4963 11.112
17.5115 10.866
17.5266 10.764
17.5418 10.669
17.5570 10.302
17.5722 10.323
17.5873 10.344
17.6025 10.278
17.6177 10.577
17.6329 10.500
17.6480 10.231
17.6632 10.176
17.6784 10.217
17.6936 10.323
17.7087 10.263
17.7239 10.143
17.7391 10.268
17.7543 10.381
17.7694 10.157
17.7846 10.234
17.7998 10.533
17.8150 10.686
17.8301 10.898
17.8453 10.956
17.8605 10.871
17.8757 11.019
17.8908 11.014
17.9060 11.116
17.9212 11.242
17.9364 10.902
17.9515 10.674
17.9667 10.899
17.9819 10.693
17.9971 10.532
18.0122 10.407
18.0274 10.219
18.0426 10.232
18.0578 10.217
18.0729 10.135
18.0881 10.129
18.1033 10.134
18.1185 10.220
18.1336 10.182
18.1488 9.982
18.1640 9.956
18.1792 9.847
18.1943 10.025
18.2095 10.015
18.2247 9.987
18.2399 10.090
18.2550 9.985
18.2702 9.830
18.2854 9.953
18.3006 9.872
18.3157 9.788
18.3309 9.930
18.3461 9.821
18.3613 9.777
18.3764 9.880
18.3916 9.606
18.4068 9.886
18.4220 9.946
18.4371 9.750
18.4523 9.674
18.4675 9.751
18.4827 9.905
18.4978 9.804
18.5130 9.439
18.5282 9.548
18.5434 9.688
18.5585 9.833
18.5737 9.908
18.5889 9.906
18.6041 10.013
18.6192 9.953
18.6344 9.708
18.6496 9.603
18.6648 9.800
18.6799 9.903
18.6951 9.741
18.7103 9.753
18.7255 9.757
18.7406 9.864
18.7558 9.753
18.7710 9.790
18.7862 9.820
18.8013 9.708
18.8165 9.786
18.8317 9.838
18.8469 9.934
18.8620 9.899
18.8772 10.039
18.8924 9.994
18.9076 9.840
18.9227 9.910
18.9379 9.754
18.9531 9.697
18.9683 9.910
18.9834 10.033
18.9986 10.061
19.0138 10.231
19.0290 9.956
19.0441 9.943
19.0593 10.210
19.0745 10.279
19.0897 10.613
19.1048 10.731
19.1200 10.419
19.1352 10.406
19.1504 10.598
19.1655 10.546
19.1807 10.337
19.1959 10.403
19.2111 10.569
19.2262 10.699
19.2414 11.010
19.2566 11.053
19.2718 10.838
19.2869 10.811
19.3021 10.807
19.3173 11.106
19.3325 11.305
19.3476 11.071
19.3628 10.968
19.3780 11.116
19.3932 11.457
19.4083 11.402
19.4235 11.304
19.4387 11.407
19.4539 11.454
19.4690 11.283
19.4842 11.179
19.4994 11.320
19.5146 11.257
19.5297 11.177
19.5449 11.421
19.5601 11.662
19.5753 11.840
19.5904 12.032
19.6056 11.792
19.6208 11.641
19.6360 11.651
19.6511 11.477
19.6663 11.554
19.6815 11.710
19.6967 11.552
19.7118 11.617
19.7270 11.785
19.7422 11.861
19.7574 11.811
19.7725 11.754
19.7877 11.861
19.8029 12.142
19.8180 12.345
19.8332 12.151
19.8484 12.223
19.8636 12.424
19.8787 12.759
19.8939 13.199
19.9091 13.441
19.9243 13.536
19.9394 13.748
19.9546 14.110
19.9698 14.298
19.9850 14.590
20.0001 14.811
20.0153 14.681
20.0305 14.231
20.0457 13.946
20.0608 13.837
20.0760 13.790
20.0912 13.855
20.1064 13.835
20.1215 13.437
20.1367 13.091
20.1519 12.884
20.1671 12.621
20.1822 12.432
20.1974 12.671
20.2126 12.771
20.2278 12.633
20.2429 12.730
20.2581 12.276
20.2733 11.771
20.2885 11.767
20.3036 11.494
20.3188 11.351
20.3340 11.631
20.3492 11.539
20.3643 11.301
20.3795 11.225
20.3947 11.062
20.4099 10.901
20.4250 10.842
20.4402 10.924
20.4554 10.941
20.4706 10.806
20.4857 10.449
20.5009 10.504
20.5161 10.562
20.5313 10.467
20.5464 10.612
20.5616 10.521
20.5768 10.220
20.5920 10.427
20.6071 10.484
20.6223 10.468
20.6375 10.352
20.6527 10.515
20.6678 10.535
20.6830 10.559
20.6982 10.432
20.7134 10.293
20.7285 10.209
20.7437 10.297
20.7589 10.493
20.7741 10.657
20.7892 10.024
20.8044 10.330
20.8196 10.245
20.8348 10.455
20.8499 10.101
20.8651 10.113
20.8803 10.482
20.8955 10.399
20.9106 10.305
20.9258 10.436
20.9410 10.454
20.9562 10.590
20.9713 10.526
20.9865 10.276
21.0017 10.272
21.0169 10.152
21.0320 10.210
21.0472 10.278
21.0624 10.223
21.0776 10.085
21.0927 10.258
21.1079 10.092
21.1231 9.907
21.1383 10.092
21.1534 10.129
21.1686 10.002
21.1838 10.194
21.1990 9.847
21.2141 9.498
21.2293 9.648
21.2445 9.702
21.2597 9.802
21.2748 9.729
21.2900 9.405
21.3052 9.510
21.3204 9.456
21.3355 9.754
21.3507 9.443
21.3659 9.535
21.3811 9.689
21.3962 9.549
21.4114 9.299
21.4266 9.537
21.4418 9.365
21.4569 9.388
21.4721 9.598
21.4873 9.632
21.5025 9.241
21.5176 9.361
21.5328 9.407
21.5480 9.545
21.5632 9.220
21.5783 9.270
21.5935 9.436
21.6087 9.210
21.6239 9.093
21.6390 8.951
21.6542 9.172
21.6694 9.236
21.6846 9.374
21.6997 9.110
21.7149 8.979
21.7301 8.947
21.7453 8.923
21.7604 8.952
21.7756 9.170
21.7908 9.124
21.8060 9.293
21.8211 9.351
21.8363 9.047
21.8515 9.036
21.8667 8.892
21.8818 8.865
21.8970 9.014
21.9122 9.013
21.9274 9.258
21.9425 9.175
21.9577 9.027
21.9729 8.712
21.9881 8.728
22.0032 8.928
22.0184 9.027
22.0336 8.908
22.0488 8.943
22.0639 8.996
22.0791 8.892
22.0943 8.794
22.1095 8.790
22.1246 8.764
22.1398 8.708
22.1550 8.655
22.1702 8.733
22.1853 8.637
22.2005 8.546
22.2157 8.730
22.2309 8.693
22.2460 8.693
22.2612 8.891
22.2764 8.644
22.2916 8.471
22.3067 8.558
22.3219 8.416
22.3371 8.592
22.3523 8.641
22.3674 8.661
22.3826 8.510
22.3978 8.537
22.4130 8.788
22.4281 8.502
22.4433 8.612
22.4585 8.295
22.4737 8.486
22.4888 8.758
22.5040 8.527
22.5192 8.437
22.5344 8.320
22.5495 8.682
22.5647 8.324
22.5799 8.649
22.5951 8.763
22.6102 8.431
22.6254 8.239
22.6406 8.289
22.6558 8.256
22.6709 8.356
22.6861 8.574
22.7013 8.009
22.7165 8.036
22.7316 6.540
