'Id: "" Comment: "" Operator: "Lab Manager" Anode: "Mo" Scantype: "Still (Eiger2R_500K (1D mode))" TimePerStep: "300" X: "11.8" Y: "9.4" Z: "11.284" 
7.2532 18.937
7.2684 18.644
7.2836 18.935
7.2987 19.105
7.3139 19.275
7.3291 19.120
7.3443 19.742
7.3594 19.492
7.3746 19.233
7.3898 19.254
7.4050 19.101
7.4201 19.050
7.4353 19.562
7.4505 19.328
7.4657 19.452
7.4808 19.598
7.4960 19.621
7.5112 19.739
7.5264 19.473
7.5415 19.979
7.5567 20.118
7.5719 20.070
7.5871 19.988
7.6022 19.851
7.6174 19.953
7.6326 19.909
7.6478 20.278
7.6629 20.504
7.6781 20.136
7.6933 19.979
7.7085 20.092
7.7236 20.109
7.7388 20.303
7.7540 20.349
7.7692 20.518
7.7843 20.634
7.7995 20.540
7.8147 20.287
7.8299 20.483
7.8450 20.592
7.8602 20.637
7.8754 20.663
7.8905 20.660
7.9057 20.664
7.9209 20.609
7.9361 20.742
7.9512 20.717
7.9664 21.190
7.9816 21.120
7.9968 20.893
8.0119 21.123
8.0271 21.170
8.0423 21.094
8.0575 20.996
8.0726 21.160
8.0878 21.135
8.1030 21.146
8.1182 21.312
8.1333 21.211
8.1485 21.169
8.1637 20.989
8.1789 21.325
8.1940 21.256
8.2092 21.362
8.2244 21.560
8.2396 21.604
8.2547 21.470
8.2699 21.676
8.2851 21.733
8.3003 21.512
8.3154 21.695
8.3306 22.028
8.3458 21.263
8.3610 21.485
8.3761 21.405
8.3913 21.925
8.4065 22.128
8.4217 21.853
8.4368 22.066
8.4520 21.850
8.4672 22.346
8.4824 22.369
8.4975 22.192
8.5127 22.261
8.5279 21.974
8.5431 22.081
8.5582 21.858
8.5734 22.086
8.5886 22.145
8.6038 21.932
8.6189 22.551
8.6341 22.834
8.6493 21.841
8.6645 22.463
8.6796 22.336
8.6948 22.059
8.7100 22.114
8.7252 22.244
8.7403 22.283
8.7555 22.653
8.7707 22.073
8.7859 22.517
8.8010 22.595
8.8162 22.655
8.8314 22.404
8.8466 22.922
8.8617 22.503
8.8769 22.885
8.8921 22.701
8.9073 22.458
8.9224 22.888
8.9376 22.326
8.9528 22.493
8.9680 22.501
8.9831 22.807
8.9983 22.332
9.0135 23.128
9.0287 23.378
9.0438 23.101
9.0590 22.746
9.0742 22.814
9.0894 22.869
9.1045 22.770
9.1197 22.501
9.1349 22.627
9.1501 23.148
9.1652 23.067
9.1804 22.733
9.1956 22.895
9.2108 22.919
9.2259 22.912
9.2411 22.775
9.2563 22.443
9.2715 22.791
9.2866 22.807
9.3018 22.813
9.3170 22.958
9.3322 23.075
9.3473 23.332
9.3625 23.339
9.3777 23.273
9.3929 22.760
9.4080 23.065
9.4232 23.369
9.4384 23.423
9.4536 23.496
9.4687 22.823
9.4839 22.414
9.4991 22.702
9.5143 22.980
9.5294 23.104
9.5446 23.012
9.5598 23.003
9.5750 23.069
9.5901 23.261
9.6053 23.332
9.6205 23.034
9.6357 23.041
9.6508 23.404
9.6660 23.422
9.6812 23.445
9.6964 23.282
9.7115 23.682
9.7267 24.109
9.7419 24.387
9.7571 24.274
9.7722 23.855
9.7874 23.912
9.8026 23.655
9.8178 23.234
9.8329 23.215
9.8481 23.140
9.8633 23.090
9.8785 23.251
9.8936 23.245
9.9088 23.145
9.9240 23.192
9.9392 22.988
9.9543 23.190
9.9695 23.396
9.9847 23.315
9.9999 23.529
10.0150 23.120
10.0302 23.414
10.0454 23.585
10.0606 23.350
10.0757 23.617
10.0909 23.775
10.1061 23.862
10.1213 23.865
10.1364 23.817
10.1516 23.229
10.1668 22.943
10.1820 23.390
10.1971 23.219
10.2123 23.319
10.2275 23.461
10.2427 23.003
10.2578 22.971
10.2730 23.122
10.2882 22.764
10.3034 22.432
10.3185 22.971
10.3337 22.906
10.3489 22.409
10.3641 22.339
10.3792 22.394
10.3944 22.810
10.4096 22.757
10.4248 22.728
10.4399 23.023
10.4551 22.829
10.4703 22.859
10.4855 22.554
10.5006 22.476
10.5158 22.287
10.5310 22.465
10.5462 22.424
10.5613 22.342
10.5765 22.770
10.5917 22.966
10.6069 22.729
10.6220 22.909
10.6372 23.035
10.6524 22.966
10.6676 22.461
10.6827 22.484
10.6979 22.827
10.7131 22.721
10.7283 22.227
10.7434 21.945
10.7586 22.178
10.7738 22.407
10.7890 22.570
10.8041 22.379
10.8193 22.583
10.8345 22.447
10.8497 22.194
10.8648 21.984
10.8800 22.308
10.8952 22.376
10.9104 22.040
10.9255 21.815
10.9407 21.684
10.9559 21.960
10.9711 22.380
10.9862 22.242
11.0014 22.319
11.0166 22.087
11.0318 22.154
11.0469 22.077
11.0621 22.126
11.0773 21.919
11.0925 21.801
11.1076 21.844
11.1228 21.611
11.1380 21.530
11.1532 21.743
11.1683 21.395
11.1835 21.505
11.1987 22.119
11.2139 21.569
11.2290 21.837
11.2442 22.087
11.2594 21.440
11.2746 21.415
11.2897 21.635
11.3049 21.589
11.3201 21.794
11.3353 21.599
11.3504 21.272
11.3656 21.542
11.3808 21.455
11.3960 21.506
11.4111 21.216
11.4263 20.864
11.4415 21.022
11.4567 21.237
11.4718 21.002
11.4870 20.939
11.5022 21.391
11.5174 21.200
11.5325 20.990
11.5477 21.182
11.5629 20.785
11.5781 20.760
11.5932 20.797
11.6084 20.997
11.6236 20.962
11.6388 20.939
11.6539 20.840
11.6691 20.691
11.6843 20.840
11.6995 20.591
11.7146 20.329
11.7298 20.260
11.7450 20.820
11.7602 20.748
11.7753 20.181
11.7905 19.947
11.8057 19.893
11.8209 20.316
11.8360 20.222
11.8512 19.777
11.8664 20.046
11.8816 19.725
11.8967 19.683
11.9119 19.936
11.9271 19.758
11.9423 19.486
11.9574 19.397
11.9726 19.708
11.9878 19.597
12.0030 19.701
12.0181 19.159
12.0333 18.882
12.0485 18.817
12.0637 18.773
12.0788 18.941
12.0940 19.226
12.1092 18.823
12.1244 18.552
12.1395 18.599
12.1547 18.551
12.1699 18.468
12.1851 18.417
12.2002 18.246
12.2154 18.214
12.2306 18.092
12.2458 17.901
12.2609 17.809
12.2761 18.005
12.2913 17.776
12.3065 17.538
12.3216 17.377
12.3368 17.449
12.3520 17.352
12.3672 17.224
12.3823 17.260
12.3975 17.004
12.4127 17.304
12.4279 17.276
12.4430 16.868
12.4582 17.065
12.4734 16.988
12.4886 16.714
12.5037 16.748
12.5189 16.596
12.5341 16.345
12.5493 16.485
12.5644 16.493
12.5796 16.198
12.5948 16.215
12.6100 16.344
12.6251 16.113
12.6403 16.211
12.6555 16.036
12.6707 15.767
12.6858 15.704
12.7010 15.581
12.7162 15.679
12.7314 15.448
12.7465 15.258
12.7617 15.304
12.7769 15.168
12.7921 15.182
12.8072 15.282
12.8224 15.104
12.8376 14.973
12.8528 15.021
12.8679 14.855
12.8831 14.812
12.8983 14.793
12.9135 14.771
12.9286 14.595
12.9438 14.526
12.9590 14.649
12.9742 14.678
12.9893 14.401
13.0045 14.374
13.0197 14.300
13.0349 14.160
13.0500 14.268
13.0652 14.192
13.0804 14.187
13.0956 14.158
13.1107 13.907
13.1259 13.936
13.1411 13.960
13.1563 13.677
13.1714 13.615
13.1866 13.691
13.2018 13.665
13.2170 13.546
13.2321 13.476
13.2473 13.329
13.2625 13.176
13.2777 13.422
13.2928 13.461
13.3080 13.254
13.3232 13.219
13.3384 13.161
13.3535 13.121
13.3687 13.179
13.3839 13.456
13.3991 13.442
13.4142 13.215
13.4294 13.214
13.4446 13.194
13.4598 12.906
13.4749 12.660
13.4901 12.687
13.5053 12.700
13.5205 12.602
13.5356 12.531
13.5508 12.320
13.5660 12.421
13.5812 12.703
13.5963 12.492
13.6115 12.190
13.6267 12.260
13.6419 12.337
13.6570 12.198
13.6722 12.218
13.6874 12.105
13.7026 11.947
13.7177 12.177
13.7329 11.901
13.7481 11.974
13.7633 12.439
13.7784 12.378
13.7936 12.341
13.8088 12.345
13.8239 12.300
13.8391 12.417
13.8543 12.453
13.8695 12.554
13.8846 12.243
13.8998 12.146
13.9150 12.024
13.9302 11.971
13.9453 12.140
13.9605 12.089
13.9757 12.026
13.9909 11.865
14.0060 11.599
14.0212 11.310
14.0364 11.388
14.0516 11.416
14.0667 11.405
14.0819 11.458
14.0971 11.295
14.1123 11.586
14.1274 11.601
14.1426 11.235
14.1578 11.559
14.1730 11.627
14.1881 11.589
14.2033 11.638
14.2185 11.826
14.2337 11.649
14.2488 11.976
14.2640 11.840
14.2792 12.234
14.2944 12.421
14.3095 12.519
14.3247 12.507
14.3399 12.361
14.3551 13.039
14.3702 12.959
14.3854 13.101
14.4006 13.165
14.4158 13.279
14.4309 13.147
14.4461 13.065
14.4613 12.603
14.4765 12.799
14.4916 12.589
14.5068 12.266
14.5220 12.039
14.5372 11.580
14.5523 11.509
14.5675 11.135
14.5827 11.048
14.5979 10.939
14.6130 10.657
14.6282 10.850
14.6434 10.753
14.6586 10.771
14.6737 10.545
14.6889 10.602
14.7041 10.623
14.7193 10.655
14.7344 10.675
14.7496 10.395
14.7648 10.978
14.7800 10.857
14.7951 10.625
14.8103 10.387
14.8255 10.649
14.8407 10.867
14.8558 10.494
14.8710 10.564
14.8862 10.224
14.9014 10.648
14.9165 10.920
14.9317 10.420
14.9469 10.626
14.9621 10.737
14.9772 10.263
14.9924 10.697
15.0076 10.177
15.0228 10.225
15.0379 10.315
15.0531 10.270
15.0683 10.433
15.0835 10.237
15.0986 10.299
15.1138 10.436
15.1290 10.446
15.1442 10.574
15.1593 10.343
15.1745 10.244
15.1897 10.274
15.2049 10.136
15.2200 10.132
15.2352 10.486
15.2504 10.186
15.2656 10.105
15.2807 10.293
15.2959 10.192
15.3111 10.500
15.3263 10.118
15.3414 10.021
15.3566 10.309
15.3718 10.015
15.3870 10.337
15.4021 10.159
15.4173 10.303
15.4325 10.408
15.4477 10.382
15.4628 10.384
15.4780 10.160
15.4932 9.896
15.5084 10.180
15.5235 10.294
15.5387 10.218
15.5539 10.052
15.5691 10.094
15.5842 10.018
15.5994 10.050
15.6146 9.876
15.6298 9.741
15.6449 10.091
15.6601 9.723
15.6753 9.778
15.6905 9.677
15.7056 9.770
15.7208 9.840
15.7360 9.922
15.7512 9.796
15.7663 9.607
15.7815 9.694
15.7967 9.756
15.8119 9.485
15.8270 9.979
15.8422 9.672
15.8574 9.711
15.8726 9.691
15.8877 9.484
15.9029 9.484
15.9181 9.925
15.9333 9.723
15.9484 9.441
15.9636 9.525
15.9788 9.723
15.9940 9.833
16.0091 9.778
16.0243 9.709
16.0395 9.890
16.0547 9.657
16.0698 9.620
16.0850 9.913
16.1002 9.660
16.1154 9.551
16.1305 9.705
16.1457 9.462
16.1609 9.759
16.1761 9.672
16.1912 9.723
16.2064 9.641
16.2216 9.739
16.2368 9.809
16.2519 9.661
16.2671 9.705
16.2823 9.768
16.2975 9.895
16.3126 9.841
16.3278 9.623
16.3430 9.931
16.3582 10.006
16.3733 10.153
16.3885 10.054
16.4037 9.985
16.4189 9.621
16.4340 9.821
16.4492 10.068
16.4644 9.989
16.4796 9.929
16.4947 9.762
16.5099 9.483
16.5251 9.540
16.5403 9.678
16.5554 9.765
16.5706 9.646
16.5858 9.295
16.6010 9.657
16.6161 9.615
16.6313 9.617
16.6465 9.811
16.6617 9.806
16.6768 9.885
16.6920 9.876
16.7072 9.984
16.7224 9.968
16.7375 9.991
16.7527 9.904
16.7679 9.991
16.7831 10.204
16.7982 10.181
16.8134 10.028
16.8286 9.841
16.8438 9.756
16.8589 9.631
16.8741 9.662
16.8893 9.723
16.9045 9.580
16.9196 9.756
16.9348 10.036
16.9500 10.048
16.9652 10.023
16.9803 10.206
16.9955 10.018
17.0107 9.786
17.0259 9.988
17.0410 9.867
17.0562 9.867
17.0714 10.053
17.0866 10.000
17.1017 10.307
17.1169 10.757
17.1321 10.885
17.1473 11.235
17.1624 11.772
17.1776 12.391
17.1928 13.191
17.2080 13.954
17.2231 14.940
17.2383 16.263
17.2535 17.401
17.2687 18.330
17.2838 18.657
17.2990 17.844
17.3142 17.002
17.3294 16.618
17.3445 16.229
17.3597 16.094
17.3749 16.162
17.3901 15.514
17.4052 14.385
17.4204 13.274
17.4356 12.326
17.4508 12.072
17.4659 12.058
17.4811 11.832
17.4963 11.437
17.5115 11.107
17.5266 11.036
17.5418 11.299
17.5570 11.449
17.5722 11.114
17.5873 10.923
17.6025 11.076
17.6177 11.171
17.6329 11.177
17.6480 11.467
17.6632 11.671
17.6784 11.629
17.6936 11.743
17.7087 11.716
17.7239 11.540
17.7391 11.256
17.7543 11.031
17.7694 10.841
17.7846 10.824
17.7998 11.075
17.8150 10.838
17.8301 10.528
17.8453 10.371
17.8605 10.117
17.8757 10.133
17.8908 10.391
17.9060 10.322
17.9212 10.170
17.9364 10.185
17.9515 9.944
17.9667 9.916
17.9819 10.135
17.9971 10.159
18.0122 10.179
18.0274 10.303
18.0426 10.303
18.0578 10.030
18.0729 9.654
18.0881 9.757
18.1033 9.887
18.1185 10.084
18.1336 10.179
18.1488 9.940
18.1640 9.721
18.1792 9.836
18.1943 9.900
18.2095 9.806
18.2247 9.795
18.2399 9.713
18.2550 9.899
18.2702 10.049
18.2854 9.877
18.3006 9.748
18.3157 9.713
18.3309 9.712
18.3461 9.813
18.3613 9.784
18.3764 9.850
18.3916 10.093
18.4068 9.790
18.4220 9.672
18.4371 9.737
18.4523 9.697
18.4675 9.645
18.4827 9.729
18.4978 9.860
18.5130 9.749
18.5282 9.657
18.5434 9.702
18.5585 9.701
18.5737 9.789
18.5889 9.639
18.6041 9.417
18.6192 9.633
18.6344 9.715
18.6496 9.422
18.6648 9.696
18.6799 9.984
18.6951 9.993
18.7103 9.960
18.7255 9.689
18.7406 9.636
18.7558 9.807
18.7710 9.594
18.7862 9.586
18.8013 9.673
18.8165 9.810
18.8317 9.802
18.8469 9.891
18.8620 9.908
18.8772 10.146
18.8924 10.257
18.9076 9.995
18.9227 9.896
18.9379 10.111
18.9531 10.167
18.9683 10.186
18.9834 10.146
18.9986 10.061
19.0138 10.139
19.0290 10.176
19.0441 10.384
19.0593 10.253
19.0745 10.135
19.0897 10.268
19.1048 10.422
19.1200 10.372
19.1352 10.508
19.1504 10.669
19.1655 10.645
19.1807 10.659
19.1959 10.480
19.2111 10.549
19.2262 10.691
19.2414 10.792
19.2566 10.704
19.2718 10.661
19.2869 10.875
19.3021 11.016
19.3173 10.825
19.3325 10.992
19.3476 11.113
19.3628 10.967
19.3780 10.977
19.3932 11.072
19.4083 11.340
19.4235 11.190
19.4387 10.920
19.4539 10.993
19.4690 11.268
19.4842 11.330
19.4994 11.445
19.5146 11.517
19.5297 11.344
19.5449 11.293
19.5601 11.380
19.5753 11.504
19.5904 11.759
19.6056 11.627
19.6208 11.373
19.6360 11.559
19.6511 11.767
19.6663 11.658
19.6815 11.556
19.6967 11.764
19.7118 11.660
19.7270 11.554
19.7422 11.660
19.7574 11.886
19.7725 11.964
19.7877 11.845
19.8029 12.059
19.8180 12.152
19.8332 12.028
19.8484 11.997
19.8636 12.318
19.8787 12.597
19.8939 12.589
19.9091 12.809
19.9243 13.410
19.9394 13.842
19.9546 13.948
19.9698 14.129
19.9850 14.393
20.0001 14.327
20.0153 14.147
20.0305 13.950
20.0457 13.719
20.0608 13.644
20.0760 13.579
20.0912 13.523
20.1064 13.513
20.1215 13.190
20.1367 13.051
20.1519 12.948
20.1671 12.799
20.1822 12.974
20.1974 12.754
20.2126 12.436
20.2278 12.340
20.2429 12.544
20.2581 12.463
20.2733 12.238
20.2885 12.005
20.3036 11.895
20.3188 12.215
20.3340 12.208
20.3492 12.269
20.3643 12.334
20.3795 11.973
20.3947 11.913
20.4099 11.823
20.4250 11.798
20.4402 12.154
20.4554 12.056
20.4706 11.992
20.4857 11.910
20.5009 11.682
20.5161 11.628
20.5313 11.431
20.5464 11.407
20.5616 11.613
20.5768 11.396
20.5920 11.211
20.6071 11.169
20.6223 10.648
20.6375 10.592
20.6527 10.909
20.6678 10.776
20.6830 10.745
20.6982 10.608
20.7134 10.494
20.7285 10.492
20.7437 10.373
20.7589 10.358
20.7741 10.468
20.7892 10.586
20.8044 10.258
20.8196 10.191
20.8348 10.484
20.8499 10.354
20.8651 10.077
20.8803 10.382
20.8955 10.505
20.9106 10.286
20.9258 10.207
20.9410 10.169
20.9562 10.102
20.9713 9.940
20.9865 9.959
21.0017 10.002
21.0169 9.953
21.0320 9.837
21.0472 9.875
21.0624 10.387
21.0776 10.016
21.0927 9.813
21.1079 9.772
21.1231 10.060
21.1383 10.166
21.1534 9.694
21.1686 9.758
21.1838 9.911
21.1990 9.851
21.2141 10.035
21.2293 9.718
21.2445 9.962
21.2597 9.675
21.2748 9.370
21.2900 9.767
21.3052 9.756
21.3204 9.393
21.3355 9.300
21.3507 9.391
21.3659 9.369
21.3811 9.288
21.3962 9.397
21.4114 9.588
21.4266 9.457
21.4418 9.346
21.4569 9.272
21.4721 9.520
21.4873 9.256
21.5025 9.209
21.5176 9.433
21.5328 9.210
21.5480 9.306
21.5632 9.409
21.5783 9.345
21.5935 9.216
21.6087 9.081
21.6239 8.880
21.6390 9.265
21.6542 9.537
21.6694 9.158
21.6846 9.246
21.6997 8.979
21.7149 9.058
21.7301 9.151
21.7453 9.105
21.7604 9.109
21.7756 8.911
21.7908 9.117
21.8060 9.235
21.8211 9.181
21.8363 9.126
21.8515 9.246
21.8667 9.020
21.8818 9.083
21.8970 9.217
21.9122 9.176
21.9274 9.155
21.9425 8.878
21.9577 8.728
21.9729 8.737
21.9881 8.793
22.0032 8.857
22.0184 8.842
22.0336 8.977
22.0488 9.069
22.0639 8.912
22.0791 8.702
22.0943 8.777
22.1095 8.623
22.1246 8.326
22.1398 8.843
22.1550 8.825
22.1702 8.526
22.1853 8.482
22.2005 8.669
22.2157 8.691
22.2309 8.525
22.2460 8.532
22.2612 8.621
22.2764 8.521
22.2916 8.615
22.3067 8.490
22.3219 8.384
22.3371 8.612
22.3523 8.448
22.3674 8.630
22.3826 8.775
22.3978 8.475
22.4130 8.384
22.4281 8.407
22.4433 8.543
22.4585 8.610
22.4737 8.667
22.4888 8.671
22.5040 8.409
22.5192 8.402
22.5344 8.494
22.5495 8.325
22.5647 8.490
22.5799 8.500
22.5951 8.355
22.6102 8.067
22.6254 8.471
22.6406 8.570
22.6558 8.558
22.6709 8.395
22.6861 8.500
22.7013 8.004
22.7165 8.083
22.7316 6.412
