'Id: "" Comment: "" Operator: "Lab Manager" Anode: "Mo" Scantype: "Still (Eiger2R_500K (1D mode))" TimePerStep: "300" X: "11.8" Y: "9.4" Z: "11.284" 
7.2532 18.379
7.2684 18.785
7.2836 18.586
7.2987 18.353
7.3139 18.981
7.3291 19.096
7.3443 18.955
7.3594 18.595
7.3746 19.472
7.3898 19.359
7.4050 19.165
7.4201 19.167
7.4353 19.333
7.4505 19.104
7.4657 19.601
7.4808 20.005
7.4960 19.807
7.5112 19.519
7.5264 19.453
7.5415 19.504
7.5567 19.597
7.5719 19.714
7.5871 20.001
7.6022 19.721
7.6174 19.661
7.6326 19.824
7.6478 19.923
7.6629 20.040
7.6781 19.794
7.6933 19.917
7.7085 19.852
7.7236 20.110
7.7388 20.104
7.7540 20.385
7.7692 20.514
7.7843 20.193
7.7995 20.261
7.8147 20.533
7.8299 20.626
7.8450 20.359
7.8602 20.366
7.8754 20.418
7.8905 20.526
7.9057 20.514
7.9209 20.272
7.9361 20.742
7.9512 20.988
7.9664 20.825
7.9816 20.848
7.9968 20.869
8.0119 21.201
8.0271 21.297
8.0423 20.826
8.0575 20.956
8.0726 21.002
8.0878 21.036
8.1030 21.122
8.1182 21.412
8.1333 20.834
8.1485 21.185
8.1637 21.295
8.1789 21.650
8.1940 21.488
8.2092 21.225
8.2244 21.096
8.2396 21.535
8.2547 21.332
8.2699 21.280
8.2851 21.286
8.3003 21.347
8.3154 21.397
8.3306 21.429
8.3458 21.657
8.3610 21.660
8.3761 21.483
8.3913 21.868
8.4065 21.581
8.4217 21.797
8.4368 21.901
8.4520 21.987
8.4672 22.067
8.4824 22.174
8.4975 22.178
8.5127 21.942
8.5279 21.832
8.5431 22.190
8.5582 22.245
8.5734 21.972
8.5886 21.529
8.6038 21.840
8.6189 21.483
8.6341 22.101
8.6493 21.706
8.6645 21.732
8.6796 21.840
8.6948 22.012
8.7100 22.110
8.7252 22.228
8.7403 22.036
8.7555 22.348
8.7707 22.725
8.7859 22.778
8.8010 22.216
8.8162 21.880
8.8314 22.676
8.8466 22.421
8.8617 22.862
8.8769 22.135
8.8921 22.549
8.9073 22.513
8.9224 22.187
8.9376 22.387
8.9528 22.120
8.9680 22.285
8.9831 22.634
8.9983 22.834
9.0135 22.768
9.0287 22.684
9.0438 22.686
9.0590 22.661
9.0742 23.030
9.0894 22.779
9.1045 22.892
9.1197 22.665
9.1349 22.755
9.1501 22.987
9.1652 22.723
9.1804 22.527
9.1956 22.664
9.2108 22.552
9.2259 22.660
9.2411 22.383
9.2563 22.688
9.2715 22.872
9.2866 22.965
9.3018 22.924
9.3170 23.074
9.3322 22.949
9.3473 22.724
9.3625 22.638
9.3777 22.694
9.3929 22.568
9.4080 22.931
9.4232 23.355
9.4384 23.555
9.4536 23.000
9.4687 22.726
9.4839 22.994
9.4991 22.679
9.5143 22.716
9.5294 23.101
9.5446 23.112
9.5598 23.293
9.5750 23.249
9.5901 22.804
9.6053 23.230
9.6205 23.170
9.6357 23.126
9.6508 23.316
9.6660 23.352
9.6812 23.659
9.6964 23.840
9.7115 23.814
9.7267 23.825
9.7419 23.879
9.7571 24.035
9.7722 23.635
9.7874 23.483
9.8026 23.735
9.8178 23.573
9.8329 23.493
9.8481 23.315
9.8633 23.344
9.8785 23.046
9.8936 22.865
9.9088 22.868
9.9240 23.022
9.9392 23.043
9.9543 23.158
9.9695 23.354
9.9847 23.223
9.9999 23.074
10.0150 22.969
10.0302 23.194
10.0454 23.488
10.0606 23.346
10.0757 23.302
10.0909 23.069
10.1061 23.141
10.1213 23.464
10.1364 23.464
10.1516 23.251
10.1668 23.286
10.1820 23.626
10.1971 23.520
10.2123 23.159
10.2275 22.771
10.2427 23.240
10.2578 23.274
10.2730 22.971
10.2882 23.179
10.3034 22.861
10.3185 22.341
10.3337 22.727
10.3489 22.832
10.3641 22.777
10.3792 22.433
10.3944 21.988
10.4096 22.373
10.4248 22.350
10.4399 22.307
10.4551 22.573
10.4703 22.313
10.4855 22.157
10.5006 22.581
10.5158 22.552
10.5310 22.289
10.5462 22.372
10.5613 22.688
10.5765 22.407
10.5917 22.451
10.6069 22.415
10.6220 22.404
10.6372 22.621
10.6524 22.427
10.6676 22.079
10.6827 22.108
10.6979 22.305
10.7131 22.286
10.7283 22.054
10.7434 22.137
10.7586 22.173
10.7738 22.474
10.7890 22.594
10.8041 22.501
10.8193 22.354
10.8345 22.191
10.8497 22.136
10.8648 22.027
10.8800 22.100
10.8952 22.008
10.9104 22.086
10.9255 21.962
10.9407 21.833
10.9559 21.848
10.9711 21.967
10.9862 21.804
11.0014 21.924
11.0166 22.111
11.0318 21.944
11.0469 21.680
11.0621 21.712
11.0773 21.559
11.0925 21.601
11.1076 21.672
11.1228 21.666
11.1380 21.797
11.1532 21.865
11.1683 21.623
11.1835 22.065
11.1987 22.191
11.2139 21.456
11.2290 21.619
11.2442 21.409
11.2594 21.567
11.2746 21.634
11.2897 21.456
11.3049 21.618
11.3201 21.440
11.3353 21.900
11.3504 21.624
11.3656 21.735
11.3808 21.407
11.3960 21.164
11.4111 21.275
11.4263 21.280
11.4415 21.237
11.4567 21.251
11.4718 21.125
11.4870 20.892
11.5022 20.955
11.5174 21.123
11.5325 21.028
11.5477 21.150
11.5629 20.909
11.5781 20.794
11.5932 20.569
11.6084 20.535
11.6236 20.791
11.6388 20.691
11.6539 20.831
11.6691 20.595
11.6843 20.677
11.6995 20.538
11.7146 20.839
11.7298 20.550
11.7450 20.289
11.7602 20.341
11.7753 20.424
11.7905 20.238
11.8057 20.067
11.8209 20.010
11.8360 19.846
11.8512 20.152
11.8664 20.116
11.8816 19.778
11.8967 19.635
11.9119 19.833
11.9271 19.618
11.9423 19.301
11.9574 19.179
11.9726 19.126
11.9878 19.119
12.0030 19.435
12.0181 19.509
12.0333 19.371
12.0485 19.351
12.0637 18.858
12.0788 18.707
12.0940 19.190
12.1092 18.906
12.1244 18.740
12.1395 18.788
12.1547 18.697
12.1699 18.709
12.1851 18.056
12.2002 18.112
12.2154 18.150
12.2306 17.867
12.2458 18.063
12.2609 18.355
12.2761 17.885
12.2913 17.641
12.3065 17.708
12.3216 17.507
12.3368 17.549
12.3520 17.518
12.3672 17.199
12.3823 17.210
12.3975 17.182
12.4127 16.810
12.4279 16.895
12.4430 16.984
12.4582 16.787
12.4734 16.569
12.4886 16.579
12.5037 16.680
12.5189 16.562
12.5341 16.716
12.5493 16.341
12.5644 16.273
12.5796 16.386
12.5948 16.238
12.6100 16.130
12.6251 15.892
12.6403 15.924
12.6555 15.763
12.6707 15.836
12.6858 15.990
12.7010 15.580
12.7162 15.461
12.7314 15.518
12.7465 15.483
12.7617 15.504
12.7769 15.491
12.7921 15.487
12.8072 15.176
12.8224 14.921
12.8376 14.824
12.8528 14.558
12.8679 14.383
12.8831 14.555
12.8983 14.711
12.9135 14.640
12.9286 14.690
12.9438 14.504
12.9590 14.339
12.9742 14.492
12.9893 14.329
13.0045 14.414
13.0197 14.401
13.0349 14.033
13.0500 14.022
13.0652 13.990
13.0804 13.805
13.0956 13.721
13.1107 13.691
13.1259 13.884
13.1411 13.767
13.1563 13.553
13.1714 13.605
13.1866 13.647
13.2018 13.747
13.2170 13.550
13.2321 13.390
13.2473 13.225
13.2625 13.083
13.2777 13.222
13.2928 13.231
13.3080 13.213
13.3232 13.173
13.3384 13.080
13.3535 13.100
13.3687 13.115
13.3839 13.138
13.3991 13.056
13.4142 12.906
13.4294 12.913
13.4446 12.753
13.4598 12.576
13.4749 12.643
13.4901 12.600
13.5053 12.401
13.5205 12.430
13.5356 12.368
13.5508 12.541
13.5660 12.515
13.5812 12.330
13.5963 12.142
13.6115 12.071
13.6267 12.567
13.6419 12.577
13.6570 12.245
13.6722 11.976
13.6874 12.101
13.7026 12.081
13.7177 12.167
13.7329 12.109
13.7481 11.930
13.7633 11.914
13.7784 11.800
13.7936 12.001
13.8088 12.064
13.8239 12.306
13.8391 12.523
13.8543 12.260
13.8695 12.173
13.8846 12.173
13.8998 12.377
13.9150 12.153
13.9302 11.896
13.9453 12.174
13.9605 12.088
13.9757 11.791
13.9909 11.913
14.0060 11.803
14.0212 11.677
14.0364 11.597
14.0516 11.571
14.0667 11.670
14.0819 11.579
14.0971 11.420
14.1123 11.794
14.1274 11.492
14.1426 11.397
14.1578 11.673
14.1730 11.642
14.1881 11.728
14.2033 11.668
14.2185 11.797
14.2337 12.029
14.2488 11.623
14.2640 11.806
14.2792 11.827
14.2944 11.791
14.3095 12.021
14.3247 12.357
14.3399 12.301
14.3551 12.569
14.3702 12.461
14.3854 12.940
14.4006 13.111
14.4158 12.906
14.4309 12.866
14.4461 12.648
14.4613 12.004
14.4765 12.233
14.4916 12.032
14.5068 12.035
14.5220 11.816
14.5372 11.565
14.5523 11.288
14.5675 11.319
14.5827 11.278
14.5979 11.079
14.6130 11.038
14.6282 10.927
14.6434 10.824
14.6586 10.886
14.6737 10.549
14.6889 10.710
14.7041 10.938
14.7193 10.255
14.7344 10.389
14.7496 10.801
14.7648 10.639
14.7800 10.624
14.7951 10.555
14.8103 10.678
14.8255 10.255
14.8407 10.393
14.8558 10.110
14.8710 10.730
14.8862 10.549
14.9014 10.387
14.9165 10.628
14.9317 10.721
14.9469 10.365
14.9621 10.249
14.9772 10.498
14.9924 10.149
15.0076 10.390
15.0228 10.477
15.0379 10.763
15.0531 10.148
15.0683 9.958
15.0835 10.118
15.0986 9.956
15.1138 10.351
15.1290 9.902
15.1442 10.063
15.1593 10.024
15.1745 10.263
15.1897 10.149
15.2049 9.958
15.2200 9.909
15.2352 9.888
15.2504 10.203
15.2656 9.878
15.2807 10.374
15.2959 9.969
15.3111 10.208
15.3263 10.021
15.3414 10.144
15.3566 9.862
15.3718 9.957
15.3870 10.261
15.4021 10.121
15.4173 10.081
15.4325 10.112
15.4477 10.156
15.4628 9.999
15.4780 10.061
15.4932 10.156
15.5084 10.106
15.5235 9.887
15.5387 9.495
15.5539 10.099
15.5691 10.030
15.5842 10.003
15.5994 9.885
15.6146 9.750
15.6298 9.899
15.6449 9.640
15.6601 9.954
15.6753 10.053
15.6905 9.746
15.7056 9.822
15.7208 9.761
15.7360 9.612
15.7512 9.745
15.7663 9.854
15.7815 9.721
15.7967 9.527
15.8119 9.705
15.8270 9.291
15.8422 9.539
15.8574 9.689
15.8726 9.665
15.8877 9.722
15.9029 9.520
15.9181 9.701
15.9333 9.706
15.9484 9.457
15.9636 9.548
15.9788 9.548
15.9940 9.567
16.0091 9.489
16.0243 9.532
16.0395 9.863
16.0547 9.561
16.0698 9.425
16.0850 9.442
16.1002 9.515
16.1154 9.818
16.1305 9.518
16.1457 9.209
16.1609 9.549
16.1761 9.836
16.1912 9.636
16.2064 9.634
16.2216 9.732
16.2368 9.755
16.2519 9.754
16.2671 9.982
16.2823 9.852
16.2975 9.704
16.3126 9.838
16.3278 9.799
16.3430 9.671
16.3582 9.791
16.3733 9.919
16.3885 9.841
16.4037 9.784
16.4189 9.858
16.4340 9.668
16.4492 9.542
16.4644 9.716
16.4796 9.780
16.4947 9.669
16.5099 9.733
16.5251 9.730
16.5403 9.732
16.5554 9.677
16.5706 9.526
16.5858 9.576
16.6010 9.494
16.6161 9.648
16.6313 9.742
16.6465 9.592
16.6617 9.520
16.6768 9.610
16.6920 9.712
16.7072 9.795
16.7224 9.802
16.7375 9.778
16.7527 9.707
16.7679 9.797
16.7831 9.801
16.7982 9.923
16.8134 9.939
16.8286 9.880
16.8438 9.746
16.8589 9.706
16.8741 9.690
16.8893 9.498
16.9045 9.474
16.9196 9.380
16.9348 9.614
16.9500 10.007
16.9652 9.904
16.9803 9.900
16.9955 10.029
17.0107 10.037
17.0259 10.139
17.0410 9.897
17.0562 9.751
17.0714 10.167
17.0866 10.414
17.1017 10.393
17.1169 10.487
17.1321 10.954
17.1473 11.328
17.1624 11.772
17.1776 12.232
17.1928 12.824
17.2080 13.797
17.2231 15.051
17.2383 16.341
17.2535 17.663
17.2687 18.655
17.2838 18.814
17.2990 18.111
17.3142 17.035
17.3294 16.179
17.3445 15.898
17.3597 15.968
17.3749 15.820
17.3901 15.114
17.4052 14.218
17.4204 13.374
17.4356 12.388
17.4508 11.690
17.4659 11.539
17.4811 11.450
17.4963 11.306
17.5115 11.273
17.5266 11.266
17.5418 11.061
17.5570 10.736
17.5722 10.778
17.5873 10.852
17.6025 10.875
17.6177 11.026
17.6329 11.318
17.6480 11.531
17.6632 11.452
17.6784 11.101
17.6936 11.119
17.7087 11.317
17.7239 11.274
17.7391 11.011
17.7543 10.928
17.7694 10.995
17.7846 10.875
17.7998 11.004
17.8150 10.933
17.8301 10.496
17.8453 10.331
17.8605 10.283
17.8757 10.256
17.8908 10.227
17.9060 10.283
17.9212 10.172
17.9364 10.094
17.9515 10.011
17.9667 10.186
17.9819 10.260
17.9971 10.096
18.0122 10.031
18.0274 10.225
18.0426 10.398
18.0578 10.246
18.0729 9.980
18.0881 9.804
18.1033 9.814
18.1185 9.837
18.1336 9.782
18.1488 9.976
18.1640 10.055
18.1792 9.854
18.1943 9.903
18.2095 10.057
18.2247 9.997
18.2399 9.824
18.2550 9.907
18.2702 9.908
18.2854 9.710
18.3006 9.672
18.3157 10.035
18.3309 10.088
18.3461 9.770
18.3613 9.891
18.3764 10.105
18.3916 9.794
18.4068 9.729
18.4220 9.805
18.4371 9.765
18.4523 9.972
18.4675 9.784
18.4827 9.764
18.4978 10.071
18.5130 10.009
18.5282 9.902
18.5434 10.067
18.5585 10.026
18.5737 9.803
18.5889 9.689
18.6041 9.486
18.6192 9.745
18.6344 9.946
18.6496 9.705
18.6648 9.546
18.6799 9.649
18.6951 9.771
18.7103 9.862
18.7255 9.940
18.7406 9.888
18.7558 9.873
18.7710 9.965
18.7862 9.966
18.8013 9.880
18.8165 9.912
18.8317 10.013
18.8469 9.938
18.8620 10.031
18.8772 10.230
18.8924 10.073
18.9076 9.871
18.9227 9.723
18.9379 9.985
18.9531 10.091
18.9683 10.047
18.9834 9.930
18.9986 9.940
19.0138 9.945
19.0290 9.957
19.0441 10.096
19.0593 10.217
19.0745 10.200
19.0897 10.190
19.1048 10.240
19.1200 10.340
19.1352 10.407
19.1504 10.298
19.1655 10.548
19.1807 10.743
19.1959 10.740
19.2111 10.665
19.2262 10.630
19.2414 10.814
19.2566 10.820
19.2718 10.872
19.2869 10.995
19.3021 10.800
19.3173 10.812
19.3325 11.038
19.3476 11.316
19.3628 11.348
19.3780 11.268
19.3932 11.144
19.4083 11.327
19.4235 11.510
19.4387 11.234
19.4539 11.283
19.4690 11.347
19.4842 11.330
19.4994 11.363
19.5146 11.354
19.5297 11.568
19.5449 11.616
19.5601 11.639
19.5753 11.613
19.5904 11.576
19.6056 11.938
19.6208 11.907
19.6360 11.894
19.6511 11.806
19.6663 11.535
19.6815 11.580
19.6967 11.908
19.7118 11.901
19.7270 11.714
19.7422 11.984
19.7574 12.087
19.7725 11.878
19.7877 12.112
19.8029 12.152
19.8180 11.975
19.8332 12.236
19.8484 12.298
19.8636 12.444
19.8787 12.725
19.8939 12.797
19.9091 13.088
19.9243 13.487
19.9394 13.922
19.9546 14.253
19.9698 14.582
19.9850 14.902
20.0001 14.679
20.0153 14.159
20.0305 14.175
20.0457 14.124
20.0608 14.147
20.0760 13.951
20.0912 13.706
20.1064 13.765
20.1215 13.778
20.1367 13.557
20.1519 13.130
20.1671 12.897
20.1822 12.905
20.1974 12.841
20.2126 12.853
20.2278 12.895
20.2429 12.860
20.2581 12.612
20.2733 12.237
20.2885 12.319
20.3036 12.272
20.3188 12.265
20.3340 12.205
20.3492 12.371
20.3643 12.322
20.3795 11.838
20.3947 11.869
20.4099 11.899
20.4250 11.804
20.4402 11.692
20.4554 11.684
20.4706 11.680
20.4857 11.824
20.5009 11.785
20.5161 11.557
20.5313 11.602
20.5464 11.536
20.5616 11.551
20.5768 11.385
20.5920 11.246
20.6071 11.251
20.6223 11.301
20.6375 10.824
20.6527 10.587
20.6678 10.708
20.6830 10.664
20.6982 10.719
20.7134 10.494
20.7285 10.459
20.7437 10.616
20.7589 10.552
20.7741 10.396
20.7892 10.552
20.8044 10.237
20.8196 10.317
20.8348 10.481
20.8499 10.459
20.8651 10.071
20.8803 10.373
20.8955 10.435
20.9106 10.062
20.9258 10.126
20.9410 10.120
20.9562 10.137
20.9713 10.037
20.9865 10.451
21.0017 10.424
21.0169 9.973
21.0320 10.002
21.0472 9.723
21.0624 9.831
21.0776 9.960
21.0927 10.080
21.1079 9.906
21.1231 9.758
21.1383 9.826
21.1534 10.072
21.1686 9.793
21.1838 10.031
21.1990 9.869
21.2141 9.562
21.2293 10.024
21.2445 9.882
21.2597 9.909
21.2748 9.845
21.2900 9.795
21.3052 9.694
21.3204 9.597
21.3355 9.575
21.3507 9.523
21.3659 9.743
21.3811 9.647
21.3962 9.625
21.4114 9.689
21.4266 9.380
21.4418 9.529
21.4569 9.587
21.4721 9.392
21.4873 9.279
21.5025 9.598
21.5176 9.240
21.5328 9.474
21.5480 9.247
21.5632 9.174
21.5783 9.103
21.5935 9.294
21.6087 9.420
21.6239 9.407
21.6390 9.358
21.6542 9.232
21.6694 9.350
21.6846 9.329
21.6997 9.301
21.7149 9.246
21.7301 9.099
21.7453 9.179
21.7604 8.988
21.7756 9.055
21.7908 9.119
21.8060 8.980
21.8211 9.013
21.8363 9.069
21.8515 9.084
21.8667 8.868
21.8818 8.861
21.8970 9.043
21.9122 8.967
21.9274 9.136
21.9425 9.115
21.9577 9.096
21.9729 8.917
21.9881 8.959
22.0032 8.953
22.0184 8.969
22.0336 9.010
22.0488 8.847
22.0639 8.755
22.0791 8.638
22.0943 8.851
22.1095 8.871
22.1246 8.741
22.1398 8.742
22.1550 8.585
22.1702 8.607
22.1853 8.648
22.2005 8.668
22.2157 8.675
22.2309 8.591
22.2460 8.631
22.2612 8.579
22.2764 8.327
22.2916 8.291
22.3067 8.551
22.3219 8.629
22.3371 8.739
22.3523 8.545
22.3674 8.542
22.3826 8.481
22.3978 8.588
22.4130 8.390
22.4281 8.419
22.4433 8.523
22.4585 8.309
22.4737 8.463
22.4888 8.222
22.5040 8.333
22.5192 8.643
22.5344 8.634
22.5495 8.554
22.5647 8.288
22.5799 8.544
22.5951 8.471
22.6102 8.273
22.6254 8.672
22.6406 8.680
22.6558 8.110
22.6709 8.460
22.6861 8.143
22.7013 8.096
22.7165 8.052
22.7316 6.393
