'Id: "" Comment: "" Operator: "Lab Manager" Anode: "Mo" Scantype: "Still (Eiger2R_500K (1D mode))" TimePerStep: "300" X: "11.8" Y: "9.4" Z: "11.284" 
7.2532 18.712
7.2684 18.291
7.2836 19.245
7.2987 18.490
7.3139 19.286
7.3291 19.526
7.3443 19.115
7.3594 19.271
7.3746 19.707
7.3898 19.239
7.4050 18.983
7.4201 19.604
7.4353 19.437
7.4505 19.728
7.4657 19.546
7.4808 19.745
7.4960 20.039
7.5112 19.698
7.5264 19.832
7.5415 20.000
7.5567 19.641
7.5719 19.820
7.5871 19.906
7.6022 20.053
7.6174 20.102
7.6326 20.175
7.6478 20.158
7.6629 20.145
7.6781 20.111
7.6933 20.186
7.7085 20.554
7.7236 20.467
7.7388 20.383
7.7540 20.369
7.7692 20.829
7.7843 20.926
7.7995 20.702
7.8147 20.690
7.8299 20.745
7.8450 20.931
7.8602 21.111
7.8754 20.941
7.8905 20.849
7.9057 21.113
7.9209 21.010
7.9361 21.092
7.9512 21.395
7.9664 21.403
7.9816 21.086
7.9968 20.998
8.0119 21.310
8.0271 21.519
8.0423 21.444
8.0575 21.306
8.0726 21.193
8.0878 21.319
8.1030 21.418
8.1182 21.180
8.1333 21.725
8.1485 21.463
8.1637 21.604
8.1789 21.726
8.1940 21.768
8.2092 21.619
8.2244 21.533
8.2396 21.728
8.2547 21.610
8.2699 21.881
8.2851 21.952
8.3003 21.637
8.3154 21.883
8.3306 21.468
8.3458 22.037
8.3610 22.023
8.3761 21.952
8.3913 21.841
8.4065 21.695
8.4217 22.037
8.4368 22.520
8.4520 21.985
8.4672 22.171
8.4824 22.441
8.4975 21.848
8.5127 21.416
8.5279 22.203
8.5431 22.256
8.5582 22.160
8.5734 22.466
8.5886 22.375
8.6038 22.760
8.6189 22.029
8.6341 22.622
8.6493 22.271
8.6645 22.478
8.6796 22.651
8.6948 22.370
8.7100 22.849
8.7252 22.458
8.7403 22.834
8.7555 22.407
8.7707 22.501
8.7859 22.892
8.8010 22.570
8.8162 22.965
8.8314 22.528
8.8466 22.323
8.8617 22.800
8.8769 22.490
8.8921 22.872
8.9073 22.665
8.9224 22.803
8.9376 22.565
8.9528 22.506
8.9680 22.777
8.9831 22.907
8.9983 22.518
9.0135 22.168
9.0287 22.450
9.0438 22.726
9.0590 22.873
9.0742 23.140
9.0894 23.263
9.1045 23.222
9.1197 23.170
9.1349 22.585
9.1501 22.489
9.1652 22.861
9.1804 23.055
9.1956 22.695
9.2108 23.125
9.2259 22.859
9.2411 22.760
9.2563 22.785
9.2715 22.884
9.2866 22.893
9.3018 22.983
9.3170 23.063
9.3322 22.902
9.3473 23.058
9.3625 23.051
9.3777 23.167
9.3929 23.104
9.4080 23.228
9.4232 23.099
9.4384 23.449
9.4536 23.394
9.4687 23.180
9.4839 23.088
9.4991 23.274
9.5143 23.418
9.5294 23.236
9.5446 23.043
9.5598 23.109
9.5750 23.251
9.5901 23.234
9.6053 23.649
9.6205 23.936
9.6357 23.689
9.6508 23.606
9.6660 23.398
9.6812 23.474
9.6964 23.937
9.7115 23.994
9.7267 23.911
9.7419 23.870
9.7571 23.959
9.7722 24.064
9.7874 24.330
9.8026 24.168
9.8178 23.686
9.8329 23.534
9.8481 23.385
9.8633 23.610
9.8785 23.819
9.8936 23.693
9.9088 23.706
9.9240 23.604
9.9392 23.619
9.9543 23.805
9.9695 23.481
9.9847 23.546
9.9999 23.830
10.0150 24.043
10.0302 23.842
10.0454 23.375
10.0606 23.444
10.0757 23.701
10.0909 24.057
10.1061 24.035
10.1213 23.793
10.1364 23.896
10.1516 24.349
10.1668 24.194
10.1820 23.979
10.1971 24.189
10.2123 24.603
10.2275 24.654
10.2427 24.127
10.2578 23.699
10.2730 23.931
10.2882 23.769
10.3034 23.630
10.3185 23.495
10.3337 23.618
10.3489 23.519
10.3641 23.174
10.3792 22.872
10.3944 23.216
10.4096 23.251
10.4248 22.988
10.4399 22.920
10.4551 22.724
10.4703 22.871
10.4855 22.955
10.5006 23.019
10.5158 22.898
10.5310 22.698
10.5462 22.624
10.5613 22.588
10.5765 22.593
10.5917 22.673
10.6069 22.824
10.6220 22.729
10.6372 22.828
10.6524 22.709
10.6676 23.013
10.6827 22.799
10.6979 22.504
10.7131 22.461
10.7283 22.707
10.7434 22.512
10.7586 22.586
10.7738 22.626
10.7890 22.437
10.8041 22.364
10.8193 22.607
10.8345 22.753
10.8497 22.906
10.8648 22.383
10.8800 22.284
10.8952 22.196
10.9104 21.889
10.9255 21.870
10.9407 21.880
10.9559 22.055
10.9711 21.879
10.9862 21.968
11.0014 22.052
11.0166 21.872
11.0318 22.186
11.0469 21.585
11.0621 21.785
11.0773 21.937
11.0925 21.627
11.1076 21.726
11.1228 22.246
11.1380 21.817
11.1532 21.959
11.1683 21.837
11.1835 21.818
11.1987 21.750
11.2139 21.706
11.2290 22.074
11.2442 22.043
11.2594 22.076
11.2746 21.920
11.2897 21.990
11.3049 22.084
11.3201 21.716
11.3353 21.755
11.3504 21.874
11.3656 21.426
11.3808 21.200
11.3960 21.317
11.4111 21.365
11.4263 20.995
11.4415 21.102
11.4567 21.249
11.4718 20.984
11.4870 21.141
11.5022 21.384
11.5174 21.141
11.5325 21.092
11.5477 21.039
11.5629 20.950
11.5781 20.745
11.5932 20.672
11.6084 20.776
11.6236 20.867
11.6388 20.773
11.6539 20.629
11.6691 20.416
11.6843 20.826
11.6995 20.583
11.7146 20.484
11.7298 20.299
11.7450 20.289
11.7602 20.279
11.7753 20.441
11.7905 20.440
11.8057 20.207
11.8209 20.178
11.8360 19.828
11.8512 19.780
11.8664 20.172
11.8816 19.927
11.8967 19.631
11.9119 19.413
11.9271 19.815
11.9423 20.047
11.9574 19.455
11.9726 19.331
11.9878 19.427
12.0030 18.951
12.0181 18.783
12.0333 19.043
12.0485 18.924
12.0637 18.801
12.0788 18.659
12.0940 18.440
12.1092 18.405
12.1244 18.828
12.1395 18.451
12.1547 18.147
12.1699 18.436
12.1851 18.153
12.2002 17.998
12.2154 18.222
12.2306 18.084
12.2458 17.909
12.2609 18.095
12.2761 17.888
12.2913 17.597
12.3065 17.796
12.3216 17.584
12.3368 17.479
12.3520 17.433
12.3672 17.407
12.3823 17.609
12.3975 17.622
12.4127 17.418
12.4279 17.068
12.4430 17.143
12.4582 17.240
12.4734 17.132
12.4886 17.001
12.5037 16.740
12.5189 16.891
12.5341 16.846
12.5493 16.652
12.5644 16.473
12.5796 16.500
12.5948 16.108
12.6100 15.841
12.6251 15.858
12.6403 15.861
12.6555 15.853
12.6707 15.916
12.6858 15.850
12.7010 15.871
12.7162 15.947
12.7314 15.639
12.7465 15.215
12.7617 15.260
12.7769 15.456
12.7921 15.245
12.8072 14.929
12.8224 15.148
12.8376 15.363
12.8528 14.927
12.8679 14.827
12.8831 14.896
12.8983 14.760
12.9135 14.595
12.9286 14.605
12.9438 14.426
12.9590 14.377
12.9742 14.496
12.9893 14.363
13.0045 14.368
13.0197 14.297
13.0349 14.204
13.0500 14.092
13.0652 14.059
13.0804 13.945
13.0956 13.764
13.1107 13.664
13.1259 13.852
13.1411 13.805
13.1563 13.406
13.1714 13.518
13.1866 13.517
13.2018 13.269
13.2170 13.178
13.2321 13.151
13.2473 12.964
13.2625 12.846
13.2777 13.210
13.2928 13.280
13.3080 13.135
13.3232 13.292
13.3384 13.107
13.3535 12.856
13.3687 12.951
13.3839 13.131
13.3991 12.933
13.4142 12.811
13.4294 12.774
13.4446 12.607
13.4598 12.752
13.4749 12.785
13.4901 12.778
13.5053 12.748
13.5205 12.629
13.5356 12.501
13.5508 12.535
13.5660 12.711
13.5812 12.387
13.5963 11.944
13.6115 11.972
13.6267 12.070
13.6419 12.201
13.6570 12.408
13.6722 12.218
13.6874 11.779
13.7026 11.910
13.7177 12.135
13.7329 12.147
13.7481 11.996
13.7633 11.877
13.7784 11.995
13.7936 11.845
13.8088 11.951
13.8239 12.309
13.8391 12.427
13.8543 12.104
13.8695 12.094
13.8846 12.132
13.8998 12.250
13.9150 12.141
13.9302 12.151
13.9453 11.823
13.9605 11.839
13.9757 11.558
13.9909 11.446
14.0060 11.591
14.0212 11.511
14.0364 11.578
14.0516 11.257
14.0667 11.192
14.0819 11.123
14.0971 11.394
14.1123 11.371
14.1274 11.433
14.1426 11.504
14.1578 11.498
14.1730 11.582
14.1881 11.817
14.2033 11.848
14.2185 11.739
14.2337 11.833
14.2488 11.779
14.2640 11.881
14.2792 11.809
14.2944 12.058
14.3095 12.032
14.3247 12.327
14.3399 12.211
14.3551 12.501
14.3702 12.595
14.3854 13.028
14.4006 13.095
14.4158 13.172
14.4309 13.298
14.4461 13.175
14.4613 13.278
14.4765 12.925
14.4916 13.061
14.5068 13.115
14.5220 12.999
14.5372 12.401
14.5523 12.575
14.5675 12.446
14.5827 12.337
14.5979 12.265
14.6130 12.136
14.6282 12.232
14.6434 11.833
14.6586 11.517
14.6737 11.354
14.6889 11.439
14.7041 11.281
14.7193 11.353
14.7344 11.148
14.7496 11.029
14.7648 11.017
14.7800 10.996
14.7951 10.894
14.8103 10.833
14.8255 10.892
14.8407 10.784
14.8558 10.723
14.8710 10.560
14.8862 10.559
14.9014 10.807
14.9165 10.971
14.9317 11.049
14.9469 10.940
14.9621 10.784
14.9772 10.636
14.9924 10.248
15.0076 10.605
15.0228 10.645
15.0379 10.721
15.0531 10.646
15.0683 10.399
15.0835 10.805
15.0986 10.552
15.1138 10.461
15.1290 10.554
15.1442 10.273
15.1593 10.287
15.1745 10.741
15.1897 10.760
15.2049 10.765
15.2200 10.516
15.2352 10.342
15.2504 10.469
15.2656 10.564
15.2807 10.124
15.2959 10.286
15.3111 10.543
15.3263 10.180
15.3414 10.590
15.3566 10.763
15.3718 10.674
15.3870 10.466
15.4021 10.137
15.4173 10.172
15.4325 10.632
15.4477 10.375
15.4628 10.160
15.4780 10.754
15.4932 10.738
15.5084 10.269
15.5235 10.376
15.5387 10.310
15.5539 10.877
15.5691 10.360
15.5842 10.390
15.5994 10.305
15.6146 10.248
15.6298 10.355
15.6449 10.225
15.6601 9.994
15.6753 9.865
15.6905 10.039
15.7056 10.003
15.7208 10.011
15.7360 9.893
15.7512 9.896
15.7663 9.868
15.7815 9.817
15.7967 9.958
15.8119 9.847
15.8270 10.037
15.8422 9.861
15.8574 9.737
15.8726 9.538
15.8877 9.645
15.9029 9.524
15.9181 9.722
15.9333 10.045
15.9484 9.748
15.9636 9.835
15.9788 9.787
15.9940 9.851
16.0091 9.803
16.0243 9.846
16.0395 9.678
16.0547 9.953
16.0698 9.521
16.0850 9.714
16.1002 9.743
16.1154 9.853
16.1305 9.852
16.1457 9.921
16.1609 9.779
16.1761 9.553
16.1912 9.597
16.2064 9.787
16.2216 9.921
16.2368 9.940
16.2519 10.066
16.2671 9.871
16.2823 10.060
16.2975 10.252
16.3126 10.080
16.3278 10.043
16.3430 9.993
16.3582 10.063
16.3733 9.986
16.3885 10.197
16.4037 10.364
16.4189 10.286
16.4340 9.894
16.4492 10.034
16.4644 9.964
16.4796 9.661
16.4947 9.692
16.5099 9.961
16.5251 10.031
16.5403 9.755
16.5554 9.802
16.5706 9.875
16.5858 9.829
16.6010 10.039
16.6161 9.759
16.6313 9.677
16.6465 9.630
16.6617 9.433
16.6768 9.648
16.6920 9.888
16.7072 9.935
16.7224 10.011
16.7375 10.055
16.7527 10.172
16.7679 10.060
16.7831 9.930
16.7982 9.976
16.8134 9.951
16.8286 10.003
16.8438 9.965
16.8589 9.901
16.8741 9.830
16.8893 9.867
16.9045 9.972
16.9196 9.863
16.9348 9.679
16.9500 9.631
16.9652 9.762
16.9803 9.846
16.9955 9.779
17.0107 9.894
17.0259 9.793
17.0410 9.779
17.0562 9.970
17.0714 10.051
17.0866 10.418
17.1017 10.646
17.1169 10.600
17.1321 10.904
17.1473 11.337
17.1624 11.548
17.1776 12.010
17.1928 12.945
17.2080 13.834
17.2231 14.994
17.2383 16.112
17.2535 17.345
17.2687 18.600
17.2838 18.787
17.2990 18.015
17.3142 16.806
17.3294 16.087
17.3445 16.007
17.3597 15.933
17.3749 15.735
17.3901 14.948
17.4052 13.893
17.4204 13.122
17.4356 12.573
17.4508 12.019
17.4659 11.642
17.4811 11.469
17.4963 11.490
17.5115 11.452
17.5266 11.148
17.5418 11.292
17.5570 11.470
17.5722 11.523
17.5873 11.394
17.6025 11.187
17.6177 11.074
17.6329 10.819
17.6480 10.788
17.6632 10.735
17.6784 10.778
17.6936 11.088
17.7087 11.115
17.7239 10.876
17.7391 10.580
17.7543 10.644
17.7694 10.723
17.7846 11.031
17.7998 11.259
17.8150 11.104
17.8301 11.180
17.8453 11.642
17.8605 11.558
17.8757 11.460
17.8908 11.613
17.9060 11.503
17.9212 11.254
17.9364 11.090
17.9515 10.901
17.9667 10.954
17.9819 11.108
17.9971 10.849
18.0122 10.619
18.0274 10.608
18.0426 10.539
18.0578 10.314
18.0729 10.213
18.0881 9.929
18.1033 9.850
18.1185 9.953
18.1336 10.213
18.1488 10.116
18.1640 9.970
18.1792 9.904
18.1943 9.792
18.2095 9.802
18.2247 9.814
18.2399 9.878
18.2550 9.850
18.2702 9.721
18.2854 9.817
18.3006 9.956
18.3157 9.898
18.3309 9.867
18.3461 9.906
18.3613 9.977
18.3764 9.799
18.3916 9.752
18.4068 9.974
18.4220 10.069
18.4371 9.947
18.4523 9.919
18.4675 10.092
18.4827 10.272
18.4978 10.060
18.5130 9.787
18.5282 9.665
18.5434 9.645
18.5585 9.683
18.5737 9.466
18.5889 9.704
18.6041 9.872
18.6192 9.724
18.6344 9.627
18.6496 9.727
18.6648 9.788
18.6799 9.704
18.6951 9.812
18.7103 9.747
18.7255 9.732
18.7406 9.764
18.7558 9.814
18.7710 9.937
18.7862 9.938
18.8013 9.794
18.8165 9.806
18.8317 10.063
18.8469 9.930
18.8620 9.695
18.8772 9.796
18.8924 9.988
18.9076 9.972
18.9227 9.760
18.9379 9.839
18.9531 9.910
18.9683 9.919
18.9834 10.038
18.9986 10.011
19.0138 10.005
19.0290 10.210
19.0441 10.090
19.0593 10.220
19.0745 10.120
19.0897 10.143
19.1048 10.361
19.1200 10.414
19.1352 10.457
19.1504 10.437
19.1655 10.370
19.1807 10.449
19.1959 10.405
19.2111 10.446
19.2262 10.553
19.2414 10.629
19.2566 10.700
19.2718 10.870
19.2869 10.782
19.3021 11.001
19.3173 11.099
19.3325 10.891
19.3476 10.896
19.3628 10.957
19.3780 11.040
19.3932 11.253
19.4083 11.136
19.4235 11.145
19.4387 11.281
19.4539 11.341
19.4690 11.320
19.4842 11.363
19.4994 11.467
19.5146 11.500
19.5297 11.404
19.5449 11.525
19.5601 11.663
19.5753 11.552
19.5904 11.554
19.6056 11.744
19.6208 11.761
19.6360 11.670
19.6511 11.610
19.6663 11.634
19.6815 11.656
19.6967 11.583
19.7118 11.490
19.7270 11.656
19.7422 11.846
19.7574 11.844
19.7725 11.844
19.7877 11.857
19.8029 11.931
19.8180 12.025
19.8332 11.978
19.8484 12.259
19.8636 12.508
19.8787 12.486
19.8939 12.617
19.9091 13.017
19.9243 13.191
19.9394 13.546
19.9546 13.916
19.9698 14.089
19.9850 14.272
20.0001 14.370
20.0153 14.309
20.0305 13.972
20.0457 13.947
20.0608 13.986
20.0760 13.998
20.0912 13.744
20.1064 13.466
20.1215 13.517
20.1367 13.169
20.1519 13.060
20.1671 13.028
20.1822 13.062
20.1974 13.234
20.2126 13.128
20.2278 13.010
20.2429 12.542
20.2581 12.154
20.2733 12.086
20.2885 12.067
20.3036 12.014
20.3188 12.023
20.3340 11.753
20.3492 11.549
20.3643 11.588
20.3795 11.469
20.3947 11.200
20.4099 11.119
20.4250 11.093
20.4402 11.256
20.4554 11.107
20.4706 10.981
20.4857 10.862
20.5009 10.966
20.5161 11.020
20.5313 10.894
20.5464 10.865
20.5616 11.037
20.5768 10.953
20.5920 10.686
20.6071 10.792
20.6223 10.939
20.6375 10.863
20.6527 10.706
20.6678 10.734
20.6830 10.931
20.6982 10.933
20.7134 10.993
20.7285 11.023
20.7437 10.834
20.7589 10.792
20.7741 10.992
20.7892 10.539
20.8044 10.595
20.8196 10.701
20.8348 10.516
20.8499 10.319
20.8651 10.418
20.8803 10.749
20.8955 10.711
20.9106 10.262
20.9258 9.814
20.9410 9.951
20.9562 10.435
20.9713 9.995
20.9865 10.193
21.0017 10.042
21.0169 10.118
21.0320 10.087
21.0472 9.966
21.0624 10.069
21.0776 10.544
21.0927 9.806
21.1079 9.746
21.1231 9.752
21.1383 10.081
21.1534 9.798
21.1686 9.649
21.1838 9.950
21.1990 9.423
21.2141 9.897
21.2293 9.973
21.2445 9.849
21.2597 9.355
21.2748 9.709
21.2900 9.857
21.3052 9.486
21.3204 9.471
21.3355 9.462
21.3507 9.538
21.3659 9.489
21.3811 9.473
21.3962 9.359
21.4114 9.318
21.4266 9.595
21.4418 9.443
21.4569 9.508
21.4721 9.345
21.4873 9.259
21.5025 9.215
21.5176 9.169
21.5328 8.978
21.5480 9.330
21.5632 9.410
21.5783 9.172
21.5935 9.244
21.6087 9.076
21.6239 8.873
21.6390 8.925
21.6542 9.345
21.6694 9.214
21.6846 9.215
21.6997 9.184
21.7149 9.252
21.7301 9.342
21.7453 9.074
21.7604 8.880
21.7756 9.050
21.7908 9.170
21.8060 9.005
21.8211 9.086
21.8363 9.037
21.8515 8.965
21.8667 8.980
21.8818 9.013
21.8970 9.014
21.9122 9.158
21.9274 8.990
21.9425 8.861
21.9577 8.886
21.9729 9.012
21.9881 9.037
22.0032 8.979
22.0184 8.968
22.0336 8.934
22.0488 8.817
22.0639 8.699
22.0791 8.606
22.0943 8.727
22.1095 8.515
22.1246 8.511
22.1398 8.679
22.1550 8.717
22.1702 8.654
22.1853 8.593
22.2005 8.638
22.2157 8.556
22.2309 8.533
22.2460 8.707
22.2612 8.660
22.2764 8.568
22.2916 8.649
22.3067 8.769
22.3219 8.513
22.3371 8.405
22.3523 8.527
22.3674 8.598
22.3826 8.618
22.3978 8.571
22.4130 8.338
22.4281 8.314
22.4433 8.316
22.4585 8.359
22.4737 8.469
22.4888 8.444
22.5040 8.351
22.5192 8.503
22.5344 8.430
22.5495 8.264
22.5647 8.648
22.5799 8.407
22.5951 8.401
22.6102 8.521
22.6254 8.140
22.6406 8.515
22.6558 8.455
22.6709 8.473
22.6861 8.380
22.7013 8.444
22.7165 8.003
22.7316 6.493
