'Id: "" Comment: "" Operator: "Lab Manager" Anode: "Mo" Scantype: "Still (Eiger2R_500K (1D mode))" TimePerStep: "300" X: "11.8" Y: "9.4" Z: "11.284" 
7.2532 18.665
7.2684 18.466
7.2836 19.087
7.2987 18.986
7.3139 18.734
7.3291 19.242
7.3443 19.046
7.3594 19.242
7.3746 18.948
7.3898 19.115
7.4050 19.286
7.4201 19.144
7.4353 19.492
7.4505 19.174
7.4657 19.198
7.4808 19.419
7.4960 19.585
7.5112 19.953
7.5264 19.391
7.5415 19.386
7.5567 19.829
7.5719 19.791
7.5871 19.862
7.6022 19.634
7.6174 19.770
7.6326 19.954
7.6478 20.047
7.6629 20.182
7.6781 20.126
7.6933 19.913
7.7085 20.030
7.7236 20.144
7.7388 20.236
7.7540 20.448
7.7692 20.535
7.7843 20.626
7.7995 20.473
7.8147 20.304
7.8299 20.809
7.8450 20.884
7.8602 20.518
7.8754 20.479
7.8905 20.670
7.9057 20.861
7.9209 21.196
7.9361 21.052
7.9512 20.684
7.9664 20.422
7.9816 20.684
7.9968 20.953
8.0119 20.835
8.0271 20.643
8.0423 20.732
8.0575 20.737
8.0726 20.889
8.0878 20.740
8.1030 20.984
8.1182 21.289
8.1333 21.388
8.1485 21.412
8.1637 21.307
8.1789 20.958
8.1940 21.185
8.2092 20.996
8.2244 21.317
8.2396 21.071
8.2547 21.114
8.2699 21.074
8.2851 21.537
8.3003 21.166
8.3154 21.177
8.3306 21.696
8.3458 21.715
8.3610 21.161
8.3761 21.416
8.3913 21.879
8.4065 21.793
8.4217 21.901
8.4368 22.403
8.4520 22.168
8.4672 21.841
8.4824 22.167
8.4975 21.369
8.5127 21.544
8.5279 21.342
8.5431 22.081
8.5582 22.765
8.5734 22.132
8.5886 21.748
8.6038 21.894
8.6189 22.060
8.6341 21.751
8.6493 22.209
8.6645 22.105
8.6796 22.223
8.6948 21.961
8.7100 22.540
8.7252 22.423
8.7403 22.219
8.7555 21.964
8.7707 21.961
8.7859 22.277
8.8010 22.018
8.8162 22.132
8.8314 22.298
8.8466 22.224
8.8617 22.433
8.8769 22.511
8.8921 22.532
8.9073 22.029
8.9224 22.203
8.9376 22.365
8.9528 22.432
8.9680 22.078
8.9831 22.080
8.9983 22.806
9.0135 22.498
9.0287 22.742
9.0438 22.626
9.0590 22.325
9.0742 22.655
9.0894 22.391
9.1045 22.498
9.1197 22.364
9.1349 22.467
9.1501 22.460
9.1652 22.487
9.1804 22.584
9.1956 22.699
9.2108 22.482
9.2259 22.927
9.2411 22.809
9.2563 22.431
9.2715 22.928
9.2866 23.151
9.3018 22.797
9.3170 22.687
9.3322 22.517
9.3473 22.464
9.3625 22.874
9.3777 22.863
9.3929 22.957
9.4080 22.891
9.4232 23.002
9.4384 22.890
9.4536 23.024
9.4687 23.526
9.4839 23.114
9.4991 22.808
9.5143 22.927
9.5294 23.033
9.5446 22.954
9.5598 22.998
9.5750 23.116
9.5901 23.150
9.6053 23.142
9.6205 23.137
9.6357 23.023
9.6508 23.181
9.6660 23.476
9.6812 23.105
9.6964 23.327
9.7115 23.551
9.7267 23.509
9.7419 23.835
9.7571 24.001
9.7722 23.729
9.7874 23.592
9.8026 23.636
9.8178 23.688
9.8329 23.358
9.8481 22.918
9.8633 23.069
9.8785 23.586
9.8936 23.514
9.9088 23.243
9.9240 23.564
9.9392 23.552
9.9543 23.534
9.9695 23.202
9.9847 23.013
9.9999 23.178
10.0150 23.020
10.0302 22.931
10.0454 23.094
10.0606 23.338
10.0757 23.042
10.0909 23.030
10.1061 23.213
10.1213 23.319
10.1364 23.512
10.1516 23.568
10.1668 23.318
10.1820 22.961
10.1971 22.934
10.2123 23.117
10.2275 23.118
10.2427 22.781
10.2578 22.902
10.2730 22.713
10.2882 22.823
10.3034 22.636
10.3185 22.888
10.3337 22.836
10.3489 22.665
10.3641 22.308
10.3792 22.522
10.3944 22.469
10.4096 22.467
10.4248 22.289
10.4399 22.147
10.4551 22.298
10.4703 22.326
10.4855 22.373
10.5006 22.646
10.5158 22.809
10.5310 22.745
10.5462 22.314
10.5613 22.311
10.5765 22.581
10.5917 22.292
10.6069 22.169
10.6220 22.006
10.6372 22.203
10.6524 22.659
10.6676 22.423
10.6827 22.204
10.6979 22.563
10.7131 22.290
10.7283 22.078
10.7434 22.284
10.7586 22.241
10.7738 22.286
10.7890 22.271
10.8041 22.439
10.8193 22.286
10.8345 21.836
10.8497 21.990
10.8648 21.975
10.8800 22.337
10.8952 22.116
10.9104 22.058
10.9255 21.927
10.9407 21.895
10.9559 21.990
10.9711 22.195
10.9862 22.023
11.0014 22.050
11.0166 22.160
11.0318 22.255
11.0469 22.068
11.0621 21.750
11.0773 21.609
11.0925 21.985
11.1076 21.921
11.1228 21.927
11.1380 21.648
11.1532 21.898
11.1683 21.518
11.1835 21.397
11.1987 21.462
11.2139 21.713
11.2290 21.593
11.2442 21.584
11.2594 21.826
11.2746 21.581
11.2897 21.539
11.3049 21.263
11.3201 21.278
11.3353 21.594
11.3504 21.492
11.3656 21.145
11.3808 21.431
11.3960 21.452
11.4111 21.216
11.4263 21.016
11.4415 20.972
11.4567 21.172
11.4718 21.187
11.4870 21.260
11.5022 20.995
11.5174 20.994
11.5325 21.290
11.5477 20.869
11.5629 20.839
11.5781 20.617
11.5932 20.791
11.6084 21.013
11.6236 20.418
11.6388 20.408
11.6539 20.476
11.6691 20.666
11.6843 20.269
11.6995 20.220
11.7146 20.384
11.7298 20.530
11.7450 20.451
11.7602 20.535
11.7753 20.438
11.7905 19.973
11.8057 19.752
11.8209 19.925
11.8360 19.777
11.8512 19.789
11.8664 19.837
11.8816 19.483
11.8967 19.539
11.9119 19.775
11.9271 19.701
11.9423 19.625
11.9574 19.530
11.9726 19.426
11.9878 19.219
12.0030 19.199
12.0181 19.048
12.0333 18.697
12.0485 19.020
12.0637 18.734
12.0788 18.591
12.0940 18.365
12.1092 18.536
12.1244 18.440
12.1395 18.604
12.1547 18.537
12.1699 18.568
12.1851 18.381
12.2002 18.168
12.2154 18.220
12.2306 18.191
12.2458 17.928
12.2609 17.534
12.2761 17.933
12.2913 17.671
12.3065 17.414
12.3216 17.566
12.3368 17.754
12.3520 17.289
12.3672 17.251
12.3823 17.319
12.3975 17.185
12.4127 17.368
12.4279 17.110
12.4430 16.866
12.4582 16.731
12.4734 16.659
12.4886 16.458
12.5037 16.084
12.5189 16.357
12.5341 16.607
12.5493 16.400
12.5644 16.427
12.5796 16.324
12.5948 16.296
12.6100 16.413
12.6251 16.041
12.6403 15.784
12.6555 15.981
12.6707 15.913
12.6858 15.693
12.7010 15.554
12.7162 15.663
12.7314 15.717
12.7465 15.355
12.7617 15.278
12.7769 15.111
12.7921 14.753
12.8072 14.955
12.8224 15.297
12.8376 15.118
12.8528 14.727
12.8679 14.933
12.8831 14.787
12.8983 14.589
12.9135 14.749
12.9286 14.595
12.9438 14.679
12.9590 14.627
12.9742 14.454
12.9893 14.397
13.0045 14.308
13.0197 14.250
13.0349 14.101
13.0500 14.096
13.0652 13.828
13.0804 13.585
13.0956 13.572
13.1107 13.591
13.1259 13.654
13.1411 13.585
13.1563 13.573
13.1714 13.710
13.1866 13.560
13.2018 13.407
13.2170 13.509
13.2321 13.469
13.2473 13.468
13.2625 13.393
13.2777 13.477
13.2928 13.336
13.3080 12.890
13.3232 12.823
13.3384 13.052
13.3535 13.287
13.3687 13.216
13.3839 13.154
13.3991 13.126
13.4142 12.982
13.4294 12.854
13.4446 12.777
13.4598 12.731
13.4749 12.754
13.4901 12.579
13.5053 12.443
13.5205 12.392
13.5356 12.395
13.5508 12.487
13.5660 12.416
13.5812 12.367
13.5963 12.437
13.6115 12.539
13.6267 12.225
13.6419 12.266
13.6570 12.415
13.6722 12.237
13.6874 12.042
13.7026 12.052
13.7177 12.276
13.7329 12.108
13.7481 12.088
13.7633 11.874
13.7784 11.684
13.7936 11.900
13.8088 12.022
13.8239 12.337
13.8391 12.432
13.8543 12.308
13.8695 12.439
13.8846 12.448
13.8998 12.351
13.9150 12.064
13.9302 11.981
13.9453 12.044
13.9605 11.845
13.9757 11.543
13.9909 11.569
14.0060 11.682
14.0212 11.791
14.0364 11.536
14.0516 11.675
14.0667 11.719
14.0819 11.567
14.0971 11.406
14.1123 11.416
14.1274 11.606
14.1426 11.650
14.1578 11.458
14.1730 11.659
14.1881 11.784
14.2033 11.866
14.2185 11.741
14.2337 11.556
14.2488 11.648
14.2640 11.707
14.2792 11.931
14.2944 12.010
14.3095 12.098
14.3247 12.117
14.3399 12.168
14.3551 12.728
14.3702 12.728
14.3854 12.780
14.4006 13.127
14.4158 12.984
14.4309 12.864
14.4461 12.900
14.4613 12.691
14.4765 12.594
14.4916 12.018
14.5068 11.906
14.5220 11.978
14.5372 11.432
14.5523 11.336
14.5675 11.237
14.5827 11.004
14.5979 10.936
14.6130 10.952
14.6282 10.738
14.6434 10.830
14.6586 11.024
14.6737 11.039
14.6889 11.095
14.7041 10.371
14.7193 10.394
14.7344 10.594
14.7496 10.643
14.7648 10.074
14.7800 10.551
14.7951 10.711
14.8103 10.560
14.8255 10.423
14.8407 10.302
14.8558 10.507
14.8710 10.398
14.8862 10.450
14.9014 10.445
14.9165 10.570
14.9317 10.531
14.9469 10.362
14.9621 10.569
14.9772 9.980
14.9924 10.287
15.0076 10.499
15.0228 10.532
15.0379 10.410
15.0531 10.232
15.0683 10.545
15.0835 10.128
15.0986 10.091
15.1138 10.214
15.1290 9.952
15.1442 10.361
15.1593 10.449
15.1745 10.284
15.1897 10.005
15.2049 10.055
15.2200 10.316
15.2352 9.824
15.2504 10.109
15.2656 10.016
15.2807 10.234
15.2959 10.139
15.3111 9.874
15.3263 10.430
15.3414 9.866
15.3566 10.144
15.3718 10.210
15.3870 10.349
15.4021 10.349
15.4173 10.269
15.4325 10.107
15.4477 10.345
15.4628 10.112
15.4780 10.251
15.4932 9.940
15.5084 10.229
15.5235 9.921
15.5387 10.029
15.5539 9.862
15.5691 9.862
15.5842 9.709
15.5994 9.534
15.6146 9.786
15.6298 9.483
15.6449 9.765
15.6601 9.708
15.6753 9.660
15.6905 9.711
15.7056 9.672
15.7208 9.467
15.7360 9.824
15.7512 9.656
15.7663 9.911
15.7815 9.655
15.7967 9.780
15.8119 9.768
15.8270 9.528
15.8422 9.446
15.8574 9.369
15.8726 9.420
15.8877 9.825
15.9029 9.469
15.9181 9.416
15.9333 9.304
15.9484 9.683
15.9636 9.737
15.9788 9.708
15.9940 9.707
16.0091 9.477
16.0243 9.563
16.0395 9.706
16.0547 9.602
16.0698 9.359
16.0850 9.649
16.1002 9.678
16.1154 9.764
16.1305 9.515
16.1457 9.450
16.1609 9.577
16.1761 9.561
16.1912 9.598
16.2064 9.570
16.2216 9.749
16.2368 9.746
16.2519 9.610
16.2671 9.587
16.2823 9.464
16.2975 9.669
16.3126 9.721
16.3278 9.883
16.3430 9.869
16.3582 9.813
16.3733 9.781
16.3885 9.827
16.4037 9.739
16.4189 9.565
16.4340 9.380
16.4492 9.511
16.4644 9.629
16.4796 9.594
16.4947 9.523
16.5099 9.626
16.5251 9.737
16.5403 9.840
16.5554 9.835
16.5706 9.572
16.5858 9.528
16.6010 9.550
16.6161 9.693
16.6313 9.532
16.6465 9.485
16.6617 9.685
16.6768 9.568
16.6920 9.763
16.7072 9.862
16.7224 9.921
16.7375 9.971
16.7527 9.909
16.7679 10.010
16.7831 9.941
16.7982 9.850
16.8134 9.805
16.8286 9.601
16.8438 9.593
16.8589 9.721
16.8741 9.828
16.8893 9.926
16.9045 9.926
16.9196 9.869
16.9348 9.944
16.9500 9.811
16.9652 9.725
16.9803 9.926
16.9955 10.063
17.0107 10.065
17.0259 9.927
17.0410 10.036
17.0562 10.267
17.0714 10.327
17.0866 10.287
17.1017 10.491
17.1169 10.742
17.1321 10.870
17.1473 11.133
17.1624 11.661
17.1776 12.294
17.1928 13.153
17.2080 13.838
17.2231 14.750
17.2383 16.237
17.2535 17.571
17.2687 18.524
17.2838 18.629
17.2990 17.932
17.3142 16.935
17.3294 16.206
17.3445 16.076
17.3597 16.139
17.3749 15.800
17.3901 15.172
17.4052 14.222
17.4204 13.128
17.4356 12.483
17.4508 12.398
17.4659 12.217
17.4811 11.747
17.4963 11.557
17.5115 11.223
17.5266 10.989
17.5418 10.945
17.5570 10.975
17.5722 11.098
17.5873 11.100
17.6025 11.232
17.6177 11.289
17.6329 11.114
17.6480 11.092
17.6632 11.358
17.6784 11.625
17.6936 11.649
17.7087 11.462
17.7239 11.346
17.7391 11.142
17.7543 10.942
17.7694 10.932
17.7846 11.032
17.7998 10.930
17.8150 10.677
17.8301 10.713
17.8453 10.576
17.8605 10.367
17.8757 10.493
17.8908 10.369
17.9060 10.151
17.9212 10.307
17.9364 10.209
17.9515 9.862
17.9667 9.914
17.9819 10.245
17.9971 10.077
18.0122 9.929
18.0274 10.187
18.0426 10.182
18.0578 10.033
18.0729 10.118
18.0881 10.308
18.1033 10.247
18.1185 10.227
18.1336 10.039
18.1488 9.952
18.1640 9.862
18.1792 9.820
18.1943 9.600
18.2095 9.714
18.2247 9.893
18.2399 9.755
18.2550 9.723
18.2702 9.672
18.2854 9.705
18.3006 9.844
18.3157 9.923
18.3309 9.691
18.3461 9.766
18.3613 9.935
18.3764 9.891
18.3916 9.772
18.4068 9.709
18.4220 9.485
18.4371 9.658
18.4523 9.828
18.4675 9.848
18.4827 9.768
18.4978 9.614
18.5130 9.621
18.5282 9.752
18.5434 9.666
18.5585 9.863
18.5737 9.813
18.5889 9.679
18.6041 9.704
18.6192 9.708
18.6344 9.683
18.6496 9.689
18.6648 9.589
18.6799 9.558
18.6951 9.683
18.7103 9.792
18.7255 9.622
18.7406 9.608
18.7558 9.872
18.7710 10.014
18.7862 9.979
18.8013 9.945
18.8165 9.716
18.8317 9.639
18.8469 9.795
18.8620 9.878
18.8772 10.023
18.8924 9.886
18.9076 9.607
18.9227 9.940
18.9379 10.140
18.9531 10.027
18.9683 10.054
18.9834 10.020
18.9986 9.918
19.0138 10.106
19.0290 10.184
19.0441 10.206
19.0593 10.170
19.0745 10.294
19.0897 10.184
19.1048 10.327
19.1200 10.301
19.1352 10.292
19.1504 10.296
19.1655 10.462
19.1807 10.612
19.1959 10.452
19.2111 10.533
19.2262 10.610
19.2414 10.809
19.2566 10.955
19.2718 10.711
19.2869 10.624
19.3021 10.882
19.3173 10.766
19.3325 10.821
19.3476 11.138
19.3628 11.130
19.3780 11.148
19.3932 11.165
19.4083 11.012
19.4235 10.959
19.4387 11.060
19.4539 11.102
19.4690 11.198
19.4842 11.245
19.4994 11.294
19.5146 11.336
19.5297 11.358
19.5449 11.561
19.5601 11.486
19.5753 11.569
19.5904 11.667
19.6056 11.527
19.6208 11.659
19.6360 11.644
19.6511 11.594
19.6663 11.697
19.6815 11.841
19.6967 11.751
19.7118 11.507
19.7270 11.660
19.7422 11.765
19.7574 11.781
19.7725 11.755
19.7877 11.901
19.8029 12.154
19.8180 12.129
19.8332 12.196
19.8484 12.207
19.8636 12.240
19.8787 12.421
19.8939 12.676
19.9091 13.062
19.9243 13.416
19.9394 13.783
19.9546 14.175
19.9698 14.294
19.9850 14.294
20.0001 14.359
20.0153 14.431
20.0305 14.303
20.0457 14.005
20.0608 13.744
20.0760 13.797
20.0912 14.011
20.1064 13.789
20.1215 13.605
20.1367 13.453
20.1519 13.121
20.1671 13.005
20.1822 13.022
20.1974 12.869
20.2126 12.840
20.2278 12.738
20.2429 12.646
20.2581 12.337
20.2733 11.844
20.2885 11.674
20.3036 11.864
20.3188 11.894
20.3340 11.991
20.3492 11.914
20.3643 11.925
20.3795 12.016
20.3947 11.921
20.4099 11.971
20.4250 11.837
20.4402 11.870
20.4554 12.072
20.4706 11.852
20.4857 11.608
20.5009 11.628
20.5161 11.410
20.5313 11.370
20.5464 11.450
20.5616 11.489
20.5768 11.265
20.5920 11.285
20.6071 11.155
20.6223 10.950
20.6375 11.032
20.6527 10.750
20.6678 10.699
20.6830 10.722
20.6982 10.400
20.7134 10.430
20.7285 10.562
20.7437 10.683
20.7589 10.207
20.7741 10.273
20.7892 10.337
20.8044 10.593
20.8196 10.363
20.8348 10.107
20.8499 10.360
20.8651 10.275
20.8803 10.100
20.8955 10.199
20.9106 10.218
20.9258 10.005
20.9410 9.901
20.9562 9.843
20.9713 10.259
20.9865 9.976
21.0017 9.718
21.0169 10.034
21.0320 9.967
21.0472 10.050
21.0624 9.817
21.0776 9.650
21.0927 9.855
21.1079 9.777
21.1231 9.928
21.1383 9.936
21.1534 9.604
21.1686 9.674
21.1838 10.049
21.1990 10.000
21.2141 9.521
21.2293 9.895
21.2445 9.687
21.2597 9.830
21.2748 9.515
21.2900 9.690
21.3052 9.558
21.3204 9.808
21.3355 9.431
21.3507 9.577
21.3659 9.337
21.3811 9.271
21.3962 9.237
21.4114 9.416
21.4266 9.300
21.4418 9.471
21.4569 9.487
21.4721 9.336
21.4873 9.150
21.5025 9.285
21.5176 9.349
21.5328 9.429
21.5480 9.228
21.5632 9.302
21.5783 9.112
21.5935 9.303
21.6087 9.327
21.6239 9.193
21.6390 9.045
21.6542 8.959
21.6694 9.131
21.6846 9.070
21.6997 9.075
21.7149 9.037
21.7301 9.105
21.7453 9.116
21.7604 9.053
21.7756 9.018
21.7908 8.930
21.8060 8.855
21.8211 9.055
21.8363 9.146
21.8515 8.876
21.8667 8.961
21.8818 9.064
21.8970 8.965
21.9122 9.000
21.9274 8.873
21.9425 8.721
21.9577 8.762
21.9729 8.864
21.9881 8.879
22.0032 8.958
22.0184 8.881
22.0336 8.773
22.0488 9.001
22.0639 8.902
22.0791 8.846
22.0943 8.915
22.1095 8.731
22.1246 8.583
22.1398 8.576
22.1550 8.586
22.1702 8.462
22.1853 8.366
22.2005 8.356
22.2157 8.590
22.2309 8.455
22.2460 8.226
22.2612 8.218
22.2764 8.588
22.2916 8.741
22.3067 8.495
22.3219 8.424
22.3371 8.823
22.3523 8.742
22.3674 8.417
22.3826 8.241
22.3978 8.395
22.4130 8.607
22.4281 8.537
22.4433 8.452
22.4585 8.135
22.4737 8.263
22.4888 8.580
22.5040 8.517
22.5192 8.572
22.5344 8.530
22.5495 8.549
22.5647 8.454
22.5799 8.372
22.5951 8.809
22.6102 8.132
22.6254 8.718
22.6406 8.334
22.6558 8.293
22.6709 8.494
22.6861 8.306
22.7013 8.140
22.7165 7.871
22.7316 6.369
