'Id: "" Comment: "" Operator: "Lab Manager" Anode: "Mo" Scantype: "Still (Eiger2R_500K (1D mode))" TimePerStep: "300" X: "11.8" Y: "9.4" Z: "11.284" 
7.2532 18.811
7.2684 18.175
7.2836 18.578
7.2987 18.906
7.3139 18.708
7.3291 18.751
7.3443 19.452
7.3594 19.054
7.3746 19.323
7.3898 19.329
7.4050 19.668
7.4201 19.244
7.4353 19.359
7.4505 19.370
7.4657 19.605
7.4808 19.674
7.4960 19.718
7.5112 19.469
7.5264 19.997
7.5415 19.701
7.5567 19.759
7.5719 19.775
7.5871 19.710
7.6022 19.765
7.6174 20.023
7.6326 20.019
7.6478 20.450
7.6629 20.379
7.6781 20.136
7.6933 20.035
7.7085 20.041
7.7236 19.991
7.7388 20.253
7.7540 20.265
7.7692 20.087
7.7843 20.404
7.7995 20.341
7.8147 20.461
7.8299 20.638
7.8450 20.719
7.8602 20.825
7.8754 21.003
7.8905 20.822
7.9057 20.824
7.9209 20.688
7.9361 20.681
7.9512 20.973
7.9664 20.741
7.9816 20.806
7.9968 21.055
8.0119 20.901
8.0271 21.005
8.0423 21.182
8.0575 21.431
8.0726 21.427
8.0878 21.456
8.1030 21.275
8.1182 21.020
8.1333 21.226
8.1485 21.083
8.1637 21.437
8.1789 21.381
8.1940 21.504
8.2092 21.682
8.2244 21.225
8.2396 21.235
8.2547 21.455
8.2699 21.810
8.2851 21.884
8.3003 21.522
8.3154 21.495
8.3306 21.622
8.3458 21.497
8.3610 21.495
8.3761 22.085
8.3913 22.056
8.4065 21.864
8.4217 22.221
8.4368 21.920
8.4520 21.612
8.4672 22.153
8.4824 22.251
8.4975 22.189
8.5127 21.494
8.5279 21.814
8.5431 22.048
8.5582 22.068
8.5734 22.232
8.5886 22.345
8.6038 22.355
8.6189 22.420
8.6341 22.054
8.6493 22.123
8.6645 21.981
8.6796 22.426
8.6948 22.453
8.7100 22.230
8.7252 22.700
8.7403 22.508
8.7555 22.636
8.7707 22.515
8.7859 22.395
8.8010 22.033
8.8162 22.404
8.8314 22.441
8.8466 22.400
8.8617 22.789
8.8769 22.757
8.8921 23.080
8.9073 22.784
8.9224 22.718
8.9376 22.601
8.9528 22.559
8.9680 22.556
8.9831 22.522
8.9983 22.732
9.0135 22.926
9.0287 23.121
9.0438 23.116
9.0590 22.820
9.0742 22.679
9.0894 22.761
9.1045 22.568
9.1197 22.541
9.1349 22.788
9.1501 22.974
9.1652 22.988
9.1804 22.764
9.1956 23.182
9.2108 23.103
9.2259 22.939
9.2411 23.049
9.2563 22.874
9.2715 22.839
9.2866 22.726
9.3018 22.918
9.3170 23.130
9.3322 23.100
9.3473 22.852
9.3625 23.007
9.3777 23.109
9.3929 22.895
9.4080 22.854
9.4232 23.215
9.4384 23.298
9.4536 22.694
9.4687 23.060
9.4839 23.089
9.4991 22.947
9.5143 23.056
9.5294 23.089
9.5446 23.295
9.5598 23.358
9.5750 23.180
9.5901 23.101
9.6053 23.498
9.6205 23.532
9.6357 23.368
9.6508 23.327
9.6660 23.026
9.6812 23.335
9.6964 23.835
9.7115 23.628
9.7267 23.462
9.7419 23.885
9.7571 23.774
9.7722 23.641
9.7874 23.694
9.8026 23.393
9.8178 23.276
9.8329 23.329
9.8481 23.321
9.8633 23.394
9.8785 23.562
9.8936 23.388
9.9088 23.148
9.9240 23.193
9.9392 23.541
9.9543 23.698
9.9695 23.631
9.9847 23.391
9.9999 23.372
10.0150 23.463
10.0302 23.352
10.0454 23.344
10.0606 23.201
10.0757 23.428
10.0909 23.599
10.1061 23.457
10.1213 23.319
10.1364 23.292
10.1516 23.574
10.1668 23.804
10.1820 23.721
10.1971 23.446
10.2123 23.285
10.2275 23.095
10.2427 23.016
10.2578 23.090
10.2730 22.883
10.2882 22.972
10.3034 23.380
10.3185 23.106
10.3337 22.608
10.3489 22.636
10.3641 22.838
10.3792 22.937
10.3944 23.076
10.4096 22.613
10.4248 22.476
10.4399 22.651
10.4551 22.607
10.4703 22.522
10.4855 22.670
10.5006 22.495
10.5158 22.448
10.5310 22.190
10.5462 22.420
10.5613 22.631
10.5765 22.112
10.5917 22.074
10.6069 22.697
10.6220 22.801
10.6372 22.580
10.6524 22.596
10.6676 22.432
10.6827 22.894
10.6979 22.721
10.7131 22.553
10.7283 22.499
10.7434 22.556
10.7586 22.675
10.7738 22.600
10.7890 22.763
10.8041 22.277
10.8193 21.777
10.8345 22.096
10.8497 22.284
10.8648 22.387
10.8800 22.108
10.8952 22.206
10.9104 22.357
10.9255 22.004
10.9407 22.138
10.9559 22.016
10.9711 21.974
10.9862 21.907
11.0014 21.933
11.0166 22.021
11.0318 22.091
11.0469 21.806
11.0621 21.988
11.0773 21.691
11.0925 21.640
11.1076 21.956
11.1228 21.893
11.1380 21.935
11.1532 21.675
11.1683 21.556
11.1835 21.850
11.1987 22.043
11.2139 21.556
11.2290 21.642
11.2442 21.506
11.2594 21.662
11.2746 21.642
11.2897 21.695
11.3049 21.646
11.3201 21.324
11.3353 21.484
11.3504 21.528
11.3656 21.457
11.3808 21.410
11.3960 21.490
11.4111 21.633
11.4263 21.146
11.4415 21.239
11.4567 21.333
11.4718 21.040
11.4870 21.140
11.5022 21.137
11.5174 21.110
11.5325 20.865
11.5477 20.720
11.5629 21.063
11.5781 20.724
11.5932 20.570
11.6084 20.676
11.6236 20.809
11.6388 20.329
11.6539 20.442
11.6691 20.728
11.6843 20.781
11.6995 20.345
11.7146 20.000
11.7298 20.308
11.7450 20.327
11.7602 20.234
11.7753 20.294
11.7905 20.519
11.8057 20.444
11.8209 20.035
11.8360 20.110
11.8512 20.156
11.8664 19.967
11.8816 19.960
11.8967 19.710
11.9119 19.581
11.9271 19.760
11.9423 19.647
11.9574 19.553
11.9726 19.604
11.9878 19.415
12.0030 19.198
12.0181 19.375
12.0333 19.285
12.0485 18.861
12.0637 18.917
12.0788 18.862
12.0940 18.914
12.1092 19.025
12.1244 18.878
12.1395 18.591
12.1547 18.577
12.1699 18.643
12.1851 18.521
12.2002 18.308
12.2154 18.132
12.2306 17.824
12.2458 17.909
12.2609 18.191
12.2761 17.961
12.2913 17.682
12.3065 17.828
12.3216 17.850
12.3368 17.684
12.3520 17.304
12.3672 17.088
12.3823 17.264
12.3975 17.308
12.4127 17.230
12.4279 17.100
12.4430 16.698
12.4582 16.661
12.4734 16.830
12.4886 16.812
12.5037 16.600
12.5189 16.600
12.5341 16.397
12.5493 16.172
12.5644 16.407
12.5796 16.408
12.5948 16.277
12.6100 16.366
12.6251 16.047
12.6403 16.024
12.6555 15.909
12.6707 15.614
12.6858 15.491
12.7010 15.494
12.7162 15.488
12.7314 15.556
12.7465 15.483
12.7617 15.307
12.7769 15.214
12.7921 15.386
12.8072 15.258
12.8224 15.041
12.8376 15.097
12.8528 15.151
12.8679 15.041
12.8831 14.806
12.8983 14.731
12.9135 14.756
12.9286 14.816
12.9438 14.546
12.9590 14.338
12.9742 14.518
12.9893 14.536
13.0045 14.432
13.0197 14.294
13.0349 14.221
13.0500 14.168
13.0652 13.987
13.0804 13.987
13.0956 13.985
13.1107 13.830
13.1259 13.764
13.1411 13.649
13.1563 13.586
13.1714 13.672
13.1866 13.582
13.2018 13.698
13.2170 13.565
13.2321 13.228
13.2473 13.397
13.2625 13.399
13.2777 13.223
13.2928 13.055
13.3080 13.052
13.3232 13.274
13.3384 13.327
13.3535 13.143
13.3687 12.837
13.3839 12.772
13.3991 13.077
13.4142 12.889
13.4294 12.747
13.4446 12.946
13.4598 12.797
13.4749 12.747
13.4901 12.698
13.5053 12.273
13.5205 12.216
13.5356 12.403
13.5508 12.291
13.5660 12.258
13.5812 12.218
13.5963 12.167
13.6115 12.134
13.6267 12.247
13.6419 12.156
13.6570 12.257
13.6722 12.252
13.6874 12.047
13.7026 12.027
13.7177 12.017
13.7329 12.089
13.7481 12.107
13.7633 12.061
13.7784 12.003
13.7936 12.095
13.8088 12.216
13.8239 12.331
13.8391 12.115
13.8543 12.164
13.8695 12.298
13.8846 12.528
13.8998 12.119
13.9150 11.811
13.9302 11.863
13.9453 11.912
13.9605 11.907
13.9757 11.790
13.9909 11.559
14.0060 11.487
14.0212 11.758
14.0364 11.769
14.0516 11.455
14.0667 11.560
14.0819 11.391
14.0971 11.105
14.1123 11.468
14.1274 11.776
14.1426 11.489
14.1578 11.483
14.1730 11.454
14.1881 11.353
14.2033 11.554
14.2185 11.612
14.2337 11.543
14.2488 11.398
14.2640 11.373
14.2792 11.866
14.2944 11.609
14.3095 11.608
14.3247 12.212
14.3399 12.255
14.3551 12.634
14.3702 12.707
14.3854 13.102
14.4006 13.416
14.4158 13.391
14.4309 13.704
14.4461 13.271
14.4613 12.989
14.4765 12.886
14.4916 12.664
14.5068 12.445
14.5220 12.260
14.5372 12.055
14.5523 11.613
14.5675 11.298
14.5827 11.268
14.5979 10.905
14.6130 10.970
14.6282 10.798
14.6434 10.921
14.6586 10.859
14.6737 10.885
14.6889 10.690
14.7041 10.853
14.7193 10.458
14.7344 10.387
14.7496 10.745
14.7648 10.477
14.7800 10.897
14.7951 10.809
14.8103 10.640
14.8255 10.403
14.8407 10.768
14.8558 10.859
14.8710 10.582
14.8862 10.286
14.9014 10.465
14.9165 10.602
14.9317 10.479
14.9469 10.327
14.9621 10.253
14.9772 10.261
14.9924 10.457
15.0076 10.219
15.0228 10.394
15.0379 10.270
15.0531 10.367
15.0683 10.182
15.0835 10.521
15.0986 10.361
15.1138 10.120
15.1290 10.490
15.1442 10.446
15.1593 10.449
15.1745 10.230
15.1897 9.749
15.2049 10.168
15.2200 10.030
15.2352 9.920
15.2504 10.152
15.2656 10.151
15.2807 9.995
15.2959 10.663
15.3111 10.208
15.3263 10.336
15.3414 10.107
15.3566 10.161
15.3718 10.153
15.3870 10.437
15.4021 10.314
15.4173 10.051
15.4325 10.121
15.4477 10.219
15.4628 10.331
15.4780 10.350
15.4932 9.924
15.5084 10.287
15.5235 10.277
15.5387 9.890
15.5539 10.070
15.5691 9.893
15.5842 10.188
15.5994 9.856
15.6146 9.646
15.6298 9.877
15.6449 9.969
15.6601 9.783
15.6753 9.698
15.6905 10.032
15.7056 9.798
15.7208 9.820
15.7360 9.913
15.7512 9.617
15.7663 9.647
15.7815 9.574
15.7967 9.500
15.8119 9.614
15.8270 9.603
15.8422 9.741
15.8574 9.716
15.8726 9.551
15.8877 9.385
15.9029 9.752
15.9181 9.570
15.9333 9.538
15.9484 9.881
15.9636 9.553
15.9788 9.393
15.9940 9.532
16.0091 9.533
16.0243 9.374
16.0395 9.502
16.0547 9.488
16.0698 9.381
16.0850 9.628
16.1002 9.658
16.1154 9.589
16.1305 9.751
16.1457 9.533
16.1609 9.494
16.1761 10.029
16.1912 9.611
16.2064 9.752
16.2216 9.905
16.2368 9.565
16.2519 9.564
16.2671 9.488
16.2823 9.935
16.2975 9.977
16.3126 9.766
16.3278 9.759
16.3430 10.025
16.3582 9.913
16.3733 9.777
16.3885 10.171
16.4037 9.971
16.4189 9.890
16.4340 9.919
16.4492 9.581
16.4644 9.582
16.4796 9.822
16.4947 9.779
16.5099 9.691
16.5251 9.733
16.5403 9.720
16.5554 9.636
16.5706 9.693
16.5858 9.458
16.6010 9.452
16.6161 9.656
16.6313 9.624
16.6465 9.405
16.6617 9.587
16.6768 9.735
16.6920 9.932
16.7072 10.032
16.7224 9.827
16.7375 9.572
16.7527 9.604
16.7679 9.792
16.7831 9.909
16.7982 9.817
16.8134 9.910
16.8286 9.942
16.8438 9.776
16.8589 9.461
16.8741 9.483
16.8893 9.553
16.9045 9.778
16.9196 9.902
16.9348 9.615
16.9500 9.495
16.9652 9.762
16.9803 9.942
16.9955 9.866
17.0107 9.920
17.0259 9.902
17.0410 10.012
17.0562 10.152
17.0714 10.141
17.0866 10.263
17.1017 10.427
17.1169 10.529
17.1321 10.893
17.1473 11.362
17.1624 11.604
17.1776 11.932
17.1928 12.747
17.2080 13.918
17.2231 15.238
17.2383 16.485
17.2535 17.560
17.2687 17.995
17.2838 18.152
17.2990 17.891
17.3142 17.018
17.3294 16.211
17.3445 15.913
17.3597 16.181
17.3749 15.948
17.3901 14.978
17.4052 13.846
17.4204 13.231
17.4356 12.623
17.4508 11.826
17.4659 11.586
17.4811 11.538
17.4963 11.491
17.5115 11.179
17.5266 10.767
17.5418 10.797
17.5570 10.934
17.5722 10.861
17.5873 10.934
17.6025 11.046
17.6177 11.130
17.6329 11.153
17.6480 11.311
17.6632 11.681
17.6784 11.812
17.6936 12.094
17.7087 12.294
17.7239 11.888
17.7391 11.578
17.7543 11.653
17.7694 11.394
17.7846 11.366
17.7998 11.432
17.8150 11.249
17.8301 10.978
17.8453 10.667
17.8605 10.531
17.8757 10.732
17.8908 10.807
17.9060 10.642
17.9212 10.377
17.9364 10.211
17.9515 10.245
17.9667 10.054
17.9819 9.974
17.9971 10.320
18.0122 10.377
18.0274 10.398
18.0426 10.325
18.0578 10.237
18.0729 10.161
18.0881 10.051
18.1033 10.245
18.1185 10.095
18.1336 9.979
18.1488 10.061
18.1640 9.914
18.1792 9.853
18.1943 9.847
18.2095 10.008
18.2247 9.874
18.2399 9.741
18.2550 9.810
18.2702 9.922
18.2854 9.857
18.3006 9.893
18.3157 9.881
18.3309 9.798
18.3461 9.792
18.3613 9.921
18.3764 9.944
18.3916 9.829
18.4068 9.825
18.4220 9.728
18.4371 9.812
18.4523 9.833
18.4675 9.791
18.4827 9.814
18.4978 9.836
18.5130 9.872
18.5282 9.917
18.5434 9.774
18.5585 9.681
18.5737 9.827
18.5889 9.766
18.6041 9.627
18.6192 9.738
18.6344 9.657
18.6496 9.639
18.6648 9.799
18.6799 9.912
18.6951 9.628
18.7103 9.703
18.7255 9.599
18.7406 9.569
18.7558 9.698
18.7710 9.670
18.7862 9.703
18.8013 9.601
18.8165 9.677
18.8317 9.803
18.8469 9.922
18.8620 9.821
18.8772 9.759
18.8924 9.962
18.9076 10.165
18.9227 10.050
18.9379 9.899
18.9531 10.007
18.9683 9.924
18.9834 9.899
18.9986 9.958
19.0138 9.913
19.0290 9.748
19.0441 9.786
19.0593 10.143
19.0745 10.249
19.0897 10.281
19.1048 10.417
19.1200 10.464
19.1352 10.224
19.1504 10.296
19.1655 10.812
19.1807 10.947
19.1959 11.009
19.2111 11.015
19.2262 10.789
19.2414 10.560
19.2566 10.513
19.2718 10.742
19.2869 10.853
19.3021 10.767
19.3173 10.881
19.3325 11.177
19.3476 10.974
19.3628 11.088
19.3780 11.345
19.3932 11.291
19.4083 11.259
19.4235 11.303
19.4387 11.328
19.4539 11.219
19.4690 11.113
19.4842 11.268
19.4994 11.381
19.5146 11.374
19.5297 11.415
19.5449 11.415
19.5601 11.307
19.5753 11.318
19.5904 11.513
19.6056 11.626
19.6208 11.467
19.6360 11.626
19.6511 11.667
19.6663 11.440
19.6815 11.608
19.6967 11.791
19.7118 11.822
19.7270 11.759
19.7422 11.588
19.7574 11.750
19.7725 11.881
19.7877 11.838
19.8029 11.790
19.8180 11.816
19.8332 12.168
19.8484 12.326
19.8636 12.416
19.8787 12.677
19.8939 12.945
19.9091 13.124
19.9243 13.239
19.9394 13.587
19.9546 13.998
19.9698 14.520
19.9850 14.783
20.0001 14.346
20.0153 13.964
20.0305 13.813
20.0457 13.789
20.0608 13.853
20.0760 13.779
20.0912 13.578
20.1064 13.539
20.1215 13.318
20.1367 13.132
20.1519 13.179
20.1671 12.945
20.1822 12.757
20.1974 12.822
20.2126 12.770
20.2278 12.865
20.2429 12.659
20.2581 12.146
20.2733 12.182
20.2885 12.044
20.3036 11.734
20.3188 11.755
20.3340 11.770
20.3492 11.927
20.3643 11.798
20.3795 11.430
20.3947 11.663
20.4099 11.844
20.4250 11.584
20.4402 11.910
20.4554 12.051
20.4706 12.030
20.4857 12.065
20.5009 12.073
20.5161 11.830
20.5313 11.764
20.5464 11.752
20.5616 11.565
20.5768 11.575
20.5920 11.805
20.6071 11.754
20.6223 11.405
20.6375 11.407
20.6527 11.078
20.6678 10.647
20.6830 10.892
20.6982 10.880
20.7134 10.690
20.7285 10.482
20.7437 10.285
20.7589 10.416
20.7741 10.447
20.7892 10.577
20.8044 10.306
20.8196 10.142
20.8348 10.125
20.8499 9.955
20.8651 10.306
20.8803 10.270
20.8955 10.084
20.9106 10.323
20.9258 10.622
20.9410 10.403
20.9562 10.378
20.9713 10.231
20.9865 10.092
21.0017 9.980
21.0169 10.067
21.0320 10.146
21.0472 9.865
21.0624 9.896
21.0776 9.610
21.0927 10.210
21.1079 9.792
21.1231 9.987
21.1383 10.199
21.1534 9.564
21.1686 9.942
21.1838 9.779
21.1990 10.045
21.2141 9.631
21.2293 9.659
21.2445 9.935
21.2597 9.608
21.2748 9.578
21.2900 9.579
21.3052 9.605
21.3204 9.293
21.3355 9.540
21.3507 9.511
21.3659 9.571
21.3811 9.748
21.3962 9.622
21.4114 9.737
21.4266 9.461
21.4418 9.360
21.4569 9.508
21.4721 9.569
21.4873 9.509
21.5025 9.413
21.5176 9.276
21.5328 9.549
21.5480 9.426
21.5632 9.387
21.5783 9.368
21.5935 9.063
21.6087 9.077
21.6239 9.297
21.6390 9.108
21.6542 9.143
21.6694 9.183
21.6846 9.051
21.6997 9.077
21.7149 9.082
21.7301 8.879
21.7453 8.761
21.7604 8.906
21.7756 9.153
21.7908 9.247
21.8060 8.963
21.8211 8.900
21.8363 9.067
21.8515 9.153
21.8667 9.223
21.8818 9.032
21.8970 9.024
21.9122 9.230
21.9274 9.090
21.9425 8.843
21.9577 8.785
21.9729 8.773
21.9881 8.846
22.0032 8.857
22.0184 8.917
22.0336 8.759
22.0488 8.806
22.0639 8.814
22.0791 8.719
22.0943 8.903
22.1095 8.753
22.1246 8.587
22.1398 8.723
22.1550 8.492
22.1702 8.565
22.1853 8.741
22.2005 8.534
22.2157 8.630
22.2309 8.802
22.2460 8.671
22.2612 8.256
22.2764 8.521
22.2916 8.534
22.3067 8.684
22.3219 8.620
22.3371 8.465
22.3523 8.532
22.3674 8.778
22.3826 8.770
22.3978 8.469
22.4130 8.509
22.4281 8.498
22.4433 8.646
22.4585 8.245
22.4737 8.404
22.4888 8.789
22.5040 8.579
22.5192 8.315
22.5344 8.446
22.5495 8.477
22.5647 8.495
22.5799 8.683
22.5951 8.682
22.6102 8.174
22.6254 8.295
22.6406 8.618
22.6558 8.070
22.6709 8.253
22.6861 8.087
22.7013 8.229
22.7165 7.987
22.7316 6.350
