'Id: "" Comment: "" Operator: "Lab Manager" Anode: "Mo" Scantype: "Still (Eiger2R_500K (1D mode))" TimePerStep: "300" X: "11.8" Y: "9.4" Z: "11.284" 
7.2532 18.739
7.2684 18.940
7.2836 18.457
7.2987 18.995
7.3139 18.919
7.3291 19.096
7.3443 19.079
7.3594 19.056
7.3746 19.150
7.3898 19.460
7.4050 19.371
7.4201 19.549
7.4353 19.101
7.4505 19.130
7.4657 19.644
7.4808 19.215
7.4960 19.458
7.5112 19.537
7.5264 19.460
7.5415 19.810
7.5567 19.567
7.5719 19.605
7.5871 19.570
7.6022 20.101
7.6174 20.177
7.6326 19.919
7.6478 20.017
7.6629 20.033
7.6781 19.863
7.6933 20.101
7.7085 20.178
7.7236 20.139
7.7388 20.189
7.7540 20.343
7.7692 20.341
7.7843 20.371
7.7995 20.376
7.8147 20.424
7.8299 20.464
7.8450 20.213
7.8602 20.464
7.8754 20.737
7.8905 20.760
7.9057 20.757
7.9209 20.923
7.9361 21.061
7.9512 21.281
7.9664 20.825
7.9816 20.708
7.9968 21.001
8.0119 21.205
8.0271 20.798
8.0423 20.578
8.0575 20.715
8.0726 21.027
8.0878 21.438
8.1030 21.376
8.1182 21.272
8.1333 21.665
8.1485 21.533
8.1637 21.187
8.1789 21.281
8.1940 21.226
8.2092 21.629
8.2244 21.251
8.2396 21.329
8.2547 21.435
8.2699 21.570
8.2851 21.232
8.3003 21.576
8.3154 21.306
8.3306 21.164
8.3458 21.842
8.3610 21.649
8.3761 21.879
8.3913 21.589
8.4065 21.423
8.4217 21.817
8.4368 22.187
8.4520 21.661
8.4672 21.947
8.4824 21.591
8.4975 21.594
8.5127 21.811
8.5279 22.422
8.5431 21.806
8.5582 21.620
8.5734 21.701
8.5886 22.388
8.6038 21.993
8.6189 22.301
8.6341 22.094
8.6493 21.805
8.6645 22.571
8.6796 22.290
8.6948 22.468
8.7100 22.147
8.7252 22.344
8.7403 22.421
8.7555 22.396
8.7707 23.005
8.7859 22.473
8.8010 22.250
8.8162 22.289
8.8314 22.756
8.8466 22.355
8.8617 22.497
8.8769 22.167
8.8921 22.292
8.9073 22.383
8.9224 22.398
8.9376 22.126
8.9528 22.429
8.9680 22.580
8.9831 22.778
8.9983 22.817
9.0135 22.518
9.0287 22.939
9.0438 22.295
9.0590 22.220
9.0742 22.461
9.0894 22.675
9.1045 22.860
9.1197 22.482
9.1349 22.562
9.1501 22.353
9.1652 22.687
9.1804 22.993
9.1956 23.032
9.2108 22.595
9.2259 22.600
9.2411 22.582
9.2563 22.790
9.2715 22.768
9.2866 22.854
9.3018 22.986
9.3170 22.726
9.3322 22.621
9.3473 23.016
9.3625 23.149
9.3777 22.997
9.3929 22.767
9.4080 22.509
9.4232 22.445
9.4384 22.742
9.4536 22.881
9.4687 22.883
9.4839 22.865
9.4991 23.169
9.5143 23.344
9.5294 22.917
9.5446 22.776
9.5598 22.673
9.5750 23.019
9.5901 23.348
9.6053 23.408
9.6205 23.179
9.6357 23.364
9.6508 23.304
9.6660 23.277
9.6812 23.555
9.6964 23.503
9.7115 23.454
9.7267 23.698
9.7419 23.749
9.7571 23.954
9.7722 24.030
9.7874 23.734
9.8026 23.485
9.8178 23.446
9.8329 23.272
9.8481 23.391
9.8633 23.579
9.8785 23.330
9.8936 23.302
9.9088 23.172
9.9240 22.943
9.9392 23.132
9.9543 23.565
9.9695 23.585
9.9847 23.271
9.9999 23.232
10.0150 23.379
10.0302 23.374
10.0454 23.208
10.0606 22.958
10.0757 22.886
10.0909 22.837
10.1061 23.062
10.1213 23.313
10.1364 23.205
10.1516 23.463
10.1668 23.600
10.1820 23.282
10.1971 23.185
10.2123 23.018
10.2275 22.698
10.2427 22.830
10.2578 22.765
10.2730 22.925
10.2882 22.681
10.3034 22.671
10.3185 22.923
10.3337 22.744
10.3489 22.866
10.3641 23.347
10.3792 23.065
10.3944 22.809
10.4096 22.789
10.4248 22.791
10.4399 22.438
10.4551 22.516
10.4703 22.557
10.4855 22.790
10.5006 22.873
10.5158 22.480
10.5310 22.388
10.5462 23.008
10.5613 22.479
10.5765 22.556
10.5917 22.738
10.6069 22.519
10.6220 22.599
10.6372 22.706
10.6524 22.590
10.6676 22.698
10.6827 22.876
10.6979 22.715
10.7131 22.642
10.7283 22.555
10.7434 21.910
10.7586 22.083
10.7738 22.110
10.7890 22.322
10.8041 22.545
10.8193 22.213
10.8345 22.451
10.8497 22.718
10.8648 22.514
10.8800 22.135
10.8952 21.983
10.9104 21.852
10.9255 22.098
10.9407 22.285
10.9559 21.946
10.9711 21.986
10.9862 21.804
11.0014 21.852
11.0166 21.991
11.0318 21.978
11.0469 22.191
11.0621 21.779
11.0773 21.887
11.0925 21.851
11.1076 21.582
11.1228 21.291
11.1380 21.856
11.1532 22.052
11.1683 21.580
11.1835 21.526
11.1987 21.769
11.2139 21.810
11.2290 21.784
11.2442 21.714
11.2594 21.612
11.2746 21.585
11.2897 21.455
11.3049 21.500
11.3201 21.475
11.3353 21.310
11.3504 21.246
11.3656 21.372
11.3808 21.896
11.3960 21.222
11.4111 21.205
11.4263 21.435
11.4415 21.371
11.4567 21.058
11.4718 21.066
11.4870 20.930
11.5022 21.048
11.5174 21.414
11.5325 20.919
11.5477 20.788
11.5629 20.930
11.5781 21.089
11.5932 21.011
11.6084 20.780
11.6236 20.880
11.6388 20.592
11.6539 20.347
11.6691 20.775
11.6843 20.692
11.6995 20.487
11.7146 20.600
11.7298 20.445
11.7450 20.033
11.7602 19.967
11.7753 20.375
11.7905 20.172
11.8057 20.115
11.8209 20.119
11.8360 20.336
11.8512 19.865
11.8664 19.635
11.8816 19.524
11.8967 19.727
11.9119 19.777
11.9271 19.626
11.9423 19.088
11.9574 19.095
11.9726 19.350
11.9878 19.182
12.0030 19.279
12.0181 18.967
12.0333 18.702
12.0485 19.133
12.0637 19.200
12.0788 18.915
12.0940 18.479
12.1092 18.723
12.1244 18.969
12.1395 18.600
12.1547 18.634
12.1699 18.601
12.1851 18.487
12.2002 18.413
12.2154 18.566
12.2306 18.110
12.2458 18.010
12.2609 18.189
12.2761 18.045
12.2913 18.166
12.3065 18.049
12.3216 17.759
12.3368 17.361
12.3520 17.204
12.3672 17.039
12.3823 17.206
12.3975 17.046
12.4127 17.107
12.4279 17.181
12.4430 16.530
12.4582 16.624
12.4734 16.863
12.4886 16.957
12.5037 16.510
12.5189 16.406
12.5341 16.272
12.5493 16.170
12.5644 16.199
12.5796 16.363
12.5948 16.275
12.6100 15.960
12.6251 15.821
12.6403 15.636
12.6555 15.899
12.6707 15.951
12.6858 16.046
12.7010 15.848
12.7162 15.273
12.7314 15.400
12.7465 15.311
12.7617 15.282
12.7769 15.519
12.7921 15.212
12.8072 14.945
12.8224 15.002
12.8376 15.147
12.8528 15.092
12.8679 14.827
12.8831 14.897
12.8983 14.988
12.9135 14.752
12.9286 14.525
12.9438 14.225
12.9590 14.229
12.9742 14.493
12.9893 14.590
13.0045 14.613
13.0197 14.186
13.0349 13.712
13.0500 13.994
13.0652 14.214
13.0804 14.332
13.0956 14.076
13.1107 13.617
13.1259 13.589
13.1411 13.603
13.1563 13.750
13.1714 13.741
13.1866 13.737
13.2018 13.721
13.2170 13.584
13.2321 13.547
13.2473 13.309
13.2625 13.233
13.2777 13.387
13.2928 13.312
13.3080 13.236
13.3232 13.193
13.3384 13.028
13.3535 13.155
13.3687 13.240
13.3839 13.008
13.3991 12.992
13.4142 12.830
13.4294 12.710
13.4446 12.976
13.4598 12.976
13.4749 12.800
13.4901 12.765
13.5053 12.584
13.5205 12.549
13.5356 12.637
13.5508 12.600
13.5660 12.441
13.5812 12.482
13.5963 12.147
13.6115 12.090
13.6267 12.063
13.6419 12.070
13.6570 12.008
13.6722 12.235
13.6874 12.214
13.7026 12.089
13.7177 12.454
13.7329 12.339
13.7481 11.934
13.7633 12.108
13.7784 12.123
13.7936 12.106
13.8088 12.243
13.8239 11.948
13.8391 12.081
13.8543 12.486
13.8695 12.295
13.8846 12.146
13.8998 12.227
13.9150 12.337
13.9302 12.235
13.9453 12.205
13.9605 12.123
13.9757 11.863
13.9909 11.863
14.0060 11.991
14.0212 11.936
14.0364 11.821
14.0516 11.756
14.0667 11.679
14.0819 11.606
14.0971 11.526
14.1123 11.572
14.1274 11.725
14.1426 11.714
14.1578 11.566
14.1730 11.545
14.1881 11.582
14.2033 11.508
14.2185 11.543
14.2337 11.534
14.2488 11.593
14.2640 11.689
14.2792 11.928
14.2944 11.876
14.3095 12.190
14.3247 12.036
14.3399 12.484
14.3551 12.449
14.3702 12.808
14.3854 12.882
14.4006 13.198
14.4158 13.032
14.4309 13.122
14.4461 12.865
14.4613 12.433
14.4765 12.449
14.4916 12.340
14.5068 11.704
14.5220 11.652
14.5372 11.222
14.5523 11.638
14.5675 11.222
14.5827 10.930
14.5979 10.812
14.6130 10.748
14.6282 10.786
14.6434 10.958
14.6586 10.694
14.6737 10.537
14.6889 10.833
14.7041 10.646
14.7193 10.683
14.7344 10.484
14.7496 10.650
14.7648 10.638
14.7800 11.065
14.7951 10.416
14.8103 10.356
14.8255 10.494
14.8407 10.535
14.8558 10.566
14.8710 10.611
14.8862 10.456
14.9014 10.739
14.9165 10.832
14.9317 10.561
14.9469 10.444
14.9621 10.664
14.9772 10.313
14.9924 10.423
15.0076 10.156
15.0228 10.352
15.0379 10.117
15.0531 10.309
15.0683 9.942
15.0835 10.182
15.0986 9.951
15.1138 10.013
15.1290 10.175
15.1442 10.031
15.1593 10.209
15.1745 10.342
15.1897 9.972
15.2049 10.283
15.2200 10.394
15.2352 10.287
15.2504 9.831
15.2656 10.350
15.2807 10.002
15.2959 9.943
15.3111 9.920
15.3263 9.998
15.3414 10.150
15.3566 10.135
15.3718 9.908
15.3870 10.049
15.4021 10.198
15.4173 10.005
15.4325 10.351
15.4477 10.114
15.4628 9.868
15.4780 10.261
15.4932 9.764
15.5084 9.813
15.5235 10.191
15.5387 9.949
15.5539 9.965
15.5691 10.115
15.5842 9.812
15.5994 9.595
15.6146 9.863
15.6298 9.944
15.6449 9.553
15.6601 10.077
15.6753 9.522
15.6905 9.486
15.7056 9.772
15.7208 9.871
15.7360 9.898
15.7512 9.926
15.7663 9.545
15.7815 9.773
15.7967 9.266
15.8119 9.643
15.8270 9.933
15.8422 9.756
15.8574 9.573
15.8726 9.459
15.8877 9.470
15.9029 9.464
15.9181 9.590
15.9333 9.556
15.9484 9.518
15.9636 9.616
15.9788 9.551
15.9940 9.441
16.0091 9.610
16.0243 9.707
16.0395 9.735
16.0547 9.500
16.0698 9.398
16.0850 9.328
16.1002 9.382
16.1154 9.423
16.1305 9.611
16.1457 9.628
16.1609 9.503
16.1761 9.503
16.1912 9.572
16.2064 9.769
16.2216 10.075
16.2368 9.864
16.2519 9.860
16.2671 9.761
16.2823 9.528
16.2975 9.560
16.3126 9.752
16.3278 9.764
16.3430 9.656
16.3582 9.673
16.3733 9.719
16.3885 9.621
16.4037 9.681
16.4189 9.583
16.4340 9.755
16.4492 9.632
16.4644 9.559
16.4796 9.615
16.4947 9.650
16.5099 9.571
16.5251 9.340
16.5403 9.350
16.5554 9.496
16.5706 9.762
16.5858 9.902
16.6010 9.530
16.6161 9.497
16.6313 9.796
16.6465 9.896
16.6617 10.011
16.6768 9.833
16.6920 9.849
16.7072 9.859
16.7224 9.927
16.7375 9.960
16.7527 9.928
16.7679 9.854
16.7831 9.734
16.7982 9.583
16.8134 9.831
16.8286 9.890
16.8438 9.850
16.8589 9.816
16.8741 9.963
16.8893 9.805
16.9045 9.614
16.9196 9.569
16.9348 9.572
16.9500 9.559
16.9652 9.693
16.9803 10.021
16.9955 10.090
17.0107 10.036
17.0259 10.027
17.0410 10.183
17.0562 10.249
17.0714 10.220
17.0866 10.138
17.1017 10.183
17.1169 10.583
17.1321 11.155
17.1473 11.213
17.1624 11.459
17.1776 12.074
17.1928 12.959
17.2080 14.229
17.2231 15.283
17.2383 16.339
17.2535 17.575
17.2687 18.647
17.2838 18.733
17.2990 18.281
17.3142 17.345
17.3294 16.331
17.3445 16.105
17.3597 16.233
17.3749 16.266
17.3901 15.469
17.4052 14.372
17.4204 13.418
17.4356 12.445
17.4508 12.053
17.4659 11.922
17.4811 11.768
17.4963 11.761
17.5115 11.508
17.5266 11.159
17.5418 11.009
17.5570 11.051
17.5722 11.071
17.5873 10.966
17.6025 10.907
17.6177 10.897
17.6329 10.957
17.6480 11.272
17.6632 11.398
17.6784 11.343
17.6936 11.387
17.7087 11.239
17.7239 11.340
17.7391 11.353
17.7543 11.207
17.7694 11.087
17.7846 10.960
17.7998 10.812
17.8150 10.734
17.8301 10.550
17.8453 10.365
17.8605 10.504
17.8757 10.431
17.8908 10.325
17.9060 10.245
17.9212 10.102
17.9364 9.960
17.9515 10.043
17.9667 10.215
17.9819 10.182
17.9971 10.126
18.0122 10.069
18.0274 10.131
18.0426 10.018
18.0578 10.061
18.0729 10.182
18.0881 10.156
18.1033 9.998
18.1185 9.857
18.1336 9.732
18.1488 9.903
18.1640 10.071
18.1792 9.910
18.1943 9.792
18.2095 9.980
18.2247 10.021
18.2399 10.063
18.2550 9.909
18.2702 9.750
18.2854 9.915
18.3006 9.874
18.3157 9.932
18.3309 9.995
18.3461 9.916
18.3613 9.698
18.3764 9.617
18.3916 9.545
18.4068 9.689
18.4220 9.895
18.4371 9.812
18.4523 9.691
18.4675 9.617
18.4827 9.566
18.4978 9.644
18.5130 9.755
18.5282 9.884
18.5434 9.962
18.5585 9.856
18.5737 9.854
18.5889 9.815
18.6041 9.993
18.6192 9.850
18.6344 9.798
18.6496 9.696
18.6648 9.602
18.6799 9.645
18.6951 9.657
18.7103 9.681
18.7255 9.828
18.7406 9.990
18.7558 9.935
18.7710 9.820
18.7862 9.838
18.8013 9.871
18.8165 9.727
18.8317 9.721
18.8469 9.819
18.8620 9.978
18.8772 10.085
18.8924 10.101
18.9076 10.070
18.9227 10.018
18.9379 10.209
18.9531 9.988
18.9683 9.981
18.9834 10.107
18.9986 10.212
19.0138 10.112
19.0290 9.964
19.0441 9.932
19.0593 10.152
19.0745 10.179
19.0897 10.274
19.1048 10.413
19.1200 10.468
19.1352 10.403
19.1504 10.470
19.1655 10.628
19.1807 10.778
19.1959 10.785
19.2111 10.706
19.2262 10.889
19.2414 10.761
19.2566 10.584
19.2718 10.758
19.2869 10.845
19.3021 10.964
19.3173 10.923
19.3325 10.892
19.3476 11.046
19.3628 11.099
19.3780 11.078
19.3932 11.181
19.4083 11.234
19.4235 11.010
19.4387 11.031
19.4539 11.271
19.4690 11.399
19.4842 11.350
19.4994 11.397
19.5146 11.519
19.5297 11.439
19.5449 11.420
19.5601 11.514
19.5753 11.713
19.5904 11.766
19.6056 11.778
19.6208 11.864
19.6360 11.703
19.6511 11.582
19.6663 11.590
19.6815 11.751
19.6967 11.929
19.7118 11.841
19.7270 11.798
19.7422 11.883
19.7574 11.921
19.7725 11.972
19.7877 12.014
19.8029 12.158
19.8180 12.204
19.8332 12.228
19.8484 12.583
19.8636 12.652
19.8787 12.612
19.8939 12.709
19.9091 13.164
19.9243 13.568
19.9394 13.962
19.9546 14.381
19.9698 14.602
19.9850 14.666
20.0001 14.688
20.0153 14.369
20.0305 14.159
20.0457 14.025
20.0608 13.695
20.0760 13.899
20.0912 13.971
20.1064 13.989
20.1215 13.848
20.1367 13.516
20.1519 13.222
20.1671 12.916
20.1822 12.974
20.1974 12.955
20.2126 12.709
20.2278 12.621
20.2429 12.679
20.2581 12.698
20.2733 12.172
20.2885 11.884
20.3036 12.119
20.3188 12.129
20.3340 12.186
20.3492 12.269
20.3643 12.052
20.3795 11.788
20.3947 11.875
20.4099 11.870
20.4250 12.106
20.4402 12.069
20.4554 11.926
20.4706 11.676
20.4857 11.680
20.5009 11.502
20.5161 11.377
20.5313 11.409
20.5464 11.332
20.5616 11.183
20.5768 11.163
20.5920 11.058
20.6071 11.074
20.6223 11.100
20.6375 11.069
20.6527 10.814
20.6678 10.652
20.6830 10.605
20.6982 10.703
20.7134 10.451
20.7285 10.624
20.7437 10.669
20.7589 10.703
20.7741 10.524
20.7892 10.397
20.8044 10.743
20.8196 10.512
20.8348 10.465
20.8499 10.535
20.8651 10.314
20.8803 10.509
20.8955 9.957
20.9106 10.167
20.9258 10.571
20.9410 10.601
20.9562 10.270
20.9713 10.354
20.9865 10.293
21.0017 9.926
21.0169 10.004
21.0320 10.097
21.0472 9.947
21.0624 9.990
21.0776 9.823
21.0927 10.124
21.1079 9.794
21.1231 9.923
21.1383 10.113
21.1534 9.775
21.1686 9.912
21.1838 9.713
21.1990 9.581
21.2141 9.800
21.2293 9.917
21.2445 9.818
21.2597 9.857
21.2748 10.031
21.2900 9.502
21.3052 9.651
21.3204 9.329
21.3355 9.670
21.3507 9.635
21.3659 9.762
21.3811 9.492
21.3962 9.772
21.4114 9.505
21.4266 9.667
21.4418 9.159
21.4569 9.258
21.4721 9.586
21.4873 9.544
21.5025 9.523
21.5176 9.422
21.5328 9.310
21.5480 9.329
21.5632 9.577
21.5783 9.553
21.5935 9.343
21.6087 9.392
21.6239 9.034
21.6390 9.139
21.6542 9.207
21.6694 9.156
21.6846 9.193
21.6997 9.289
21.7149 9.318
21.7301 9.311
21.7453 9.192
21.7604 9.127
21.7756 9.098
21.7908 9.171
21.8060 9.139
21.8211 9.197
21.8363 9.325
21.8515 9.235
21.8667 8.960
21.8818 8.968
21.8970 9.271
21.9122 9.263
21.9274 9.144
21.9425 8.949
21.9577 8.849
21.9729 8.963
21.9881 8.804
22.0032 8.962
22.0184 8.870
22.0336 8.866
22.0488 9.144
22.0639 9.057
22.0791 8.773
22.0943 8.567
22.1095 8.653
22.1246 8.723
22.1398 8.836
22.1550 8.688
22.1702 8.637
22.1853 8.719
22.2005 8.832
22.2157 8.828
22.2309 8.603
22.2460 8.412
22.2612 8.657
22.2764 8.718
22.2916 8.413
22.3067 8.498
22.3219 8.553
22.3371 8.253
22.3523 8.676
22.3674 8.652
22.3826 8.474
22.3978 8.543
22.4130 8.488
22.4281 8.678
22.4433 8.492
22.4585 8.192
22.4737 8.654
22.4888 8.283
22.5040 8.508
22.5192 8.381
22.5344 8.346
22.5495 8.404
22.5647 8.462
22.5799 8.335
22.5951 8.432
22.6102 8.497
22.6254 8.489
22.6406 8.686
22.6558 8.285
22.6709 8.651
22.6861 8.516
22.7013 8.362
22.7165 7.870
22.7316 6.410
