'Id: "" Comment: "" Operator: "Lab Manager" Anode: "Mo" Scantype: "Still (Eiger2R_500K (1D mode))" TimePerStep: "300" X: "11.8" Y: "9.4" Z: "11.284" 
7.2532 19.194
7.2684 19.002
7.2836 18.985
7.2987 18.552
7.3139 19.130
7.3291 19.190
7.3443 18.735
7.3594 19.078
7.3746 19.088
7.3898 18.870
7.4050 18.988
7.4201 19.347
7.4353 19.323
7.4505 19.269
7.4657 18.958
7.4808 19.516
7.4960 19.300
7.5112 19.776
7.5264 19.606
7.5415 19.745
7.5567 19.607
7.5719 19.531
7.5871 19.741
7.6022 20.079
7.6174 19.933
7.6326 20.304
7.6478 20.065
7.6629 20.055
7.6781 20.073
7.6933 20.198
7.7085 20.068
7.7236 19.875
7.7388 20.265
7.7540 20.484
7.7692 20.364
7.7843 20.398
7.7995 20.335
7.8147 20.311
7.8299 20.395
7.8450 20.166
7.8602 20.065
7.8754 20.457
7.8905 20.649
7.9057 20.674
7.9209 20.634
7.9361 20.739
7.9512 20.885
7.9664 20.836
7.9816 21.017
7.9968 21.450
8.0119 21.042
8.0271 21.077
8.0423 20.940
8.0575 20.514
8.0726 20.815
8.0878 21.229
8.1030 21.104
8.1182 20.858
8.1333 21.116
8.1485 21.468
8.1637 21.403
8.1789 21.043
8.1940 20.942
8.2092 21.134
8.2244 21.175
8.2396 20.752
8.2547 21.025
8.2699 21.536
8.2851 21.723
8.3003 21.449
8.3154 21.425
8.3306 21.793
8.3458 21.781
8.3610 21.283
8.3761 21.608
8.3913 21.614
8.4065 21.580
8.4217 22.031
8.4368 21.716
8.4520 21.925
8.4672 21.834
8.4824 21.888
8.4975 21.683
8.5127 21.604
8.5279 21.630
8.5431 21.764
8.5582 22.433
8.5734 21.924
8.5886 22.174
8.6038 21.740
8.6189 21.724
8.6341 21.845
8.6493 22.261
8.6645 21.885
8.6796 22.166
8.6948 22.594
8.7100 22.196
8.7252 21.879
8.7403 22.157
8.7555 22.176
8.7707 22.188
8.7859 22.121
8.8010 22.324
8.8162 22.348
8.8314 22.084
8.8466 22.515
8.8617 22.558
8.8769 22.344
8.8921 22.418
8.9073 22.402
8.9224 22.592
8.9376 22.337
8.9528 22.565
8.9680 22.728
8.9831 22.816
8.9983 22.584
9.0135 22.772
9.0287 22.632
9.0438 22.508
9.0590 22.558
9.0742 22.684
9.0894 22.681
9.1045 22.658
9.1197 22.559
9.1349 22.542
9.1501 22.635
9.1652 22.633
9.1804 22.214
9.1956 22.862
9.2108 23.382
9.2259 22.996
9.2411 22.794
9.2563 22.834
9.2715 22.719
9.2866 22.562
9.3018 22.455
9.3170 22.738
9.3322 22.793
9.3473 22.405
9.3625 22.513
9.3777 22.765
9.3929 22.903
9.4080 23.163
9.4232 23.028
9.4384 22.570
9.4536 22.935
9.4687 22.555
9.4839 22.427
9.4991 22.803
9.5143 23.095
9.5294 23.041
9.5446 22.834
9.5598 22.954
9.5750 23.390
9.5901 23.240
9.6053 23.071
9.6205 23.272
9.6357 23.176
9.6508 23.259
9.6660 23.479
9.6812 23.417
9.6964 23.415
9.7115 23.451
9.7267 23.745
9.7419 24.047
9.7571 23.835
9.7722 23.839
9.7874 24.024
9.8026 24.069
9.8178 23.627
9.8329 23.398
9.8481 23.610
9.8633 23.630
9.8785 23.288
9.8936 23.312
9.9088 23.631
9.9240 23.728
9.9392 23.467
9.9543 23.033
9.9695 22.949
9.9847 22.814
9.9999 23.013
10.0150 23.055
10.0302 22.891
10.0454 23.039
10.0606 23.127
10.0757 23.250
10.0909 23.137
10.1061 23.009
10.1213 23.246
10.1364 23.465
10.1516 23.280
10.1668 23.067
10.1820 23.012
10.1971 23.061
10.2123 23.126
10.2275 23.140
10.2427 23.140
10.2578 23.077
10.2730 22.683
10.2882 22.617
10.3034 22.922
10.3185 22.731
10.3337 22.662
10.3489 22.589
10.3641 22.536
10.3792 22.745
10.3944 22.528
10.4096 22.756
10.4248 22.973
10.4399 22.805
10.4551 22.492
10.4703 22.792
10.4855 22.717
10.5006 22.446
10.5158 22.845
10.5310 22.950
10.5462 22.479
10.5613 22.332
10.5765 22.250
10.5917 22.290
10.6069 22.354
10.6220 22.643
10.6372 22.693
10.6524 22.785
10.6676 22.880
10.6827 22.670
10.6979 22.348
10.7131 22.203
10.7283 22.140
10.7434 22.305
10.7586 22.537
10.7738 22.160
10.7890 22.338
10.8041 22.589
10.8193 22.350
10.8345 22.196
10.8497 22.426
10.8648 22.017
10.8800 22.001
10.8952 21.986
10.9104 22.161
10.9255 22.152
10.9407 21.955
10.9559 21.882
10.9711 21.490
10.9862 21.801
11.0014 22.068
11.0166 22.202
11.0318 22.338
11.0469 21.815
11.0621 21.781
11.0773 21.644
11.0925 21.718
11.1076 21.766
11.1228 21.902
11.1380 22.125
11.1532 21.569
11.1683 21.539
11.1835 21.689
11.1987 21.692
11.2139 21.900
11.2290 21.814
11.2442 21.836
11.2594 21.533
11.2746 21.420
11.2897 21.431
11.3049 21.421
11.3201 21.306
11.3353 21.530
11.3504 21.461
11.3656 21.547
11.3808 21.381
11.3960 21.075
11.4111 21.123
11.4263 21.029
11.4415 21.080
11.4567 21.393
11.4718 21.163
11.4870 21.281
11.5022 21.223
11.5174 21.181
11.5325 21.033
11.5477 21.112
11.5629 20.886
11.5781 20.814
11.5932 20.904
11.6084 20.610
11.6236 20.740
11.6388 20.694
11.6539 20.459
11.6691 20.229
11.6843 20.371
11.6995 20.548
11.7146 20.477
11.7298 20.636
11.7450 20.451
11.7602 20.317
11.7753 20.022
11.7905 20.094
11.8057 19.877
11.8209 20.040
11.8360 19.819
11.8512 19.721
11.8664 19.790
11.8816 19.782
11.8967 19.444
11.9119 19.532
11.9271 19.578
11.9423 19.560
11.9574 19.565
11.9726 19.629
11.9878 19.536
12.0030 19.257
12.0181 19.050
12.0333 19.027
12.0485 19.353
12.0637 19.017
12.0788 19.047
12.0940 18.932
12.1092 18.617
12.1244 18.901
12.1395 18.744
12.1547 18.393
12.1699 18.520
12.1851 18.299
12.2002 18.278
12.2154 18.271
12.2306 18.143
12.2458 18.191
12.2609 18.231
12.2761 17.900
12.2913 17.718
12.3065 17.475
12.3216 17.560
12.3368 17.492
12.3520 17.156
12.3672 17.163
12.3823 17.283
12.3975 16.952
12.4127 16.836
12.4279 17.039
12.4430 17.118
12.4582 16.656
12.4734 16.474
12.4886 16.494
12.5037 16.427
12.5189 16.424
12.5341 16.367
12.5493 16.318
12.5644 15.944
12.5796 15.857
12.5948 16.191
12.6100 16.197
12.6251 16.185
12.6403 16.048
12.6555 16.018
12.6707 16.041
12.6858 15.723
12.7010 15.716
12.7162 15.895
12.7314 15.513
12.7465 15.657
12.7617 15.552
12.7769 15.213
12.7921 15.215
12.8072 15.001
12.8224 14.834
12.8376 14.768
12.8528 14.819
12.8679 14.597
12.8831 14.744
12.8983 14.658
12.9135 14.460
12.9286 14.616
12.9438 14.527
12.9590 14.201
12.9742 14.250
12.9893 14.431
13.0045 14.396
13.0197 14.196
13.0349 13.993
13.0500 14.007
13.0652 13.807
13.0804 13.704
13.0956 13.639
13.1107 13.584
13.1259 13.721
13.1411 13.714
13.1563 13.725
13.1714 13.676
13.1866 13.390
13.2018 13.386
13.2170 13.538
13.2321 13.393
13.2473 13.228
13.2625 13.185
13.2777 13.206
13.2928 13.163
13.3080 13.146
13.3232 13.092
13.3384 13.023
13.3535 13.107
13.3687 13.099
13.3839 13.125
13.3991 13.126
13.4142 12.993
13.4294 12.988
13.4446 12.723
13.4598 12.760
13.4749 12.881
13.4901 12.672
13.5053 12.654
13.5205 12.575
13.5356 12.571
13.5508 12.423
13.5660 12.306
13.5812 12.125
13.5963 12.155
13.6115 12.174
13.6267 12.131
13.6419 11.995
13.6570 11.830
13.6722 12.087
13.6874 11.999
13.7026 12.136
13.7177 12.472
13.7329 12.003
13.7481 11.872
13.7633 11.925
13.7784 12.148
13.7936 12.088
13.8088 12.423
13.8239 12.286
13.8391 12.109
13.8543 12.344
13.8695 12.394
13.8846 12.219
13.8998 12.105
13.9150 12.190
13.9302 12.348
13.9453 12.078
13.9605 11.898
13.9757 11.576
13.9909 11.901
14.0060 11.777
14.0212 11.793
14.0364 11.572
14.0516 11.633
14.0667 11.744
14.0819 11.687
14.0971 11.459
14.1123 11.455
14.1274 11.562
14.1426 11.653
14.1578 11.467
14.1730 11.654
14.1881 11.809
14.2033 11.749
14.2185 11.732
14.2337 11.924
14.2488 11.678
14.2640 12.026
14.2792 11.891
14.2944 11.980
14.3095 11.845
14.3247 11.884
14.3399 12.223
14.3551 12.445
14.3702 12.779
14.3854 12.884
14.4006 12.969
14.4158 13.314
14.4309 12.761
14.4461 12.682
14.4613 12.583
14.4765 12.272
14.4916 11.764
14.5068 11.995
14.5220 11.438
14.5372 11.340
14.5523 11.145
14.5675 11.043
14.5827 10.836
14.5979 10.964
14.6130 10.776
14.6282 10.792
14.6434 10.802
14.6586 10.570
14.6737 10.610
14.6889 10.483
14.7041 10.719
14.7193 10.836
14.7344 10.395
14.7496 10.506
14.7648 10.553
14.7800 10.732
14.7951 10.603
14.8103 10.554
14.8255 10.274
14.8407 10.540
14.8558 10.547
14.8710 10.498
14.8862 10.425
14.9014 10.585
14.9165 10.772
14.9317 10.658
14.9469 10.163
14.9621 10.167
14.9772 10.322
14.9924 10.235
15.0076 10.334
15.0228 10.234
15.0379 10.236
15.0531 10.253
15.0683 10.146
15.0835 10.254
15.0986 10.350
15.1138 10.013
15.1290 10.090
15.1442 10.509
15.1593 10.334
15.1745 10.264
15.1897 9.995
15.2049 10.184
15.2200 9.840
15.2352 9.867
15.2504 9.972
15.2656 10.049
15.2807 10.271
15.2959 10.423
15.3111 10.293
15.3263 10.069
15.3414 10.278
15.3566 10.227
15.3718 9.951
15.3870 10.270
15.4021 10.273
15.4173 10.015
15.4325 9.969
15.4477 10.297
15.4628 10.372
15.4780 9.932
15.4932 9.930
15.5084 10.258
15.5235 9.867
15.5387 9.699
15.5539 10.245
15.5691 9.743
15.5842 9.933
15.5994 9.892
15.6146 10.126
15.6298 9.797
15.6449 9.871
15.6601 9.515
15.6753 9.407
15.6905 9.637
15.7056 9.532
15.7208 9.519
15.7360 9.571
15.7512 9.759
15.7663 9.862
15.7815 9.833
15.7967 9.687
15.8119 10.029
15.8270 9.732
15.8422 9.620
15.8574 9.752
15.8726 9.506
15.8877 9.386
15.9029 9.462
15.9181 9.405
15.9333 9.599
15.9484 9.781
15.9636 9.933
15.9788 9.748
15.9940 9.554
16.0091 9.696
16.0243 9.796
16.0395 9.577
16.0547 9.479
16.0698 9.538
16.0850 9.433
16.1002 9.341
16.1154 9.514
16.1305 9.425
16.1457 9.491
16.1609 9.568
16.1761 9.441
16.1912 9.389
16.2064 9.654
16.2216 9.825
16.2368 9.983
16.2519 9.699
16.2671 9.788
16.2823 9.711
16.2975 9.915
16.3126 9.930
16.3278 9.627
16.3430 9.663
16.3582 9.646
16.3733 9.776
16.3885 9.927
16.4037 9.808
16.4189 9.690
16.4340 9.700
16.4492 9.547
16.4644 9.525
16.4796 9.548
16.4947 9.438
16.5099 9.640
16.5251 9.626
16.5403 9.638
16.5554 9.577
16.5706 9.737
16.5858 9.854
16.6010 9.925
16.6161 9.677
16.6313 9.751
16.6465 9.770
16.6617 9.689
16.6768 9.562
16.6920 9.764
16.7072 9.857
16.7224 9.938
16.7375 9.903
16.7527 9.786
16.7679 9.920
16.7831 9.851
16.7982 9.730
16.8134 9.767
16.8286 9.793
16.8438 9.844
16.8589 9.782
16.8741 9.557
16.8893 9.687
16.9045 9.914
16.9196 9.860
16.9348 9.628
16.9500 9.696
16.9652 9.785
16.9803 9.563
16.9955 9.594
17.0107 9.585
17.0259 9.937
17.0410 9.984
17.0562 10.013
17.0714 10.003
17.0866 9.947
17.1017 10.230
17.1169 10.484
17.1321 10.840
17.1473 11.131
17.1624 11.580
17.1776 12.193
17.1928 13.102
17.2080 14.095
17.2231 14.948
17.2383 16.547
17.2535 17.955
17.2687 18.501
17.2838 18.526
17.2990 17.953
17.3142 16.885
17.3294 16.292
17.3445 15.989
17.3597 15.901
17.3749 15.929
17.3901 15.287
17.4052 14.259
17.4204 13.379
17.4356 12.584
17.4508 11.985
17.4659 11.696
17.4811 11.408
17.4963 11.405
17.5115 11.318
17.5266 10.971
17.5418 10.985
17.5570 11.179
17.5722 11.087
17.5873 11.180
17.6025 11.258
17.6177 11.241
17.6329 11.303
17.6480 11.254
17.6632 11.354
17.6784 11.670
17.6936 11.528
17.7087 11.323
17.7239 11.374
17.7391 11.409
17.7543 11.135
17.7694 10.928
17.7846 10.969
17.7998 10.884
17.8150 10.952
17.8301 10.715
17.8453 10.415
17.8605 10.198
17.8757 10.298
17.8908 10.313
17.9060 10.453
17.9212 10.370
17.9364 10.071
17.9515 10.071
17.9667 10.184
17.9819 10.228
17.9971 10.151
18.0122 10.249
18.0274 10.265
18.0426 9.946
18.0578 10.093
18.0729 10.043
18.0881 9.881
18.1033 9.847
18.1185 10.094
18.1336 10.291
18.1488 10.084
18.1640 9.998
18.1792 9.920
18.1943 9.961
18.2095 10.107
18.2247 10.052
18.2399 9.806
18.2550 9.700
18.2702 9.787
18.2854 9.912
18.3006 9.950
18.3157 9.936
18.3309 9.810
18.3461 9.846
18.3613 9.696
18.3764 9.835
18.3916 9.926
18.4068 9.775
18.4220 9.851
18.4371 9.722
18.4523 9.729
18.4675 9.785
18.4827 9.695
18.4978 9.668
18.5130 10.002
18.5282 10.010
18.5434 9.699
18.5585 9.636
18.5737 9.562
18.5889 9.749
18.6041 9.934
18.6192 9.995
18.6344 9.785
18.6496 9.650
18.6648 9.818
18.6799 9.892
18.6951 9.955
18.7103 9.795
18.7255 9.789
18.7406 9.805
18.7558 9.797
18.7710 9.796
18.7862 9.664
18.8013 9.777
18.8165 9.845
18.8317 9.983
18.8469 10.041
18.8620 9.897
18.8772 9.918
18.8924 9.939
18.9076 9.800
18.9227 9.975
18.9379 9.847
18.9531 9.807
18.9683 9.993
18.9834 10.080
18.9986 10.087
19.0138 10.217
19.0290 10.092
19.0441 9.976
19.0593 10.205
19.0745 10.306
19.0897 10.288
19.1048 10.364
19.1200 10.333
19.1352 10.358
19.1504 10.419
19.1655 10.526
19.1807 10.553
19.1959 10.622
19.2111 10.761
19.2262 10.610
19.2414 10.475
19.2566 10.690
19.2718 10.719
19.2869 10.896
19.3021 11.105
19.3173 11.161
19.3325 11.057
19.3476 11.051
19.3628 11.239
19.3780 11.268
19.3932 11.406
19.4083 11.469
19.4235 11.324
19.4387 11.168
19.4539 11.148
19.4690 11.417
19.4842 11.629
19.4994 11.407
19.5146 11.337
19.5297 11.497
19.5449 11.657
19.5601 11.731
19.5753 11.538
19.5904 11.638
19.6056 11.627
19.6208 11.578
19.6360 11.470
19.6511 11.642
19.6663 11.643
19.6815 11.467
19.6967 11.510
19.7118 11.552
19.7270 11.735
19.7422 11.783
19.7574 11.976
19.7725 12.121
19.7877 12.010
19.8029 11.997
19.8180 12.001
19.8332 12.059
19.8484 12.319
19.8636 12.416
19.8787 12.645
19.8939 12.966
19.9091 13.236
19.9243 13.498
19.9394 13.792
19.9546 14.186
19.9698 14.376
19.9850 14.729
20.0001 14.901
20.0153 14.608
20.0305 14.053
20.0457 13.817
20.0608 14.047
20.0760 14.035
20.0912 13.938
20.1064 13.629
20.1215 13.428
20.1367 13.284
20.1519 13.156
20.1671 13.267
20.1822 12.955
20.1974 12.689
20.2126 12.831
20.2278 13.051
20.2429 12.602
20.2581 12.233
20.2733 12.381
20.2885 12.039
20.3036 11.899
20.3188 12.121
20.3340 12.066
20.3492 12.105
20.3643 12.045
20.3795 11.743
20.3947 11.823
20.4099 11.956
20.4250 11.780
20.4402 11.658
20.4554 11.729
20.4706 11.517
20.4857 11.614
20.5009 11.704
20.5161 11.446
20.5313 11.392
20.5464 11.485
20.5616 11.304
20.5768 11.121
20.5920 11.239
20.6071 11.070
20.6223 11.055
20.6375 10.807
20.6527 10.477
20.6678 10.573
20.6830 10.692
20.6982 10.682
20.7134 10.464
20.7285 10.435
20.7437 10.411
20.7589 10.426
20.7741 10.450
20.7892 10.820
20.8044 10.437
20.8196 10.329
20.8348 10.334
20.8499 10.385
20.8651 10.325
20.8803 10.049
20.8955 9.879
20.9106 10.214
20.9258 10.055
20.9410 9.863
20.9562 10.061
20.9713 10.012
20.9865 9.984
21.0017 10.232
21.0169 10.179
21.0320 9.874
21.0472 9.944
21.0624 9.894
21.0776 10.178
21.0927 9.991
21.1079 10.084
21.1231 9.625
21.1383 9.969
21.1534 9.942
21.1686 9.504
21.1838 9.889
21.1990 9.662
21.2141 9.876
21.2293 9.732
21.2445 9.760
21.2597 9.835
21.2748 9.587
21.2900 9.494
21.3052 9.723
21.3204 9.405
21.3355 9.479
21.3507 9.586
21.3659 9.166
21.3811 9.361
21.3962 9.802
21.4114 9.455
21.4266 9.498
21.4418 9.608
21.4569 9.474
21.4721 9.680
21.4873 9.672
21.5025 9.495
21.5176 9.373
21.5328 9.376
21.5480 9.176
21.5632 9.266
21.5783 9.662
21.5935 9.432
21.6087 9.229
21.6239 9.105
21.6390 9.236
21.6542 9.240
21.6694 9.300
21.6846 9.053
21.6997 9.010
21.7149 8.936
21.7301 8.900
21.7453 9.223
21.7604 9.088
21.7756 9.150
21.7908 9.261
21.8060 9.108
21.8211 9.124
21.8363 8.991
21.8515 8.928
21.8667 8.891
21.8818 8.704
21.8970 8.927
21.9122 9.097
21.9274 9.019
21.9425 8.990
21.9577 9.055
21.9729 9.064
21.9881 8.945
22.0032 8.803
22.0184 8.845
22.0336 8.652
22.0488 8.627
22.0639 8.720
22.0791 8.760
22.0943 8.762
22.1095 9.026
22.1246 8.777
22.1398 8.672
22.1550 8.691
22.1702 8.795
22.1853 8.853
22.2005 8.697
22.2157 8.416
22.2309 8.385
22.2460 8.448
22.2612 8.357
22.2764 8.493
22.2916 8.617
22.3067 8.574
22.3219 8.433
22.3371 8.577
22.3523 8.592
22.3674 8.505
22.3826 8.589
22.3978 8.630
22.4130 8.534
22.4281 8.341
22.4433 8.533
22.4585 8.459
22.4737 8.372
22.4888 8.413
22.5040 8.172
22.5192 8.482
22.5344 8.584
22.5495 8.476
22.5647 8.284
22.5799 8.574
22.5951 8.454
22.6102 8.504
22.6254 8.516
22.6406 8.176
22.6558 8.352
22.6709 8.445
22.6861 8.241
22.7013 8.359
22.7165 7.652
22.7316 6.405
