'Id: "" Comment: "" Operator: "Lab Manager" Anode: "Mo" Scantype: "Still (Eiger2R_500K (1D mode))" TimePerStep: "300" X: "11.8" Y: "9.4" Z: "11.284" 
7.2532 19.117
7.2684 19.264
7.2836 19.420
7.2987 19.803
7.3139 19.267
7.3291 19.580
7.3443 19.763
7.3594 19.958
7.3746 20.130
7.3898 19.657
7.4050 19.897
7.4201 19.786
7.4353 19.888
7.4505 20.098
7.4657 20.176
7.4808 20.055
7.4960 19.709
7.5112 19.838
7.5264 19.885
7.5415 20.035
7.5567 20.162
7.5719 20.340
7.5871 20.233
7.6022 20.425
7.6174 20.611
7.6326 20.396
7.6478 20.121
7.6629 20.064
7.6781 20.406
7.6933 20.592
7.7085 20.526
7.7236 20.724
7.7388 20.762
7.7540 20.425
7.7692 20.614
7.7843 21.053
7.7995 21.026
7.8147 21.121
7.8299 21.128
7.8450 20.983
7.8602 20.990
7.8754 21.150
7.8905 21.201
7.9057 21.242
7.9209 21.328
7.9361 21.267
7.9512 21.527
7.9664 21.004
7.9816 20.842
7.9968 21.049
8.0119 21.233
8.0271 21.677
8.0423 21.607
8.0575 22.063
8.0726 21.950
8.0878 21.724
8.1030 21.696
8.1182 21.649
8.1333 22.030
8.1485 22.026
8.1637 22.264
8.1789 22.071
8.1940 21.797
8.2092 21.979
8.2244 21.798
8.2396 22.244
8.2547 22.492
8.2699 22.313
8.2851 22.036
8.3003 22.130
8.3154 22.544
8.3306 22.519
8.3458 21.924
8.3610 22.332
8.3761 21.898
8.3913 22.366
8.4065 22.516
8.4217 22.340
8.4368 22.330
8.4520 22.209
8.4672 22.432
8.4824 22.123
8.4975 22.504
8.5127 22.421
8.5279 22.682
8.5431 22.610
8.5582 22.790
8.5734 22.569
8.5886 22.657
8.6038 22.965
8.6189 22.429
8.6341 22.785
8.6493 22.937
8.6645 22.522
8.6796 22.720
8.6948 22.028
8.7100 22.688
8.7252 22.568
8.7403 22.440
8.7555 23.212
8.7707 22.834
8.7859 22.594
8.8010 23.087
8.8162 22.872
8.8314 22.634
8.8466 23.077
8.8617 22.498
8.8769 22.678
8.8921 23.154
8.9073 23.186
8.9224 22.717
8.9376 22.842
8.9528 22.972
8.9680 23.104
8.9831 23.049
8.9983 23.250
9.0135 23.287
9.0287 23.270
9.0438 23.213
9.0590 23.197
9.0742 23.067
9.0894 22.805
9.1045 22.978
9.1197 23.328
9.1349 23.255
9.1501 23.211
9.1652 23.286
9.1804 23.364
9.1956 22.801
9.2108 23.187
9.2259 23.763
9.2411 23.394
9.2563 22.767
9.2715 23.215
9.2866 23.177
9.3018 23.290
9.3170 23.133
9.3322 23.247
9.3473 23.654
9.3625 23.240
9.3777 23.231
9.3929 23.417
9.4080 23.364
9.4232 23.550
9.4384 23.419
9.4536 23.181
9.4687 23.108
9.4839 23.321
9.4991 23.504
9.5143 23.669
9.5294 23.648
9.5446 23.588
9.5598 23.868
9.5750 23.995
9.5901 23.739
9.6053 23.884
9.6205 24.010
9.6357 24.049
9.6508 24.028
9.6660 24.209
9.6812 24.276
9.6964 24.105
9.7115 24.312
9.7267 24.451
9.7419 24.624
9.7571 24.738
9.7722 24.546
9.7874 24.207
9.8026 24.033
9.8178 24.083
9.8329 24.309
9.8481 24.320
9.8633 24.464
9.8785 24.486
9.8936 24.391
9.9088 24.589
9.9240 24.758
9.9392 24.368
9.9543 24.340
9.9695 24.454
9.9847 24.331
9.9999 24.342
10.0150 24.041
10.0302 23.509
10.0454 23.725
10.0606 23.593
10.0757 23.448
10.0909 23.765
10.1061 24.016
10.1213 24.046
10.1364 24.257
10.1516 24.539
10.1668 24.682
10.1820 24.441
10.1971 24.310
10.2123 23.939
10.2275 23.839
10.2427 23.835
10.2578 23.855
10.2730 23.787
10.2882 23.731
10.3034 23.809
10.3185 23.522
10.3337 23.521
10.3489 23.791
10.3641 23.653
10.3792 23.592
10.3944 23.462
10.4096 23.125
10.4248 23.130
10.4399 23.424
10.4551 23.897
10.4703 23.428
10.4855 23.356
10.5006 23.436
10.5158 23.594
10.5310 23.349
10.5462 22.991
10.5613 22.929
10.5765 22.854
10.5917 22.914
10.6069 22.831
10.6220 22.678
10.6372 22.559
10.6524 22.775
10.6676 23.083
10.6827 23.039
10.6979 22.955
10.7131 22.882
10.7283 22.586
10.7434 22.847
10.7586 22.714
10.7738 22.773
10.7890 22.874
10.8041 22.830
10.8193 22.899
10.8345 22.952
10.8497 22.588
10.8648 22.626
10.8800 22.513
10.8952 22.546
10.9104 22.126
10.9255 22.129
10.9407 22.493
10.9559 22.561
10.9711 22.469
10.9862 22.343
11.0014 22.443
11.0166 22.443
11.0318 22.351
11.0469 22.158
11.0621 21.801
11.0773 22.064
11.0925 22.386
11.1076 21.966
11.1228 22.175
11.1380 22.077
11.1532 22.094
11.1683 21.967
11.1835 21.855
11.1987 22.333
11.2139 21.818
11.2290 22.006
11.2442 21.849
11.2594 21.748
11.2746 21.644
11.2897 21.738
11.3049 21.845
11.3201 21.802
11.3353 21.638
11.3504 21.835
11.3656 22.092
11.3808 21.577
11.3960 21.246
11.4111 21.322
11.4263 21.629
11.4415 21.546
11.4567 21.598
11.4718 21.725
11.4870 21.280
11.5022 21.453
11.5174 21.776
11.5325 21.579
11.5477 21.675
11.5629 21.471
11.5781 21.175
11.5932 21.034
11.6084 21.411
11.6236 21.544
11.6388 20.861
11.6539 20.825
11.6691 20.901
11.6843 20.536
11.6995 20.740
11.7146 20.832
11.7298 20.879
11.7450 20.787
11.7602 20.565
11.7753 20.154
11.7905 20.045
11.8057 20.328
11.8209 20.477
11.8360 20.165
11.8512 20.041
11.8664 19.784
11.8816 20.329
11.8967 20.133
11.9119 19.980
11.9271 19.823
11.9423 20.184
11.9574 19.794
11.9726 19.382
11.9878 19.771
12.0030 19.644
12.0181 19.057
12.0333 19.153
12.0485 19.373
12.0637 19.315
12.0788 19.413
12.0940 19.056
12.1092 18.716
12.1244 18.784
12.1395 18.740
12.1547 18.944
12.1699 18.998
12.1851 18.605
12.2002 18.646
12.2154 18.643
12.2306 18.197
12.2458 18.116
12.2609 18.151
12.2761 18.438
12.2913 18.165
12.3065 18.012
12.3216 17.933
12.3368 18.085
12.3520 17.626
12.3672 17.297
12.3823 17.541
12.3975 17.143
12.4127 16.936
12.4279 17.178
12.4430 17.355
12.4582 17.323
12.4734 17.228
12.4886 16.972
12.5037 16.825
12.5189 16.754
12.5341 16.654
12.5493 16.632
12.5644 16.363
12.5796 16.184
12.5948 16.118
12.6100 16.001
12.6251 16.094
12.6403 16.121
12.6555 15.903
12.6707 16.026
12.6858 16.020
12.7010 15.845
12.7162 15.762
12.7314 15.928
12.7465 15.771
12.7617 15.368
12.7769 15.555
12.7921 15.608
12.8072 15.546
12.8224 15.239
12.8376 15.016
12.8528 14.927
12.8679 14.701
12.8831 14.683
12.8983 14.857
12.9135 14.916
12.9286 14.837
12.9438 14.582
12.9590 14.289
12.9742 14.372
12.9893 14.543
13.0045 14.549
13.0197 14.444
13.0349 14.332
13.0500 14.171
13.0652 14.095
13.0804 13.941
13.0956 13.872
13.1107 13.834
13.1259 13.784
13.1411 13.776
13.1563 13.929
13.1714 14.183
13.1866 14.119
13.2018 13.958
13.2170 13.819
13.2321 13.488
13.2473 13.420
13.2625 13.452
13.2777 13.242
13.2928 13.255
13.3080 13.249
13.3232 13.294
13.3384 13.367
13.3535 13.418
13.3687 13.169
13.3839 13.008
13.3991 13.099
13.4142 13.081
13.4294 12.878
13.4446 12.934
13.4598 13.038
13.4749 12.847
13.4901 12.790
13.5053 12.683
13.5205 12.624
13.5356 12.535
13.5508 12.426
13.5660 12.642
13.5812 12.681
13.5963 12.395
13.6115 12.229
13.6267 12.637
13.6419 12.622
13.6570 12.393
13.6722 12.302
13.6874 12.313
13.7026 12.114
13.7177 12.051
13.7329 11.991
13.7481 12.067
13.7633 12.246
13.7784 12.282
13.7936 12.346
13.8088 12.068
13.8239 11.847
13.8391 12.250
13.8543 12.328
13.8695 12.316
13.8846 12.392
13.8998 12.327
13.9150 12.242
13.9302 11.995
13.9453 12.026
13.9605 11.919
13.9757 11.788
13.9909 11.823
14.0060 11.616
14.0212 11.403
14.0364 11.507
14.0516 11.746
14.0667 11.634
14.0819 11.432
14.0971 11.387
14.1123 11.230
14.1274 11.382
14.1426 11.343
14.1578 11.479
14.1730 11.446
14.1881 11.514
14.2033 11.470
14.2185 11.636
14.2337 11.393
14.2488 11.268
14.2640 11.335
14.2792 11.708
14.2944 11.684
14.3095 11.570
14.3247 12.198
14.3399 12.410
14.3551 12.752
14.3702 13.051
14.3854 13.938
14.4006 14.233
14.4158 15.066
14.4309 15.323
14.4461 15.314
14.4613 14.405
14.4765 13.964
14.4916 13.880
14.5068 13.852
14.5220 13.615
14.5372 13.000
14.5523 12.168
14.5675 11.635
14.5827 11.628
14.5979 11.317
14.6130 11.105
14.6282 11.470
14.6434 11.070
14.6586 11.088
14.6737 10.849
14.6889 10.981
14.7041 10.913
14.7193 11.245
14.7344 11.425
14.7496 11.116
14.7648 11.397
14.7800 11.383
14.7951 11.436
14.8103 11.316
14.8255 11.445
14.8407 11.464
14.8558 11.254
14.8710 11.292
14.8862 10.844
14.9014 11.019
14.9165 11.279
14.9317 11.317
14.9469 11.062
14.9621 11.216
14.9772 10.366
14.9924 10.458
15.0076 10.754
15.0228 10.471
15.0379 10.851
15.0531 10.593
15.0683 10.286
15.0835 10.376
15.0986 10.454
15.1138 10.685
15.1290 10.527
15.1442 10.487
15.1593 10.368
15.1745 10.481
15.1897 10.417
15.2049 10.100
15.2200 10.927
15.2352 10.478
15.2504 10.271
15.2656 10.268
15.2807 10.277
15.2959 10.544
15.3111 10.042
15.3263 10.396
15.3414 10.400
15.3566 10.381
15.3718 10.264
15.3870 10.339
15.4021 10.555
15.4173 10.219
15.4325 10.416
15.4477 10.879
15.4628 10.466
15.4780 10.626
15.4932 10.709
15.5084 10.452
15.5235 10.554
15.5387 10.687
15.5539 10.383
15.5691 10.549
15.5842 10.132
15.5994 10.132
15.6146 10.479
15.6298 10.624
15.6449 10.343
15.6601 10.374
15.6753 10.266
15.6905 10.153
15.7056 10.315
15.7208 10.013
15.7360 9.923
15.7512 9.865
15.7663 10.041
15.7815 9.964
15.7967 10.164
15.8119 9.701
15.8270 10.065
15.8422 9.996
15.8574 9.690
15.8726 9.713
15.8877 9.794
15.9029 9.681
15.9181 9.485
15.9333 9.873
15.9484 9.613
15.9636 9.736
15.9788 9.854
15.9940 9.986
16.0091 10.090
16.0243 9.978
16.0395 9.971
16.0547 9.792
16.0698 9.793
16.0850 9.929
16.1002 9.767
16.1154 10.031
16.1305 9.838
16.1457 9.754
16.1609 9.723
16.1761 9.854
16.1912 10.102
16.2064 9.921
16.2216 10.103
16.2368 10.052
16.2519 9.959
16.2671 10.386
16.2823 10.152
16.2975 10.115
16.3126 9.904
16.3278 9.755
16.3430 10.044
16.3582 10.369
16.3733 10.543
16.3885 10.159
16.4037 10.116
16.4189 10.335
16.4340 10.167
16.4492 10.052
16.4644 10.039
16.4796 9.995
16.4947 9.920
16.5099 9.921
16.5251 9.729
16.5403 10.115
16.5554 10.178
16.5706 9.843
16.5858 9.751
16.6010 9.920
16.6161 10.121
16.6313 10.170
16.6465 10.074
16.6617 9.824
16.6768 9.751
16.6920 9.881
16.7072 9.992
16.7224 10.226
16.7375 10.194
16.7527 10.252
16.7679 10.221
16.7831 10.208
16.7982 10.269
16.8134 10.230
16.8286 10.079
16.8438 9.961
16.8589 9.865
16.8741 9.850
16.8893 9.895
16.9045 9.765
16.9196 9.728
16.9348 9.896
16.9500 9.999
16.9652 10.026
16.9803 10.090
16.9955 9.971
17.0107 10.029
17.0259 10.252
17.0410 10.154
17.0562 10.128
17.0714 10.367
17.0866 10.610
17.1017 10.758
17.1169 10.943
17.1321 11.066
17.1473 11.451
17.1624 11.958
17.1776 12.558
17.1928 13.402
17.2080 14.226
17.2231 15.050
17.2383 16.286
17.2535 17.744
17.2687 18.861
17.2838 19.059
17.2990 18.297
17.3142 17.281
17.3294 16.214
17.3445 15.917
17.3597 16.197
17.3749 16.187
17.3901 15.513
17.4052 14.105
17.4204 13.026
17.4356 12.418
17.4508 11.901
17.4659 11.699
17.4811 11.761
17.4963 11.454
17.5115 11.058
17.5266 10.941
17.5418 10.775
17.5570 10.623
17.5722 10.538
17.5873 10.616
17.6025 10.579
17.6177 10.549
17.6329 11.131
17.6480 11.513
17.6632 11.655
17.6784 12.336
17.6936 12.827
17.7087 13.196
17.7239 13.143
17.7391 12.500
17.7543 12.024
17.7694 12.031
17.7846 12.496
17.7998 12.880
17.8150 12.828
17.8301 12.522
17.8453 12.222
17.8605 12.094
17.8757 12.041
17.8908 11.860
17.9060 11.684
17.9212 11.444
17.9364 11.357
17.9515 11.484
17.9667 11.187
17.9819 11.057
17.9971 10.945
18.0122 10.632
18.0274 10.528
18.0426 10.526
18.0578 10.440
18.0729 10.323
18.0881 10.353
18.1033 10.336
18.1185 10.306
18.1336 10.320
18.1488 10.142
18.1640 10.051
18.1792 10.389
18.1943 10.398
18.2095 10.424
18.2247 10.397
18.2399 10.072
18.2550 9.997
18.2702 10.047
18.2854 10.040
18.3006 9.803
18.3157 9.864
18.3309 10.072
18.3461 10.248
18.3613 10.130
18.3764 10.206
18.3916 10.271
18.4068 10.248
18.4220 9.973
18.4371 9.819
18.4523 9.814
18.4675 9.866
18.4827 10.048
18.4978 10.067
18.5130 9.951
18.5282 10.073
18.5434 9.991
18.5585 9.923
18.5737 10.023
18.5889 9.975
18.6041 10.115
18.6192 9.920
18.6344 9.924
18.6496 9.971
18.6648 9.919
18.6799 9.883
18.6951 9.852
18.7103 9.908
18.7255 9.836
18.7406 9.921
18.7558 9.928
18.7710 9.851
18.7862 9.786
18.8013 9.709
18.8165 9.759
18.8317 10.095
18.8469 10.096
18.8620 9.942
18.8772 9.785
18.8924 9.833
18.9076 9.991
18.9227 10.102
18.9379 10.232
18.9531 10.264
18.9683 10.275
18.9834 10.215
18.9986 10.255
19.0138 10.334
19.0290 10.369
19.0441 10.106
19.0593 10.192
19.0745 10.253
19.0897 10.332
19.1048 10.537
19.1200 10.592
19.1352 10.466
19.1504 10.560
19.1655 10.688
19.1807 10.815
19.1959 10.930
19.2111 10.967
19.2262 10.910
19.2414 10.898
19.2566 11.081
19.2718 10.862
19.2869 10.883
19.3021 10.984
19.3173 10.956
19.3325 11.152
19.3476 11.236
19.3628 11.289
19.3780 11.381
19.3932 11.300
19.4083 11.333
19.4235 11.411
19.4387 11.458
19.4539 11.365
19.4690 11.385
19.4842 11.498
19.4994 11.344
19.5146 11.451
19.5297 11.671
19.5449 11.642
19.5601 11.502
19.5753 11.679
19.5904 11.840
19.6056 11.794
19.6208 11.647
19.6360 11.707
19.6511 11.962
19.6663 11.924
19.6815 12.061
19.6967 12.227
19.7118 11.893
19.7270 11.761
19.7422 11.948
19.7574 11.964
19.7725 11.917
19.7877 11.858
19.8029 11.991
19.8180 12.308
19.8332 12.304
19.8484 12.333
19.8636 12.438
19.8787 12.746
19.8939 12.994
19.9091 13.101
19.9243 13.604
19.9394 13.945
19.9546 14.272
19.9698 14.734
19.9850 14.838
20.0001 14.589
20.0153 14.466
20.0305 14.436
20.0457 14.056
20.0608 13.712
20.0760 13.572
20.0912 13.752
20.1064 13.848
20.1215 13.610
20.1367 13.396
20.1519 13.198
20.1671 12.932
20.1822 12.799
20.1974 12.787
20.2126 12.589
20.2278 12.493
20.2429 12.213
20.2581 12.066
20.2733 11.761
20.2885 11.664
20.3036 11.701
20.3188 11.871
20.3340 11.969
20.3492 11.851
20.3643 11.748
20.3795 11.554
20.3947 11.497
20.4099 11.468
20.4250 11.620
20.4402 11.731
20.4554 11.831
20.4706 12.227
20.4857 12.251
20.5009 12.287
20.5161 12.210
20.5313 12.111
20.5464 11.596
20.5616 11.583
20.5768 11.993
20.5920 11.835
20.6071 12.051
20.6223 11.793
20.6375 11.479
20.6527 11.548
20.6678 10.877
20.6830 10.579
20.6982 10.309
20.7134 10.450
20.7285 10.538
20.7437 10.278
20.7589 10.442
20.7741 10.238
20.7892 10.344
20.8044 10.269
20.8196 10.511
20.8348 10.435
20.8499 10.408
20.8651 10.552
20.8803 10.458
20.8955 10.466
20.9106 10.719
20.9258 10.525
20.9410 10.538
20.9562 10.737
20.9713 10.720
20.9865 10.856
21.0017 10.442
21.0169 10.558
21.0320 10.960
21.0472 10.985
21.0624 10.609
21.0776 10.441
21.0927 10.402
21.1079 10.351
21.1231 10.288
21.1383 10.277
21.1534 10.259
21.1686 9.895
21.1838 10.116
21.1990 9.843
21.2141 10.025
21.2293 9.909
21.2445 9.615
21.2597 10.229
21.2748 9.797
21.2900 9.593
21.3052 9.732
21.3204 9.914
21.3355 9.462
21.3507 9.562
21.3659 9.621
21.3811 9.591
21.3962 9.509
21.4114 9.689
21.4266 9.583
21.4418 9.439
21.4569 9.775
21.4721 9.655
21.4873 9.294
21.5025 9.533
21.5176 9.284
21.5328 9.245
21.5480 9.236
21.5632 9.125
21.5783 9.214
21.5935 9.285
21.6087 9.333
21.6239 9.201
21.6390 9.336
21.6542 9.205
21.6694 9.073
21.6846 8.958
21.6997 9.046
21.7149 9.095
21.7301 9.090
21.7453 9.289
21.7604 9.236
21.7756 8.872
21.7908 8.794
21.8060 9.118
21.8211 9.217
21.8363 9.195
21.8515 9.046
21.8667 9.063
21.8818 9.266
21.8970 9.217
21.9122 8.997
21.9274 8.941
21.9425 8.878
21.9577 8.991
21.9729 8.851
21.9881 8.945
22.0032 9.057
22.0184 8.888
22.0336 8.896
22.0488 9.015
22.0639 8.867
22.0791 8.699
22.0943 8.709
22.1095 8.607
22.1246 8.657
22.1398 8.826
22.1550 8.719
22.1702 8.536
22.1853 8.739
22.2005 8.654
22.2157 8.526
22.2309 8.402
22.2460 8.538
22.2612 8.746
22.2764 8.654
22.2916 8.713
22.3067 8.604
22.3219 8.882
22.3371 8.565
22.3523 8.404
22.3674 8.416
22.3826 8.818
22.3978 8.652
22.4130 8.552
22.4281 8.512
22.4433 8.487
22.4585 8.489
22.4737 8.575
22.4888 8.564
22.5040 8.741
22.5192 8.840
22.5344 8.909
22.5495 8.493
22.5647 8.370
22.5799 8.639
22.5951 8.721
22.6102 8.410
22.6254 8.332
22.6406 8.426
22.6558 8.577
22.6709 8.267
22.6861 8.324
22.7013 8.300
22.7165 8.041
22.7316 6.524
