'Id: "" Comment: "" Operator: "Lab Manager" Anode: "Mo" Scantype: "Still (Eiger2R_500K (1D mode))" TimePerStep: "300" X: "11.8" Y: "9.4" Z: "11.284" 
7.2532 19.012
7.2684 19.300
7.2836 19.175
7.2987 18.885
7.3139 18.929
7.3291 19.400
7.3443 18.968
7.3594 19.107
7.3746 19.230
7.3898 19.380
7.4050 19.867
7.4201 19.789
7.4353 19.243
7.4505 19.396
7.4657 19.263
7.4808 19.554
7.4960 19.584
7.5112 19.561
7.5264 19.671
7.5415 19.579
7.5567 19.745
7.5719 19.871
7.5871 19.940
7.6022 20.038
7.6174 19.836
7.6326 19.350
7.6478 19.728
7.6629 20.101
7.6781 20.080
7.6933 20.288
7.7085 20.097
7.7236 20.037
7.7388 20.339
7.7540 20.342
7.7692 20.322
7.7843 20.413
7.7995 20.313
7.8147 20.313
7.8299 20.546
7.8450 20.576
7.8602 20.541
7.8754 20.407
7.8905 20.594
7.9057 20.780
7.9209 21.399
7.9361 21.457
7.9512 20.900
7.9664 20.996
7.9816 21.453
7.9968 21.410
8.0119 21.202
8.0271 21.214
8.0423 20.817
8.0575 21.195
8.0726 21.152
8.0878 21.170
8.1030 21.500
8.1182 21.629
8.1333 21.307
8.1485 21.418
8.1637 21.373
8.1789 21.991
8.1940 21.758
8.2092 21.395
8.2244 21.389
8.2396 21.509
8.2547 22.143
8.2699 21.903
8.2851 21.809
8.3003 21.785
8.3154 22.142
8.3306 21.892
8.3458 21.680
8.3610 21.454
8.3761 21.610
8.3913 22.136
8.4065 21.814
8.4217 22.069
8.4368 22.073
8.4520 22.223
8.4672 22.163
8.4824 21.957
8.4975 22.203
8.5127 22.315
8.5279 22.345
8.5431 22.274
8.5582 22.246
8.5734 22.303
8.5886 22.202
8.6038 22.556
8.6189 22.100
8.6341 22.225
8.6493 22.150
8.6645 21.728
8.6796 22.563
8.6948 22.234
8.7100 22.304
8.7252 22.347
8.7403 22.435
8.7555 22.464
8.7707 22.606
8.7859 22.335
8.8010 22.801
8.8162 22.516
8.8314 22.612
8.8466 22.724
8.8617 22.329
8.8769 22.714
8.8921 22.501
8.9073 22.649
8.9224 22.579
8.9376 22.711
8.9528 22.497
8.9680 22.558
8.9831 22.287
8.9983 22.350
9.0135 22.359
9.0287 22.608
9.0438 22.687
9.0590 22.852
9.0742 22.682
9.0894 22.650
9.1045 23.313
9.1197 22.704
9.1349 22.479
9.1501 22.843
9.1652 22.941
9.1804 23.183
9.1956 22.745
9.2108 22.716
9.2259 23.055
9.2411 23.203
9.2563 22.974
9.2715 22.947
9.2866 22.981
9.3018 22.853
9.3170 23.048
9.3322 23.073
9.3473 23.098
9.3625 23.389
9.3777 23.185
9.3929 22.829
9.4080 23.005
9.4232 23.166
9.4384 23.304
9.4536 23.332
9.4687 23.202
9.4839 23.017
9.4991 22.875
9.5143 23.216
9.5294 23.469
9.5446 23.415
9.5598 23.379
9.5750 23.583
9.5901 23.335
9.6053 23.389
9.6205 23.546
9.6357 23.458
9.6508 23.468
9.6660 23.775
9.6812 23.961
9.6964 24.255
9.7115 24.062
9.7267 24.294
9.7419 24.418
9.7571 24.060
9.7722 24.029
9.7874 23.935
9.8026 24.072
9.8178 24.019
9.8329 23.829
9.8481 23.556
9.8633 23.500
9.8785 23.580
9.8936 23.690
9.9088 23.831
9.9240 24.062
9.9392 23.988
9.9543 24.006
9.9695 24.123
9.9847 23.675
9.9999 23.418
10.0150 23.302
10.0302 23.219
10.0454 23.097
10.0606 23.052
10.0757 23.158
10.0909 23.180
10.1061 23.045
10.1213 23.295
10.1364 23.662
10.1516 23.231
10.1668 22.977
10.1820 23.073
10.1971 23.048
10.2123 23.158
10.2275 23.058
10.2427 23.026
10.2578 23.437
10.2730 23.418
10.2882 22.775
10.3034 23.016
10.3185 23.132
10.3337 22.742
10.3489 22.805
10.3641 23.016
10.3792 23.164
10.3944 23.150
10.4096 23.151
10.4248 22.968
10.4399 22.841
10.4551 23.061
10.4703 22.692
10.4855 23.027
10.5006 22.746
10.5158 22.636
10.5310 22.948
10.5462 22.716
10.5613 22.532
10.5765 22.537
10.5917 22.672
10.6069 22.745
10.6220 22.542
10.6372 22.633
10.6524 22.424
10.6676 22.237
10.6827 22.152
10.6979 22.228
10.7131 22.310
10.7283 22.248
10.7434 21.970
10.7586 22.089
10.7738 22.458
10.7890 22.477
10.8041 22.379
10.8193 22.036
10.8345 22.154
10.8497 22.686
10.8648 22.589
10.8800 22.335
10.8952 22.357
10.9104 22.328
10.9255 22.250
10.9407 22.608
10.9559 22.393
10.9711 22.208
10.9862 22.132
11.0014 22.300
11.0166 22.086
11.0318 22.018
11.0469 21.742
11.0621 21.757
11.0773 21.928
11.0925 21.925
11.1076 21.776
11.1228 21.679
11.1380 21.735
11.1532 21.650
11.1683 21.839
11.1835 22.002
11.1987 22.095
11.2139 21.870
11.2290 21.838
11.2442 21.759
11.2594 21.352
11.2746 21.594
11.2897 21.196
11.3049 21.716
11.3201 21.744
11.3353 21.894
11.3504 21.863
11.3656 21.241
11.3808 21.523
11.3960 21.174
11.4111 21.539
11.4263 21.325
11.4415 21.734
11.4567 21.463
11.4718 21.147
11.4870 21.431
11.5022 21.152
11.5174 21.365
11.5325 21.006
11.5477 21.151
11.5629 20.985
11.5781 21.205
11.5932 21.302
11.6084 21.122
11.6236 20.822
11.6388 20.871
11.6539 20.790
11.6691 20.822
11.6843 20.655
11.6995 20.221
11.7146 20.203
11.7298 20.443
11.7450 20.365
11.7602 20.501
11.7753 20.219
11.7905 19.887
11.8057 20.045
11.8209 20.106
11.8360 20.063
11.8512 19.890
11.8664 19.916
11.8816 19.811
11.8967 19.707
11.9119 19.842
11.9271 19.625
11.9423 19.411
11.9574 19.276
11.9726 19.791
11.9878 19.474
12.0030 19.366
12.0181 19.013
12.0333 19.258
12.0485 19.369
12.0637 19.290
12.0788 19.291
12.0940 18.958
12.1092 18.820
12.1244 18.823
12.1395 18.579
12.1547 18.768
12.1699 18.379
12.1851 18.313
12.2002 18.225
12.2154 18.313
12.2306 18.437
12.2458 18.320
12.2609 18.379
12.2761 18.149
12.2913 17.888
12.3065 17.701
12.3216 17.651
12.3368 17.685
12.3520 17.409
12.3672 17.059
12.3823 17.251
12.3975 17.403
12.4127 17.268
12.4279 17.309
12.4430 16.971
12.4582 16.849
12.4734 16.907
12.4886 16.792
12.5037 16.583
12.5189 16.620
12.5341 16.849
12.5493 16.778
12.5644 16.284
12.5796 16.067
12.5948 16.186
12.6100 16.273
12.6251 16.448
12.6403 16.354
12.6555 16.047
12.6707 15.808
12.6858 15.653
12.7010 15.696
12.7162 15.659
12.7314 15.465
12.7465 15.452
12.7617 15.305
12.7769 15.469
12.7921 15.388
12.8072 15.164
12.8224 14.853
12.8376 14.871
12.8528 14.895
12.8679 14.917
12.8831 14.934
12.8983 14.630
12.9135 14.532
12.9286 14.578
12.9438 14.706
12.9590 14.649
12.9742 14.457
12.9893 14.456
13.0045 14.364
13.0197 14.370
13.0349 14.373
13.0500 14.398
13.0652 14.279
13.0804 13.945
13.0956 13.913
13.1107 13.948
13.1259 13.818
13.1411 13.785
13.1563 13.865
13.1714 13.970
13.1866 13.945
13.2018 13.833
13.2170 13.494
13.2321 13.193
13.2473 13.268
13.2625 13.242
13.2777 13.205
13.2928 13.279
13.3080 13.320
13.3232 13.082
13.3384 12.849
13.3535 13.096
13.3687 13.219
13.3839 13.174
13.3991 13.314
13.4142 13.177
13.4294 13.098
13.4446 13.043
13.4598 12.936
13.4749 12.915
13.4901 12.945
13.5053 12.672
13.5205 12.477
13.5356 12.603
13.5508 12.622
13.5660 12.469
13.5812 12.317
13.5963 12.102
13.6115 12.112
13.6267 12.468
13.6419 12.352
13.6570 12.105
13.6722 12.180
13.6874 12.046
13.7026 12.180
13.7177 12.436
13.7329 12.193
13.7481 11.985
13.7633 11.882
13.7784 12.178
13.7936 12.341
13.8088 12.288
13.8239 12.246
13.8391 12.203
13.8543 11.950
13.8695 12.161
13.8846 12.310
13.8998 12.516
13.9150 12.257
13.9302 12.141
13.9453 11.965
13.9605 11.869
13.9757 11.802
13.9909 12.032
14.0060 12.099
14.0212 11.624
14.0364 11.507
14.0516 11.698
14.0667 11.500
14.0819 11.372
14.0971 11.372
14.1123 11.449
14.1274 11.482
14.1426 11.621
14.1578 11.566
14.1730 11.517
14.1881 11.136
14.2033 11.617
14.2185 11.328
14.2337 11.433
14.2488 11.436
14.2640 11.413
14.2792 11.393
14.2944 11.619
14.3095 11.558
14.3247 11.607
14.3399 11.976
14.3551 11.825
14.3702 12.243
14.3854 12.212
14.4006 12.494
14.4158 12.726
14.4309 12.743
14.4461 13.139
14.4613 12.761
14.4765 12.301
14.4916 12.519
14.5068 11.943
14.5220 12.027
14.5372 12.025
14.5523 11.753
14.5675 11.813
14.5827 11.488
14.5979 11.509
14.6130 11.268
14.6282 10.906
14.6434 11.322
14.6586 11.207
14.6737 10.651
14.6889 10.954
14.7041 11.009
14.7193 10.938
14.7344 10.899
14.7496 11.156
14.7648 10.950
14.7800 11.057
14.7951 11.217
14.8103 10.971
14.8255 10.770
14.8407 10.979
14.8558 10.735
14.8710 10.389
14.8862 10.834
14.9014 10.661
14.9165 10.957
14.9317 10.856
14.9469 10.752
14.9621 10.992
14.9772 10.569
14.9924 10.415
15.0076 10.743
15.0228 10.612
15.0379 10.473
15.0531 10.681
15.0683 10.653
15.0835 10.485
15.0986 10.235
15.1138 10.192
15.1290 10.344
15.1442 10.298
15.1593 10.112
15.1745 10.308
15.1897 10.459
15.2049 10.078
15.2200 10.319
15.2352 10.545
15.2504 10.679
15.2656 10.078
15.2807 9.892
15.2959 10.443
15.3111 10.275
15.3263 10.282
15.3414 10.704
15.3566 10.303
15.3718 10.595
15.3870 10.334
15.4021 10.438
15.4173 10.225
15.4325 10.346
15.4477 10.297
15.4628 10.042
15.4780 10.499
15.4932 10.836
15.5084 10.560
15.5235 10.258
15.5387 10.384
15.5539 10.409
15.5691 10.176
15.5842 10.347
15.5994 10.075
15.6146 9.986
15.6298 10.205
15.6449 10.222
15.6601 10.184
15.6753 10.257
15.6905 10.231
15.7056 9.832
15.7208 9.990
15.7360 10.041
15.7512 9.927
15.7663 10.034
15.7815 9.892
15.7967 9.993
15.8119 10.059
15.8270 9.814
15.8422 9.630
15.8574 9.832
15.8726 9.901
15.8877 10.154
15.9029 9.736
15.9181 9.796
15.9333 9.860
15.9484 9.935
15.9636 9.892
15.9788 9.805
15.9940 9.806
16.0091 9.754
16.0243 9.790
16.0395 9.849
16.0547 9.812
16.0698 9.841
16.0850 9.547
16.1002 9.632
16.1154 9.931
16.1305 9.730
16.1457 9.623
16.1609 9.614
16.1761 9.705
16.1912 9.859
16.2064 9.722
16.2216 9.879
16.2368 9.861
16.2519 9.875
16.2671 10.076
16.2823 10.289
16.2975 10.055
16.3126 10.136
16.3278 9.859
16.3430 9.653
16.3582 9.904
16.3733 10.198
16.3885 10.283
16.4037 10.061
16.4189 10.076
16.4340 10.078
16.4492 9.975
16.4644 10.086
16.4796 10.088
16.4947 10.139
16.5099 10.122
16.5251 9.884
16.5403 9.889
16.5554 9.700
16.5706 9.679
16.5858 10.028
16.6010 10.062
16.6161 10.032
16.6313 9.850
16.6465 9.985
16.6617 9.929
16.6768 9.866
16.6920 10.195
16.7072 10.263
16.7224 10.097
16.7375 10.182
16.7527 10.236
16.7679 10.330
16.7831 10.367
16.7982 10.118
16.8134 10.008
16.8286 10.092
16.8438 9.994
16.8589 9.846
16.8741 9.783
16.8893 9.968
16.9045 10.000
16.9196 9.890
16.9348 9.992
16.9500 9.994
16.9652 9.994
16.9803 9.974
16.9955 10.099
17.0107 10.080
17.0259 10.030
17.0410 10.100
17.0562 10.311
17.0714 10.577
17.0866 10.739
17.1017 10.847
17.1169 10.992
17.1321 11.253
17.1473 11.431
17.1624 11.603
17.1776 12.246
17.1928 13.266
17.2080 14.231
17.2231 15.324
17.2383 16.564
17.2535 17.906
17.2687 18.809
17.2838 18.763
17.2990 17.953
17.3142 16.795
17.3294 16.224
17.3445 15.922
17.3597 15.996
17.3749 16.134
17.3901 15.261
17.4052 13.868
17.4204 13.085
17.4356 12.344
17.4508 11.507
17.4659 11.270
17.4811 11.065
17.4963 11.094
17.5115 11.057
17.5266 10.658
17.5418 10.403
17.5570 10.498
17.5722 10.647
17.5873 10.620
17.6025 10.447
17.6177 10.308
17.6329 10.147
17.6480 10.241
17.6632 10.449
17.6784 10.378
17.6936 10.303
17.7087 10.329
17.7239 10.570
17.7391 10.662
17.7543 10.680
17.7694 10.659
17.7846 10.582
17.7998 10.827
17.8150 11.034
17.8301 11.010
17.8453 10.827
17.8605 10.870
17.8757 11.187
17.8908 11.254
17.9060 11.085
17.9212 11.015
17.9364 10.959
17.9515 10.811
17.9667 10.545
17.9819 10.539
17.9971 10.609
18.0122 10.550
18.0274 10.350
18.0426 10.088
18.0578 10.023
18.0729 10.043
18.0881 9.853
18.1033 9.939
18.1185 10.042
18.1336 10.018
18.1488 9.926
18.1640 10.040
18.1792 10.108
18.1943 9.868
18.2095 9.837
18.2247 9.940
18.2399 9.894
18.2550 10.076
18.2702 9.913
18.2854 9.718
18.3006 9.875
18.3157 10.096
18.3309 9.975
18.3461 10.000
18.3613 10.042
18.3764 9.856
18.3916 9.750
18.4068 9.836
18.4220 9.814
18.4371 9.620
18.4523 9.757
18.4675 9.817
18.4827 9.695
18.4978 9.775
18.5130 9.845
18.5282 9.809
18.5434 9.809
18.5585 9.919
18.5737 9.855
18.5889 9.684
18.6041 9.803
18.6192 9.742
18.6344 9.734
18.6496 9.740
18.6648 9.825
18.6799 9.776
18.6951 9.836
18.7103 9.887
18.7255 9.879
18.7406 9.739
18.7558 9.671
18.7710 9.972
18.7862 10.122
18.8013 9.709
18.8165 9.604
18.8317 9.729
18.8469 9.921
18.8620 10.035
18.8772 10.026
18.8924 9.867
18.9076 9.965
18.9227 10.145
18.9379 9.965
18.9531 10.063
18.9683 10.079
18.9834 9.917
18.9986 10.057
19.0138 10.215
19.0290 10.053
19.0441 10.176
19.0593 10.473
19.0745 10.499
19.0897 10.200
19.1048 10.212
19.1200 10.396
19.1352 10.518
19.1504 10.740
19.1655 10.780
19.1807 10.663
19.1959 10.734
19.2111 10.819
19.2262 10.830
19.2414 10.903
19.2566 10.914
19.2718 10.759
19.2869 10.826
19.3021 10.850
19.3173 10.873
19.3325 11.137
19.3476 11.196
19.3628 11.394
19.3780 11.413
19.3932 11.427
19.4083 11.592
19.4235 11.354
19.4387 11.501
19.4539 11.568
19.4690 11.260
19.4842 11.385
19.4994 11.309
19.5146 11.273
19.5297 11.544
19.5449 11.680
19.5601 11.507
19.5753 11.272
19.5904 11.337
19.6056 11.545
19.6208 11.770
19.6360 11.704
19.6511 11.653
19.6663 11.654
19.6815 11.805
19.6967 11.916
19.7118 11.752
19.7270 11.824
19.7422 11.841
19.7574 11.702
19.7725 11.831
19.7877 11.780
19.8029 11.933
19.8180 11.984
19.8332 12.025
19.8484 12.352
19.8636 12.616
19.8787 12.767
19.8939 13.052
19.9091 13.346
19.9243 13.472
19.9394 13.986
19.9546 14.336
19.9698 14.514
19.9850 14.769
20.0001 14.617
20.0153 14.446
20.0305 14.329
20.0457 13.977
20.0608 13.793
20.0760 13.725
20.0912 13.625
20.1064 13.876
20.1215 13.864
20.1367 13.463
20.1519 13.167
20.1671 12.937
20.1822 12.595
20.1974 12.651
20.2126 12.622
20.2278 12.578
20.2429 12.532
20.2581 12.198
20.2733 11.754
20.2885 11.639
20.3036 11.532
20.3188 11.456
20.3340 11.653
20.3492 11.441
20.3643 11.437
20.3795 11.298
20.3947 11.206
20.4099 11.022
20.4250 10.836
20.4402 10.722
20.4554 11.079
20.4706 11.141
20.4857 10.956
20.5009 10.879
20.5161 10.832
20.5313 10.680
20.5464 10.823
20.5616 10.904
20.5768 10.430
20.5920 10.610
20.6071 10.426
20.6223 10.772
20.6375 10.436
20.6527 10.398
20.6678 10.545
20.6830 10.966
20.6982 10.557
20.7134 10.387
20.7285 10.190
20.7437 10.440
20.7589 10.277
20.7741 10.459
20.7892 10.483
20.8044 10.155
20.8196 10.240
20.8348 10.303
20.8499 10.472
20.8651 10.515
20.8803 10.639
20.8955 10.513
20.9106 10.748
20.9258 10.339
20.9410 10.492
20.9562 10.466
20.9713 10.606
20.9865 10.388
21.0017 10.240
21.0169 10.205
21.0320 10.193
21.0472 10.148
21.0624 10.321
21.0776 10.523
21.0927 10.059
21.1079 10.048
21.1231 9.869
21.1383 9.869
21.1534 10.104
21.1686 9.788
21.1838 9.783
21.1990 9.614
21.2141 9.619
21.2293 9.645
21.2445 10.028
21.2597 9.804
21.2748 9.682
21.2900 9.599
21.3052 9.740
21.3204 9.665
21.3355 9.684
21.3507 9.475
21.3659 9.723
21.3811 9.309
21.3962 9.488
21.4114 9.381
21.4266 9.571
21.4418 9.911
21.4569 9.373
21.4721 9.471
21.4873 9.316
21.5025 9.347
21.5176 9.601
21.5328 9.293
21.5480 9.250
21.5632 9.407
21.5783 9.452
21.5935 9.504
21.6087 9.027
21.6239 9.031
21.6390 9.182
21.6542 9.100
21.6694 9.261
21.6846 8.995
21.6997 9.246
21.7149 9.113
21.7301 9.120
21.7453 9.182
21.7604 9.049
21.7756 8.948
21.7908 8.983
21.8060 9.092
21.8211 8.765
21.8363 8.937
21.8515 8.999
21.8667 8.931
21.8818 9.090
21.8970 9.144
21.9122 9.052
21.9274 9.130
21.9425 8.925
21.9577 8.959
21.9729 8.928
21.9881 8.755
22.0032 8.858
22.0184 8.958
22.0336 8.827
22.0488 8.662
22.0639 8.670
22.0791 8.758
22.0943 8.675
22.1095 8.631
22.1246 8.655
22.1398 8.546
22.1550 8.506
22.1702 8.706
22.1853 8.791
22.2005 8.698
22.2157 8.601
22.2309 8.799
22.2460 8.782
22.2612 8.481
22.2764 8.888
22.2916 8.837
22.3067 8.717
22.3219 8.690
22.3371 8.739
22.3523 8.609
22.3674 8.514
22.3826 8.620
22.3978 8.769
22.4130 8.501
22.4281 8.475
22.4433 8.637
22.4585 8.329
22.4737 8.376
22.4888 8.280
22.5040 8.326
22.5192 8.591
22.5344 8.551
22.5495 8.684
22.5647 8.553
22.5799 8.663
22.5951 8.587
22.6102 8.538
22.6254 8.309
22.6406 8.562
22.6558 8.334
22.6709 8.166
22.6861 8.401
22.7013 8.242
22.7165 7.969
22.7316 6.611
