'Id: "" Comment: "" Operator: "Lab Manager" Anode: "Mo" Scantype: "Still (Eiger2R_500K (1D mode))" TimePerStep: "300" X: "11.8" Y: "9.4" Z: "11.284" 
7.2532 19.104
7.2684 18.686
7.2836 19.056
7.2987 18.790
7.3139 18.831
7.3291 19.274
7.3443 19.070
7.3594 19.175
7.3746 19.114
7.3898 19.196
7.4050 19.488
7.4201 19.368
7.4353 19.645
7.4505 19.147
7.4657 19.454
7.4808 19.549
7.4960 19.661
7.5112 19.379
7.5264 19.423
7.5415 19.666
7.5567 19.546
7.5719 19.570
7.5871 19.745
7.6022 19.989
7.6174 20.195
7.6326 20.060
7.6478 20.246
7.6629 20.221
7.6781 20.071
7.6933 20.078
7.7085 20.018
7.7236 20.340
7.7388 20.302
7.7540 19.892
7.7692 20.209
7.7843 20.332
7.7995 20.512
7.8147 20.608
7.8299 20.382
7.8450 20.502
7.8602 20.740
7.8754 20.470
7.8905 20.282
7.9057 20.413
7.9209 20.914
7.9361 20.972
7.9512 20.815
7.9664 20.864
7.9816 20.769
7.9968 20.799
8.0119 21.021
8.0271 21.012
8.0423 20.730
8.0575 20.720
8.0726 21.155
8.0878 20.934
8.1030 20.869
8.1182 20.702
8.1333 20.975
8.1485 21.187
8.1637 20.885
8.1789 21.079
8.1940 21.348
8.2092 21.253
8.2244 21.415
8.2396 21.666
8.2547 21.469
8.2699 21.748
8.2851 21.696
8.3003 21.562
8.3154 20.977
8.3306 21.572
8.3458 21.502
8.3610 21.649
8.3761 21.607
8.3913 21.707
8.4065 21.495
8.4217 21.619
8.4368 21.746
8.4520 21.580
8.4672 22.026
8.4824 22.110
8.4975 22.253
8.5127 21.855
8.5279 21.505
8.5431 21.731
8.5582 21.968
8.5734 21.962
8.5886 22.445
8.6038 22.329
8.6189 21.913
8.6341 21.895
8.6493 22.098
8.6645 21.685
8.6796 21.771
8.6948 22.465
8.7100 22.021
8.7252 22.213
8.7403 22.236
8.7555 21.884
8.7707 21.858
8.7859 22.036
8.8010 22.178
8.8162 22.170
8.8314 22.278
8.8466 22.554
8.8617 22.052
8.8769 22.502
8.8921 22.098
8.9073 22.599
8.9224 22.385
8.9376 22.212
8.9528 22.201
8.9680 22.335
8.9831 22.652
8.9983 22.542
9.0135 22.928
9.0287 22.486
9.0438 22.883
9.0590 22.439
9.0742 22.615
9.0894 22.524
9.1045 23.003
9.1197 22.744
9.1349 22.649
9.1501 22.546
9.1652 23.120
9.1804 22.728
9.1956 22.405
9.2108 22.112
9.2259 22.747
9.2411 22.826
9.2563 22.818
9.2715 22.893
9.2866 23.062
9.3018 22.681
9.3170 23.130
9.3322 22.802
9.3473 22.829
9.3625 22.891
9.3777 23.196
9.3929 23.056
9.4080 22.825
9.4232 22.678
9.4384 22.566
9.4536 23.066
9.4687 23.070
9.4839 23.173
9.4991 23.225
9.5143 22.986
9.5294 23.121
9.5446 23.301
9.5598 23.222
9.5750 23.086
9.5901 23.014
9.6053 22.883
9.6205 23.013
9.6357 23.141
9.6508 23.157
9.6660 23.324
9.6812 23.573
9.6964 23.786
9.7115 23.810
9.7267 24.132
9.7419 23.924
9.7571 23.582
9.7722 23.981
9.7874 23.693
9.8026 23.383
9.8178 23.264
9.8329 23.127
9.8481 23.041
9.8633 23.091
9.8785 23.060
9.8936 22.940
9.9088 23.085
9.9240 23.304
9.9392 23.343
9.9543 23.287
9.9695 23.306
9.9847 23.356
9.9999 23.553
10.0150 23.556
10.0302 23.315
10.0454 23.263
10.0606 23.187
10.0757 23.237
10.0909 23.115
10.1061 23.139
10.1213 23.203
10.1364 23.325
10.1516 23.501
10.1668 23.434
10.1820 22.872
10.1971 22.827
10.2123 23.061
10.2275 23.204
10.2427 22.699
10.2578 22.799
10.2730 23.133
10.2882 22.720
10.3034 22.892
10.3185 23.173
10.3337 22.927
10.3489 22.529
10.3641 22.355
10.3792 22.850
10.3944 23.064
10.4096 22.817
10.4248 22.386
10.4399 21.848
10.4551 22.386
10.4703 22.576
10.4855 22.689
10.5006 22.697
10.5158 22.423
10.5310 22.434
10.5462 22.501
10.5613 22.436
10.5765 22.453
10.5917 22.517
10.6069 22.442
10.6220 22.526
10.6372 22.755
10.6524 22.480
10.6676 22.323
10.6827 22.515
10.6979 22.656
10.7131 22.731
10.7283 22.331
10.7434 21.949
10.7586 21.959
10.7738 22.182
10.7890 22.188
10.8041 21.894
10.8193 22.188
10.8345 22.265
10.8497 22.435
10.8648 22.340
10.8800 21.744
10.8952 22.221
10.9104 21.907
10.9255 21.685
10.9407 21.628
10.9559 21.752
10.9711 22.011
10.9862 22.095
11.0014 22.195
11.0166 22.153
11.0318 22.480
11.0469 21.948
11.0621 21.598
11.0773 21.634
11.0925 21.559
11.1076 21.635
11.1228 21.714
11.1380 21.823
11.1532 21.674
11.1683 21.866
11.1835 21.631
11.1987 21.488
11.2139 21.441
11.2290 21.524
11.2442 21.483
11.2594 21.397
11.2746 21.505
11.2897 21.577
11.3049 21.517
11.3201 21.327
11.3353 21.165
11.3504 21.262
11.3656 21.487
11.3808 21.390
11.3960 21.383
11.4111 21.191
11.4263 21.010
11.4415 21.320
11.4567 21.564
11.4718 21.091
11.4870 20.898
11.5022 21.053
11.5174 21.047
11.5325 21.110
11.5477 20.960
11.5629 21.015
11.5781 20.928
11.5932 20.956
11.6084 20.834
11.6236 20.788
11.6388 20.672
11.6539 20.703
11.6691 20.662
11.6843 20.476
11.6995 20.191
11.7146 20.204
11.7298 20.489
11.7450 20.234
11.7602 20.449
11.7753 20.220
11.7905 20.185
11.8057 19.773
11.8209 19.686
11.8360 19.546
11.8512 19.604
11.8664 19.849
11.8816 19.551
11.8967 19.396
11.9119 19.659
11.9271 19.585
11.9423 19.167
11.9574 19.214
11.9726 19.298
11.9878 19.239
12.0030 19.546
12.0181 19.772
12.0333 19.346
12.0485 19.082
12.0637 18.741
12.0788 18.752
12.0940 18.807
12.1092 18.884
12.1244 18.972
12.1395 18.442
12.1547 18.479
12.1699 18.042
12.1851 18.084
12.2002 18.325
12.2154 18.450
12.2306 18.196
12.2458 17.784
12.2609 17.832
12.2761 17.913
12.2913 17.459
12.3065 17.677
12.3216 17.489
12.3368 17.493
12.3520 17.089
12.3672 17.134
12.3823 17.281
12.3975 17.030
12.4127 17.067
12.4279 16.917
12.4430 16.972
12.4582 16.976
12.4734 16.597
12.4886 16.709
12.5037 16.666
12.5189 16.735
12.5341 16.473
12.5493 16.307
12.5644 16.091
12.5796 16.354
12.5948 16.319
12.6100 15.886
12.6251 15.996
12.6403 15.940
12.6555 16.022
12.6707 16.154
12.6858 15.852
12.7010 15.499
12.7162 15.379
12.7314 15.239
12.7465 15.196
12.7617 14.908
12.7769 14.834
12.7921 14.858
12.8072 15.018
12.8224 15.201
12.8376 15.069
12.8528 15.023
12.8679 14.845
12.8831 14.590
12.8983 14.648
12.9135 14.607
12.9286 14.510
12.9438 14.655
12.9590 14.604
12.9742 14.511
12.9893 14.534
13.0045 14.360
13.0197 14.111
13.0349 13.951
13.0500 13.948
13.0652 14.007
13.0804 13.926
13.0956 13.852
13.1107 13.782
13.1259 13.647
13.1411 13.582
13.1563 13.564
13.1714 13.531
13.1866 13.531
13.2018 13.423
13.2170 13.424
13.2321 13.442
13.2473 13.159
13.2625 13.108
13.2777 13.132
13.2928 13.095
13.3080 13.223
13.3232 13.214
13.3384 13.247
13.3535 13.142
13.3687 12.780
13.3839 12.811
13.3991 12.768
13.4142 12.727
13.4294 12.914
13.4446 12.857
13.4598 12.743
13.4749 12.733
13.4901 12.750
13.5053 12.335
13.5205 12.284
13.5356 12.664
13.5508 12.459
13.5660 12.184
13.5812 12.330
13.5963 12.406
13.6115 12.190
13.6267 12.136
13.6419 12.189
13.6570 12.094
13.6722 12.100
13.6874 12.154
13.7026 12.065
13.7177 12.124
13.7329 12.228
13.7481 12.050
13.7633 11.966
13.7784 11.964
13.7936 12.248
13.8088 12.528
13.8239 12.482
13.8391 12.426
13.8543 12.156
13.8695 12.365
13.8846 12.431
13.8998 12.429
13.9150 12.169
13.9302 11.961
13.9453 11.802
13.9605 11.816
13.9757 11.649
13.9909 11.817
14.0060 11.693
14.0212 11.830
14.0364 11.751
14.0516 11.847
14.0667 11.752
14.0819 11.497
14.0971 11.660
14.1123 11.780
14.1274 11.698
14.1426 11.694
14.1578 11.848
14.1730 11.841
14.1881 11.848
14.2033 11.787
14.2185 11.930
14.2337 11.772
14.2488 11.604
14.2640 11.728
14.2792 11.887
14.2944 12.066
14.3095 12.004
14.3247 12.479
14.3399 12.399
14.3551 12.483
14.3702 12.405
14.3854 12.882
14.4006 12.983
14.4158 13.099
14.4309 12.894
14.4461 12.669
14.4613 12.131
14.4765 12.459
14.4916 12.099
14.5068 12.118
14.5220 11.853
14.5372 11.777
14.5523 11.319
14.5675 11.212
14.5827 10.959
14.5979 10.873
14.6130 10.839
14.6282 10.619
14.6434 10.754
14.6586 10.948
14.6737 10.469
14.6889 10.919
14.7041 10.820
14.7193 10.694
14.7344 10.718
14.7496 10.528
14.7648 10.505
14.7800 10.836
14.7951 10.572
14.8103 10.494
14.8255 10.249
14.8407 10.613
14.8558 10.434
14.8710 10.156
14.8862 10.524
14.9014 10.557
14.9165 10.933
14.9317 10.836
14.9469 10.551
14.9621 10.432
14.9772 10.035
14.9924 10.057
15.0076 10.089
15.0228 10.103
15.0379 10.505
15.0531 10.441
15.0683 10.465
15.0835 10.106
15.0986 9.807
15.1138 10.117
15.1290 9.803
15.1442 10.127
15.1593 10.171
15.1745 10.434
15.1897 10.366
15.2049 10.138
15.2200 10.406
15.2352 10.305
15.2504 9.931
15.2656 10.334
15.2807 9.974
15.2959 10.448
15.3111 9.918
15.3263 10.341
15.3414 10.222
15.3566 9.879
15.3718 9.905
15.3870 10.011
15.4021 9.921
15.4173 10.050
15.4325 10.288
15.4477 10.470
15.4628 10.355
15.4780 10.113
15.4932 9.834
15.5084 10.249
15.5235 10.291
15.5387 9.908
15.5539 9.888
15.5691 10.041
15.5842 9.902
15.5994 9.980
15.6146 10.133
15.6298 9.758
15.6449 9.967
15.6601 9.840
15.6753 10.052
15.6905 9.699
15.7056 9.694
15.7208 9.695
15.7360 9.725
15.7512 9.677
15.7663 9.472
15.7815 9.773
15.7967 9.732
15.8119 10.002
15.8270 9.917
15.8422 9.439
15.8574 9.635
15.8726 9.597
15.8877 9.497
15.9029 9.695
15.9181 9.676
15.9333 9.642
15.9484 9.480
15.9636 9.703
15.9788 9.586
15.9940 9.402
16.0091 9.658
16.0243 9.759
16.0395 9.767
16.0547 9.835
16.0698 9.627
16.0850 9.666
16.1002 9.775
16.1154 9.599
16.1305 9.471
16.1457 9.566
16.1609 9.821
16.1761 9.747
16.1912 9.590
16.2064 9.508
16.2216 9.511
16.2368 9.554
16.2519 9.563
16.2671 9.629
16.2823 9.559
16.2975 9.713
16.3126 9.999
16.3278 9.769
16.3430 9.598
16.3582 9.363
16.3733 9.769
16.3885 9.896
16.4037 9.927
16.4189 9.928
16.4340 9.509
16.4492 9.400
16.4644 9.648
16.4796 9.758
16.4947 9.656
16.5099 9.765
16.5251 9.836
16.5403 9.682
16.5554 9.440
16.5706 9.520
16.5858 9.596
16.6010 9.906
16.6161 9.907
16.6313 9.755
16.6465 9.813
16.6617 10.163
16.6768 9.961
16.6920 9.788
16.7072 9.596
16.7224 9.927
16.7375 10.224
16.7527 9.963
16.7679 9.846
16.7831 9.767
16.7982 9.904
16.8134 9.898
16.8286 9.656
16.8438 9.603
16.8589 9.658
16.8741 9.735
16.8893 9.822
16.9045 9.634
16.9196 9.738
16.9348 9.828
16.9500 9.697
16.9652 9.630
16.9803 9.638
16.9955 9.804
17.0107 9.994
17.0259 10.116
17.0410 9.978
17.0562 9.794
17.0714 9.972
17.0866 10.217
17.1017 10.396
17.1169 10.537
17.1321 10.969
17.1473 11.369
17.1624 11.743
17.1776 12.249
17.1928 12.813
17.2080 13.857
17.2231 15.105
17.2383 16.277
17.2535 17.482
17.2687 18.365
17.2838 18.466
17.2990 17.885
17.3142 17.060
17.3294 16.567
17.3445 16.410
17.3597 16.082
17.3749 15.763
17.3901 15.182
17.4052 14.284
17.4204 13.389
17.4356 12.667
17.4508 12.310
17.4659 12.025
17.4811 11.802
17.4963 11.515
17.5115 11.238
17.5266 11.034
17.5418 10.926
17.5570 10.902
17.5722 10.999
17.5873 11.258
17.6025 11.059
17.6177 11.074
17.6329 11.205
17.6480 11.160
17.6632 11.457
17.6784 11.401
17.6936 11.301
17.7087 11.381
17.7239 11.335
17.7391 10.884
17.7543 10.784
17.7694 11.171
17.7846 11.144
17.7998 10.822
17.8150 10.607
17.8301 10.826
17.8453 10.739
17.8605 10.410
17.8757 10.485
17.8908 10.401
17.9060 10.278
17.9212 10.222
17.9364 10.020
17.9515 9.861
17.9667 9.884
17.9819 10.250
17.9971 10.443
18.0122 10.221
18.0274 10.118
18.0426 10.235
18.0578 10.028
18.0729 9.859
18.0881 9.869
18.1033 9.879
18.1185 9.964
18.1336 10.048
18.1488 10.114
18.1640 9.760
18.1792 9.622
18.1943 9.859
18.2095 10.014
18.2247 9.793
18.2399 9.750
18.2550 9.755
18.2702 9.917
18.2854 9.924
18.3006 9.831
18.3157 9.778
18.3309 9.806
18.3461 9.806
18.3613 9.816
18.3764 9.699
18.3916 9.862
18.4068 9.888
18.4220 9.597
18.4371 9.723
18.4523 9.705
18.4675 9.637
18.4827 9.653
18.4978 9.873
18.5130 9.883
18.5282 9.924
18.5434 9.675
18.5585 9.510
18.5737 9.841
18.5889 9.767
18.6041 9.666
18.6192 9.936
18.6344 9.931
18.6496 9.669
18.6648 9.592
18.6799 9.642
18.6951 9.674
18.7103 9.581
18.7255 9.696
18.7406 9.938
18.7558 9.851
18.7710 9.750
18.7862 10.046
18.8013 9.930
18.8165 9.649
18.8317 9.725
18.8469 10.027
18.8620 9.874
18.8772 9.967
18.8924 10.009
18.9076 9.710
18.9227 9.721
18.9379 9.837
18.9531 9.667
18.9683 9.587
18.9834 9.874
18.9986 10.085
19.0138 10.054
19.0290 10.088
19.0441 10.105
19.0593 9.863
19.0745 10.103
19.0897 10.452
19.1048 10.409
19.1200 10.390
19.1352 10.397
19.1504 10.234
19.1655 10.253
19.1807 10.415
19.1959 10.903
19.2111 10.680
19.2262 10.344
19.2414 10.395
19.2566 10.529
19.2718 10.656
19.2869 10.718
19.3021 10.970
19.3173 11.041
19.3325 10.902
19.3476 11.113
19.3628 11.217
19.3780 11.281
19.3932 11.188
19.4083 11.168
19.4235 11.164
19.4387 11.150
19.4539 11.241
19.4690 11.271
19.4842 11.266
19.4994 11.396
19.5146 11.455
19.5297 11.419
19.5449 11.387
19.5601 11.368
19.5753 11.457
19.5904 11.535
19.6056 11.688
19.6208 11.700
19.6360 11.714
19.6511 11.631
19.6663 11.557
19.6815 11.616
19.6967 11.619
19.7118 11.710
19.7270 11.791
19.7422 11.841
19.7574 11.823
19.7725 11.666
19.7877 11.744
19.8029 11.819
19.8180 11.785
19.8332 11.966
19.8484 12.125
19.8636 12.405
19.8787 12.730
19.8939 12.732
19.9091 12.778
19.9243 13.216
19.9394 13.790
19.9546 14.143
19.9698 14.120
19.9850 14.326
20.0001 14.262
20.0153 13.749
20.0305 13.638
20.0457 13.570
20.0608 13.612
20.0760 13.895
20.0912 13.814
20.1064 13.503
20.1215 13.420
20.1367 13.226
20.1519 12.830
20.1671 12.821
20.1822 12.908
20.1974 12.899
20.2126 12.772
20.2278 12.775
20.2429 12.829
20.2581 12.600
20.2733 12.203
20.2885 11.834
20.3036 11.735
20.3188 11.815
20.3340 12.170
20.3492 12.381
20.3643 12.054
20.3795 11.653
20.3947 11.543
20.4099 11.728
20.4250 11.932
20.4402 12.008
20.4554 12.086
20.4706 11.880
20.4857 11.992
20.5009 11.722
20.5161 11.536
20.5313 11.291
20.5464 11.153
20.5616 11.171
20.5768 11.265
20.5920 11.088
20.6071 10.841
20.6223 10.974
20.6375 10.808
20.6527 10.596
20.6678 10.673
20.6830 10.634
20.6982 10.515
20.7134 10.754
20.7285 10.503
20.7437 10.477
20.7589 10.646
20.7741 10.349
20.7892 10.481
20.8044 10.207
20.8196 10.165
20.8348 10.310
20.8499 10.217
20.8651 10.122
20.8803 9.704
20.8955 10.231
20.9106 10.014
20.9258 10.132
20.9410 10.226
20.9562 10.017
20.9713 10.246
20.9865 10.058
21.0017 9.871
21.0169 9.714
21.0320 9.924
21.0472 10.025
21.0624 10.168
21.0776 9.826
21.0927 9.938
21.1079 10.003
21.1231 10.083
21.1383 9.753
21.1534 9.788
21.1686 9.621
21.1838 9.672
21.1990 10.005
21.2141 9.726
21.2293 9.570
21.2445 9.529
21.2597 9.620
21.2748 9.501
21.2900 9.554
21.3052 9.490
21.3204 9.911
21.3355 9.580
21.3507 9.802
21.3659 9.507
21.3811 9.508
21.3962 9.616
21.4114 9.164
21.4266 9.250
21.4418 9.141
21.4569 9.546
21.4721 9.620
21.4873 9.374
21.5025 9.334
21.5176 9.336
21.5328 9.425
21.5480 9.494
21.5632 9.519
21.5783 9.218
21.5935 9.274
21.6087 9.076
21.6239 9.178
21.6390 9.175
21.6542 9.118
21.6694 9.155
21.6846 9.045
21.6997 8.912
21.7149 8.931
21.7301 8.875
21.7453 8.925
21.7604 8.817
21.7756 8.839
21.7908 8.801
21.8060 8.914
21.8211 8.889
21.8363 8.950
21.8515 9.043
21.8667 9.055
21.8818 9.241
21.8970 9.198
21.9122 9.060
21.9274 8.981
21.9425 8.870
21.9577 8.837
21.9729 8.822
21.9881 8.751
22.0032 8.749
22.0184 8.808
22.0336 8.827
22.0488 8.714
22.0639 8.746
22.0791 8.846
22.0943 8.854
22.1095 8.800
22.1246 8.614
22.1398 8.737
22.1550 8.996
22.1702 8.767
22.1853 8.586
22.2005 8.511
22.2157 8.543
22.2309 8.546
22.2460 8.651
22.2612 8.716
22.2764 8.603
22.2916 8.664
22.3067 8.591
22.3219 8.548
22.3371 8.590
22.3523 8.697
22.3674 8.648
22.3826 8.366
22.3978 8.312
22.4130 8.433
22.4281 8.677
22.4433 8.279
22.4585 8.364
22.4737 8.519
22.4888 8.222
22.5040 8.423
22.5192 8.443
22.5344 8.352
22.5495 8.269
22.5647 8.056
22.5799 8.285
22.5951 8.764
22.6102 8.551
22.6254 8.504
22.6406 8.304
22.6558 8.330
22.6709 8.103
22.6861 8.211
22.7013 8.546
22.7165 7.924
22.7316 6.222
