'Id: "" Comment: "" Operator: "Lab Manager" Anode: "Mo" Scantype: "Still (Eiger2R_500K (1D mode))" TimePerStep: "300" X: "11.8" Y: "9.4" Z: "11.284" 
7.2532 18.653
7.2684 19.253
7.2836 18.509
7.2987 19.048
7.3139 19.125
7.3291 18.894
7.3443 18.544
7.3594 19.253
7.3746 19.429
7.3898 19.425
7.4050 19.462
7.4201 19.216
7.4353 19.072
7.4505 19.554
7.4657 19.610
7.4808 19.510
7.4960 19.817
7.5112 19.727
7.5264 19.503
7.5415 20.006
7.5567 20.090
7.5719 20.118
7.5871 20.193
7.6022 19.978
7.6174 19.951
7.6326 20.176
7.6478 20.008
7.6629 19.991
7.6781 20.159
7.6933 20.139
7.7085 20.161
7.7236 20.051
7.7388 20.051
7.7540 20.338
7.7692 20.241
7.7843 20.034
7.7995 20.069
7.8147 20.424
7.8299 20.655
7.8450 20.801
7.8602 21.202
7.8754 21.043
7.8905 20.605
7.9057 20.737
7.9209 20.732
7.9361 20.827
7.9512 21.000
7.9664 21.058
7.9816 21.183
7.9968 20.992
8.0119 20.979
8.0271 21.150
8.0423 21.083
8.0575 20.838
8.0726 21.014
8.0878 21.116
8.1030 21.235
8.1182 21.153
8.1333 21.297
8.1485 21.716
8.1637 21.326
8.1789 21.207
8.1940 21.499
8.2092 21.741
8.2244 21.526
8.2396 21.631
8.2547 21.441
8.2699 21.542
8.2851 21.678
8.3003 21.793
8.3154 21.310
8.3306 21.196
8.3458 21.857
8.3610 21.794
8.3761 21.980
8.3913 21.880
8.4065 21.468
8.4217 21.975
8.4368 22.074
8.4520 22.225
8.4672 22.088
8.4824 21.854
8.4975 21.795
8.5127 21.885
8.5279 21.778
8.5431 22.448
8.5582 21.879
8.5734 22.334
8.5886 21.488
8.6038 22.010
8.6189 21.988
8.6341 22.909
8.6493 22.744
8.6645 22.459
8.6796 21.952
8.6948 21.750
8.7100 22.199
8.7252 22.592
8.7403 22.171
8.7555 21.941
8.7707 21.995
8.7859 22.619
8.8010 22.405
8.8162 22.597
8.8314 22.164
8.8466 22.249
8.8617 22.396
8.8769 22.615
8.8921 22.623
8.9073 22.497
8.9224 22.815
8.9376 22.639
8.9528 22.133
8.9680 22.788
8.9831 22.676
8.9983 22.698
9.0135 22.784
9.0287 22.973
9.0438 22.963
9.0590 23.135
9.0742 22.790
9.0894 22.637
9.1045 22.747
9.1197 22.618
9.1349 22.827
9.1501 22.839
9.1652 22.382
9.1804 22.612
9.1956 22.941
9.2108 22.903
9.2259 22.570
9.2411 22.964
9.2563 22.690
9.2715 22.953
9.2866 23.379
9.3018 22.914
9.3170 22.636
9.3322 22.748
9.3473 23.255
9.3625 22.993
9.3777 22.839
9.3929 23.291
9.4080 22.990
9.4232 22.314
9.4384 22.392
9.4536 22.722
9.4687 22.899
9.4839 22.925
9.4991 23.022
9.5143 22.995
9.5294 22.986
9.5446 23.028
9.5598 23.056
9.5750 23.012
9.5901 23.328
9.6053 23.574
9.6205 23.558
9.6357 23.813
9.6508 23.716
9.6660 23.250
9.6812 23.380
9.6964 23.730
9.7115 23.735
9.7267 23.793
9.7419 24.164
9.7571 24.020
9.7722 23.861
9.7874 23.921
9.8026 23.786
9.8178 23.435
9.8329 23.225
9.8481 23.304
9.8633 23.053
9.8785 23.009
9.8936 23.269
9.9088 23.329
9.9240 23.245
9.9392 23.313
9.9543 23.424
9.9695 23.265
9.9847 23.137
9.9999 23.228
10.0150 23.022
10.0302 23.018
10.0454 23.346
10.0606 23.261
10.0757 23.101
10.0909 22.943
10.1061 23.099
10.1213 23.294
10.1364 23.608
10.1516 23.334
10.1668 23.325
10.1820 23.801
10.1971 23.670
10.2123 23.284
10.2275 23.408
10.2427 23.406
10.2578 23.082
10.2730 22.836
10.2882 22.885
10.3034 22.846
10.3185 22.785
10.3337 22.752
10.3489 22.909
10.3641 22.628
10.3792 22.867
10.3944 23.131
10.4096 23.011
10.4248 22.957
10.4399 22.549
10.4551 22.410
10.4703 22.395
10.4855 22.739
10.5006 22.367
10.5158 22.324
10.5310 22.801
10.5462 22.917
10.5613 22.482
10.5765 22.572
10.5917 22.388
10.6069 22.227
10.6220 22.072
10.6372 22.287
10.6524 22.593
10.6676 22.491
10.6827 22.613
10.6979 22.614
10.7131 22.929
10.7283 22.600
10.7434 22.356
10.7586 22.228
10.7738 22.641
10.7890 22.698
10.8041 22.385
10.8193 22.449
10.8345 22.357
10.8497 22.200
10.8648 22.344
10.8800 22.104
10.8952 22.254
10.9104 22.316
10.9255 22.174
10.9407 21.592
10.9559 21.601
10.9711 21.682
10.9862 22.073
11.0014 22.371
11.0166 22.320
11.0318 22.496
11.0469 22.011
11.0621 21.735
11.0773 21.877
11.0925 21.886
11.1076 21.888
11.1228 22.179
11.1380 21.968
11.1532 21.892
11.1683 22.133
11.1835 22.000
11.1987 21.616
11.2139 21.966
11.2290 22.075
11.2442 21.895
11.2594 22.152
11.2746 21.958
11.2897 21.663
11.3049 21.917
11.3201 21.634
11.3353 21.298
11.3504 21.215
11.3656 21.146
11.3808 21.335
11.3960 21.315
11.4111 21.543
11.4263 21.387
11.4415 21.463
11.4567 21.178
11.4718 21.263
11.4870 20.989
11.5022 20.923
11.5174 21.067
11.5325 21.013
11.5477 20.995
11.5629 21.058
11.5781 20.768
11.5932 20.772
11.6084 20.923
11.6236 20.676
11.6388 20.979
11.6539 20.579
11.6691 20.772
11.6843 20.985
11.6995 20.576
11.7146 20.311
11.7298 20.032
11.7450 20.411
11.7602 20.129
11.7753 20.200
11.7905 20.211
11.8057 19.743
11.8209 20.069
11.8360 19.993
11.8512 19.735
11.8664 19.962
11.8816 19.838
11.8967 19.895
11.9119 19.849
11.9271 19.827
11.9423 20.002
11.9574 19.838
11.9726 19.668
11.9878 19.600
12.0030 19.307
12.0181 19.599
12.0333 19.459
12.0485 18.973
12.0637 18.965
12.0788 18.774
12.0940 18.511
12.1092 18.657
12.1244 18.723
12.1395 18.799
12.1547 18.521
12.1699 18.455
12.1851 18.204
12.2002 18.136
12.2154 18.272
12.2306 17.838
12.2458 17.911
12.2609 17.735
12.2761 17.852
12.2913 17.988
12.3065 17.934
12.3216 17.914
12.3368 17.319
12.3520 17.447
12.3672 17.358
12.3823 17.413
12.3975 17.189
12.4127 17.435
12.4279 17.332
12.4430 17.121
12.4582 17.062
12.4734 16.936
12.4886 16.867
12.5037 16.501
12.5189 16.537
12.5341 16.451
12.5493 16.282
12.5644 16.312
12.5796 16.094
12.5948 15.894
12.6100 16.097
12.6251 15.923
12.6403 15.770
12.6555 15.624
12.6707 15.740
12.6858 15.948
12.7010 15.787
12.7162 15.494
12.7314 15.433
12.7465 15.282
12.7617 15.128
12.7769 15.148
12.7921 15.136
12.8072 15.073
12.8224 14.977
12.8376 14.919
12.8528 14.796
12.8679 14.835
12.8831 14.823
12.8983 14.915
12.9135 14.934
12.9286 14.508
12.9438 14.073
12.9590 14.425
12.9742 14.608
12.9893 14.217
13.0045 14.266
13.0197 14.160
13.0349 13.847
13.0500 14.107
13.0652 14.124
13.0804 13.861
13.0956 13.949
13.1107 13.924
13.1259 13.798
13.1411 13.503
13.1563 13.423
13.1714 13.893
13.1866 13.642
13.2018 13.176
13.2170 13.224
13.2321 13.309
13.2473 13.197
13.2625 13.184
13.2777 13.277
13.2928 12.972
13.3080 12.976
13.3232 12.980
13.3384 13.064
13.3535 13.243
13.3687 13.161
13.3839 13.136
13.3991 13.035
13.4142 13.037
13.4294 12.980
13.4446 12.789
13.4598 12.743
13.4749 12.818
13.4901 12.547
13.5053 12.265
13.5205 12.631
13.5356 12.933
13.5508 12.337
13.5660 12.238
13.5812 12.532
13.5963 12.399
13.6115 12.275
13.6267 12.381
13.6419 12.171
13.6570 12.001
13.6722 12.273
13.6874 12.185
13.7026 11.945
13.7177 11.983
13.7329 12.126
13.7481 12.097
13.7633 11.811
13.7784 11.855
13.7936 12.230
13.8088 12.250
13.8239 12.335
13.8391 12.347
13.8543 12.178
13.8695 12.203
13.8846 12.104
13.8998 12.078
13.9150 12.397
13.9302 12.147
13.9453 12.147
13.9605 11.963
13.9757 11.934
13.9909 11.647
14.0060 11.513
14.0212 11.706
14.0364 11.625
14.0516 11.636
14.0667 11.175
14.0819 11.279
14.0971 11.362
14.1123 11.270
14.1274 11.303
14.1426 11.196
14.1578 11.620
14.1730 11.556
14.1881 11.370
14.2033 11.675
14.2185 11.380
14.2337 11.476
14.2488 11.373
14.2640 11.631
14.2792 11.991
14.2944 11.835
14.3095 11.807
14.3247 12.184
14.3399 12.130
14.3551 12.337
14.3702 12.602
14.3854 13.146
14.4006 13.444
14.4158 13.451
14.4309 13.368
14.4461 13.381
14.4613 13.203
14.4765 12.587
14.4916 12.577
14.5068 12.642
14.5220 12.337
14.5372 12.257
14.5523 11.637
14.5675 11.268
14.5827 11.079
14.5979 11.232
14.6130 10.892
14.6282 10.574
14.6434 10.971
14.6586 10.896
14.6737 10.858
14.6889 10.780
14.7041 10.782
14.7193 10.921
14.7344 10.551
14.7496 10.602
14.7648 10.723
14.7800 10.981
14.7951 10.558
14.8103 10.517
14.8255 10.520
14.8407 10.505
14.8558 10.657
14.8710 10.746
14.8862 10.325
14.9014 10.370
14.9165 10.624
14.9317 10.928
14.9469 10.865
14.9621 10.408
14.9772 10.048
14.9924 10.555
15.0076 10.539
15.0228 10.560
15.0379 10.222
15.0531 10.466
15.0683 10.740
15.0835 10.140
15.0986 10.340
15.1138 10.175
15.1290 9.621
15.1442 10.453
15.1593 10.168
15.1745 10.191
15.1897 10.333
15.2049 10.182
15.2200 10.382
15.2352 10.125
15.2504 10.287
15.2656 10.158
15.2807 10.338
15.2959 10.046
15.3111 10.055
15.3263 10.199
15.3414 9.991
15.3566 10.190
15.3718 10.312
15.3870 10.397
15.4021 10.401
15.4173 10.076
15.4325 10.365
15.4477 10.394
15.4628 10.431
15.4780 9.904
15.4932 9.928
15.5084 10.077
15.5235 10.047
15.5387 9.763
15.5539 9.815
15.5691 9.858
15.5842 9.899
15.5994 9.668
15.6146 9.803
15.6298 9.842
15.6449 9.929
15.6601 10.210
15.6753 9.798
15.6905 9.811
15.7056 10.014
15.7208 10.062
15.7360 10.060
15.7512 10.049
15.7663 9.642
15.7815 9.830
15.7967 10.031
15.8119 9.546
15.8270 10.022
15.8422 9.781
15.8574 9.770
15.8726 9.341
15.8877 9.523
15.9029 9.498
15.9181 9.594
15.9333 9.933
15.9484 9.777
15.9636 9.631
15.9788 9.957
15.9940 9.642
16.0091 9.615
16.0243 9.638
16.0395 9.528
16.0547 9.720
16.0698 9.622
16.0850 9.679
16.1002 9.737
16.1154 9.518
16.1305 9.462
16.1457 9.516
16.1609 9.411
16.1761 9.777
16.1912 9.585
16.2064 9.785
16.2216 9.631
16.2368 9.907
16.2519 9.933
16.2671 9.782
16.2823 9.792
16.2975 9.711
16.3126 9.765
16.3278 10.020
16.3430 10.094
16.3582 9.930
16.3733 10.038
16.3885 9.891
16.4037 9.923
16.4189 9.978
16.4340 9.820
16.4492 9.649
16.4644 9.711
16.4796 9.634
16.4947 9.506
16.5099 9.863
16.5251 9.961
16.5403 9.835
16.5554 9.553
16.5706 9.592
16.5858 9.703
16.6010 9.595
16.6161 9.660
16.6313 9.699
16.6465 9.635
16.6617 9.542
16.6768 9.654
16.6920 10.014
16.7072 9.839
16.7224 9.822
16.7375 9.979
16.7527 9.904
16.7679 9.854
16.7831 9.845
16.7982 9.617
16.8134 9.576
16.8286 9.645
16.8438 9.818
16.8589 9.910
16.8741 9.776
16.8893 9.654
16.9045 9.752
16.9196 9.810
16.9348 9.732
16.9500 9.528
16.9652 9.422
16.9803 9.657
16.9955 9.894
17.0107 9.959
17.0259 10.008
17.0410 9.859
17.0562 9.861
17.0714 10.003
17.0866 10.199
17.1017 10.333
17.1169 10.472
17.1321 10.758
17.1473 11.091
17.1624 11.469
17.1776 12.026
17.1928 12.900
17.2080 13.811
17.2231 14.952
17.2383 16.011
17.2535 17.169
17.2687 18.245
17.2838 18.521
17.2990 17.843
17.3142 16.780
17.3294 16.269
17.3445 15.937
17.3597 15.891
17.3749 15.878
17.3901 14.997
17.4052 14.030
17.4204 13.205
17.4356 12.256
17.4508 11.799
17.4659 11.597
17.4811 11.508
17.4963 11.373
17.5115 10.832
17.5266 10.540
17.5418 10.850
17.5570 11.082
17.5722 10.894
17.5873 10.895
17.6025 10.924
17.6177 10.954
17.6329 11.133
17.6480 11.126
17.6632 11.308
17.6784 11.652
17.6936 11.778
17.7087 11.837
17.7239 11.974
17.7391 11.769
17.7543 11.541
17.7694 11.524
17.7846 11.579
17.7998 11.526
17.8150 11.199
17.8301 10.946
17.8453 10.675
17.8605 10.511
17.8757 10.520
17.8908 10.474
17.9060 10.404
17.9212 10.410
17.9364 10.234
17.9515 10.076
17.9667 10.085
17.9819 10.124
17.9971 10.126
18.0122 10.095
18.0274 10.113
18.0426 10.175
18.0578 10.081
18.0729 10.210
18.0881 10.202
18.1033 10.142
18.1185 10.033
18.1336 9.913
18.1488 9.699
18.1640 9.881
18.1792 10.135
18.1943 10.085
18.2095 9.878
18.2247 9.865
18.2399 9.965
18.2550 9.873
18.2702 9.958
18.2854 9.942
18.3006 10.014
18.3157 10.125
18.3309 9.872
18.3461 9.687
18.3613 9.693
18.3764 9.966
18.3916 10.116
18.4068 9.853
18.4220 9.531
18.4371 9.697
18.4523 10.022
18.4675 9.860
18.4827 9.560
18.4978 9.739
18.5130 9.789
18.5282 9.712
18.5434 9.789
18.5585 9.802
18.5737 9.813
18.5889 9.909
18.6041 9.767
18.6192 9.631
18.6344 9.633
18.6496 9.720
18.6648 9.899
18.6799 9.970
18.6951 9.784
18.7103 9.672
18.7255 9.842
18.7406 9.899
18.7558 9.793
18.7710 9.950
18.7862 10.000
18.8013 9.634
18.8165 9.626
18.8317 9.857
18.8469 9.746
18.8620 9.926
18.8772 9.696
18.8924 9.834
18.9076 10.108
18.9227 10.242
18.9379 10.157
18.9531 10.172
18.9683 10.040
18.9834 10.090
18.9986 10.220
19.0138 10.140
19.0290 9.984
19.0441 10.101
19.0593 10.491
19.0745 10.333
19.0897 10.180
19.1048 10.101
19.1200 10.126
19.1352 10.391
19.1504 10.370
19.1655 10.577
19.1807 10.686
19.1959 10.642
19.2111 10.560
19.2262 10.570
19.2414 10.537
19.2566 10.754
19.2718 10.979
19.2869 10.722
19.3021 10.790
19.3173 11.042
19.3325 10.945
19.3476 10.966
19.3628 11.081
19.3780 10.990
19.3932 11.064
19.4083 11.029
19.4235 11.060
19.4387 11.444
19.4539 11.403
19.4690 11.010
19.4842 11.173
19.4994 11.451
19.5146 11.511
19.5297 11.661
19.5449 11.681
19.5601 11.542
19.5753 11.390
19.5904 11.338
19.6056 11.422
19.6208 11.552
19.6360 11.514
19.6511 11.416
19.6663 11.647
19.6815 11.560
19.6967 11.641
19.7118 11.884
19.7270 11.797
19.7422 11.852
19.7574 11.800
19.7725 11.752
19.7877 11.881
19.8029 11.922
19.8180 11.896
19.8332 11.977
19.8484 12.192
19.8636 12.324
19.8787 12.286
19.8939 12.382
19.9091 12.943
19.9243 13.478
19.9394 13.772
19.9546 14.014
19.9698 14.311
19.9850 14.556
20.0001 14.494
20.0153 13.898
20.0305 13.745
20.0457 13.854
20.0608 13.452
20.0760 13.361
20.0912 13.446
20.1064 13.360
20.1215 13.236
20.1367 12.903
20.1519 12.824
20.1671 12.763
20.1822 12.771
20.1974 12.518
20.2126 12.420
20.2278 12.546
20.2429 12.466
20.2581 12.289
20.2733 12.060
20.2885 11.685
20.3036 11.523
20.3188 11.626
20.3340 11.716
20.3492 11.938
20.3643 11.834
20.3795 11.723
20.3947 11.388
20.4099 11.464
20.4250 11.666
20.4402 12.058
20.4554 12.045
20.4706 12.068
20.4857 11.973
20.5009 12.120
20.5161 11.998
20.5313 11.567
20.5464 11.634
20.5616 11.446
20.5768 11.391
20.5920 11.306
20.6071 11.273
20.6223 11.311
20.6375 11.246
20.6527 10.925
20.6678 10.567
20.6830 10.577
20.6982 10.621
20.7134 10.559
20.7285 10.655
20.7437 10.463
20.7589 10.309
20.7741 10.151
20.7892 10.361
20.8044 10.425
20.8196 10.121
20.8348 9.973
20.8499 10.161
20.8651 10.262
20.8803 10.159
20.8955 10.294
20.9106 10.134
20.9258 9.892
20.9410 10.037
20.9562 9.938
20.9713 10.245
20.9865 10.201
21.0017 9.919
21.0169 10.029
21.0320 9.892
21.0472 10.133
21.0624 9.838
21.0776 10.099
21.0927 9.573
21.1079 9.540
21.1231 9.887
21.1383 9.516
21.1534 9.662
21.1686 9.705
21.1838 9.171
21.1990 10.068
21.2141 9.782
21.2293 9.907
21.2445 9.666
21.2597 9.868
21.2748 9.456
21.2900 9.842
21.3052 9.605
21.3204 9.565
21.3355 9.681
21.3507 9.428
21.3659 9.601
21.3811 9.412
21.3962 9.339
21.4114 9.552
21.4266 9.437
21.4418 9.627
21.4569 9.266
21.4721 9.098
21.4873 9.071
21.5025 9.000
21.5176 9.358
21.5328 9.096
21.5480 9.210
21.5632 9.410
21.5783 9.283
21.5935 9.522
21.6087 9.592
21.6239 9.499
21.6390 9.176
21.6542 9.223
21.6694 9.234
21.6846 9.171
21.6997 9.230
21.7149 8.975
21.7301 8.915
21.7453 9.025
21.7604 8.975
21.7756 9.016
21.7908 9.127
21.8060 9.092
21.8211 9.048
21.8363 8.921
21.8515 9.023
21.8667 8.933
21.8818 8.765
21.8970 8.914
21.9122 8.954
21.9274 8.969
21.9425 8.895
21.9577 8.941
21.9729 8.936
21.9881 8.868
22.0032 8.830
22.0184 8.832
22.0336 8.788
22.0488 8.788
22.0639 8.846
22.0791 8.689
22.0943 8.528
22.1095 8.439
22.1246 8.501
22.1398 8.456
22.1550 8.491
22.1702 8.502
22.1853 8.650
22.2005 8.510
22.2157 8.494
22.2309 8.363
22.2460 8.477
22.2612 8.704
22.2764 8.573
22.2916 8.506
22.3067 8.439
22.3219 8.294
22.3371 8.513
22.3523 8.625
22.3674 8.617
22.3826 8.456
22.3978 8.405
22.4130 8.259
22.4281 8.457
22.4433 8.393
22.4585 8.405
22.4737 8.446
22.4888 8.596
22.5040 8.485
22.5192 8.426
22.5344 8.412
22.5495 7.980
22.5647 8.460
22.5799 8.417
22.5951 8.307
22.6102 8.298
22.6254 8.354
22.6406 8.454
22.6558 8.323
22.6709 8.317
22.6861 7.897
22.7013 8.236
22.7165 7.959
22.7316 6.387
