'Id: "" Comment: "" Operator: "Lab Manager" Anode: "Mo" Scantype: "Still (Eiger2R_500K (1D mode))" TimePerStep: "300" X: "11.8" Y: "9.4" Z: "11.284" 
7.2532 18.531
7.2684 18.780
7.2836 18.339
7.2987 18.814
7.3139 18.548
7.3291 18.880
7.3443 18.826
7.3594 19.143
7.3746 19.635
7.3898 19.533
7.4050 18.927
7.4201 19.068
7.4353 19.484
7.4505 19.193
7.4657 19.011
7.4808 19.279
7.4960 19.406
7.5112 19.598
7.5264 19.523
7.5415 19.641
7.5567 19.871
7.5719 19.590
7.5871 19.771
7.6022 20.053
7.6174 19.998
7.6326 19.866
7.6478 19.983
7.6629 20.222
7.6781 20.141
7.6933 20.098
7.7085 20.003
7.7236 20.235
7.7388 20.269
7.7540 20.319
7.7692 20.463
7.7843 20.363
7.7995 20.296
7.8147 20.296
7.8299 20.672
7.8450 20.700
7.8602 20.426
7.8754 20.706
7.8905 20.795
7.9057 20.614
7.9209 20.593
7.9361 20.906
7.9512 20.915
7.9664 20.745
7.9816 20.898
7.9968 21.247
8.0119 20.799
8.0271 20.636
8.0423 21.392
8.0575 20.995
8.0726 20.917
8.0878 20.989
8.1030 21.133
8.1182 21.248
8.1333 21.173
8.1485 20.926
8.1637 21.777
8.1789 21.387
8.1940 21.458
8.2092 21.098
8.2244 21.206
8.2396 21.722
8.2547 21.560
8.2699 21.552
8.2851 21.436
8.3003 21.661
8.3154 21.682
8.3306 21.608
8.3458 22.197
8.3610 21.047
8.3761 21.531
8.3913 21.550
8.4065 21.444
8.4217 22.019
8.4368 21.586
8.4520 21.951
8.4672 21.731
8.4824 22.148
8.4975 22.391
8.5127 21.839
8.5279 22.030
8.5431 22.128
8.5582 22.206
8.5734 22.234
8.5886 22.034
8.6038 21.848
8.6189 22.239
8.6341 21.715
8.6493 21.671
8.6645 22.007
8.6796 22.071
8.6948 22.195
8.7100 22.565
8.7252 22.470
8.7403 21.975
8.7555 22.559
8.7707 22.309
8.7859 22.688
8.8010 23.066
8.8162 22.943
8.8314 22.261
8.8466 22.624
8.8617 22.711
8.8769 22.644
8.8921 22.516
8.9073 22.669
8.9224 22.436
8.9376 22.290
8.9528 22.429
8.9680 22.404
8.9831 22.397
8.9983 22.516
9.0135 22.444
9.0287 22.803
9.0438 22.805
9.0590 22.826
9.0742 22.777
9.0894 22.794
9.1045 22.830
9.1197 22.595
9.1349 22.662
9.1501 22.748
9.1652 22.551
9.1804 22.539
9.1956 22.818
9.2108 22.775
9.2259 22.721
9.2411 22.648
9.2563 22.967
9.2715 23.175
9.2866 23.271
9.3018 23.200
9.3170 23.252
9.3322 23.121
9.3473 23.037
9.3625 22.635
9.3777 23.187
9.3929 22.852
9.4080 22.720
9.4232 22.902
9.4384 22.874
9.4536 22.764
9.4687 23.214
9.4839 23.364
9.4991 23.036
9.5143 22.996
9.5294 22.926
9.5446 22.934
9.5598 22.876
9.5750 22.670
9.5901 22.861
9.6053 22.818
9.6205 23.166
9.6357 23.137
9.6508 23.128
9.6660 23.425
9.6812 23.353
9.6964 23.778
9.7115 23.953
9.7267 23.757
9.7419 23.946
9.7571 23.824
9.7722 23.674
9.7874 23.901
9.8026 23.893
9.8178 23.664
9.8329 23.477
9.8481 23.196
9.8633 23.264
9.8785 23.526
9.8936 23.048
9.9088 22.903
9.9240 23.199
9.9392 23.306
9.9543 23.169
9.9695 23.296
9.9847 23.347
9.9999 23.176
10.0150 23.294
10.0302 23.508
10.0454 23.217
10.0606 22.906
10.0757 22.862
10.0909 23.137
10.1061 23.479
10.1213 23.294
10.1364 22.833
10.1516 23.261
10.1668 23.604
10.1820 23.319
10.1971 23.206
10.2123 23.050
10.2275 23.004
10.2427 23.276
10.2578 23.288
10.2730 23.151
10.2882 22.997
10.3034 22.854
10.3185 23.095
10.3337 22.961
10.3489 22.723
10.3641 22.634
10.3792 22.698
10.3944 22.699
10.4096 22.717
10.4248 22.467
10.4399 22.803
10.4551 22.858
10.4703 22.664
10.4855 22.331
10.5006 21.897
10.5158 22.132
10.5310 22.646
10.5462 22.481
10.5613 22.146
10.5765 22.394
10.5917 22.607
10.6069 22.796
10.6220 22.776
10.6372 22.766
10.6524 22.757
10.6676 22.752
10.6827 22.880
10.6979 22.800
10.7131 22.479
10.7283 22.518
10.7434 22.048
10.7586 21.815
10.7738 22.018
10.7890 22.049
10.8041 22.230
10.8193 22.243
10.8345 22.064
10.8497 21.982
10.8648 22.266
10.8800 22.514
10.8952 22.225
10.9104 22.061
10.9255 22.138
10.9407 22.070
10.9559 21.961
10.9711 22.157
10.9862 22.213
11.0014 21.758
11.0166 21.697
11.0318 21.928
11.0469 21.690
11.0621 21.667
11.0773 21.927
11.0925 21.754
11.1076 21.503
11.1228 21.994
11.1380 22.074
11.1532 21.743
11.1683 21.862
11.1835 21.833
11.1987 21.864
11.2139 21.950
11.2290 21.677
11.2442 21.572
11.2594 21.775
11.2746 21.681
11.2897 21.312
11.3049 21.472
11.3201 21.430
11.3353 21.483
11.3504 21.363
11.3656 21.488
11.3808 21.517
11.3960 21.456
11.4111 21.376
11.4263 21.353
11.4415 21.229
11.4567 21.195
11.4718 21.075
11.4870 21.196
11.5022 21.197
11.5174 21.141
11.5325 20.747
11.5477 20.636
11.5629 20.622
11.5781 20.729
11.5932 20.922
11.6084 21.257
11.6236 20.998
11.6388 21.033
11.6539 20.576
11.6691 20.404
11.6843 20.534
11.6995 20.555
11.7146 20.376
11.7298 20.305
11.7450 20.376
11.7602 20.079
11.7753 20.073
11.7905 19.922
11.8057 20.235
11.8209 20.407
11.8360 20.207
11.8512 20.100
11.8664 19.827
11.8816 19.527
11.8967 19.427
11.9119 19.528
11.9271 19.649
11.9423 19.673
11.9574 19.258
11.9726 18.935
11.9878 19.379
12.0030 19.523
12.0181 19.040
12.0333 18.785
12.0485 18.721
12.0637 18.662
12.0788 18.935
12.0940 19.061
12.1092 18.820
12.1244 18.746
12.1395 18.808
12.1547 18.481
12.1699 18.437
12.1851 18.248
12.2002 18.466
12.2154 18.445
12.2306 18.251
12.2458 18.025
12.2609 17.797
12.2761 17.933
12.2913 18.129
12.3065 17.990
12.3216 17.916
12.3368 17.739
12.3520 17.575
12.3672 17.412
12.3823 17.203
12.3975 17.150
12.4127 17.009
12.4279 17.030
12.4430 17.060
12.4582 16.839
12.4734 16.376
12.4886 16.231
12.5037 16.402
12.5189 16.376
12.5341 16.695
12.5493 16.396
12.5644 16.166
12.5796 16.353
12.5948 16.256
12.6100 16.007
12.6251 15.962
12.6403 15.788
12.6555 15.819
12.6707 15.585
12.6858 15.365
12.7010 15.598
12.7162 15.629
12.7314 15.330
12.7465 15.298
12.7617 15.255
12.7769 15.237
12.7921 15.336
12.8072 15.125
12.8224 14.898
12.8376 15.074
12.8528 14.928
12.8679 14.893
12.8831 14.981
12.8983 14.644
12.9135 14.381
12.9286 14.270
12.9438 14.197
12.9590 14.381
12.9742 14.658
12.9893 14.496
13.0045 14.255
13.0197 14.047
13.0349 13.886
13.0500 13.829
13.0652 13.779
13.0804 13.797
13.0956 13.664
13.1107 13.627
13.1259 13.751
13.1411 13.630
13.1563 13.553
13.1714 13.535
13.1866 13.453
13.2018 13.289
13.2170 13.162
13.2321 13.321
13.2473 13.563
13.2625 13.426
13.2777 13.190
13.2928 13.059
13.3080 12.956
13.3232 13.153
13.3384 13.249
13.3535 13.171
13.3687 12.855
13.3839 12.750
13.3991 12.848
13.4142 12.852
13.4294 12.779
13.4446 12.772
13.4598 12.834
13.4749 12.709
13.4901 12.339
13.5053 12.297
13.5205 12.620
13.5356 12.548
13.5508 12.196
13.5660 12.245
13.5812 12.447
13.5963 12.369
13.6115 12.210
13.6267 12.066
13.6419 12.168
13.6570 12.301
13.6722 12.075
13.6874 12.090
13.7026 12.064
13.7177 11.940
13.7329 11.990
13.7481 12.036
13.7633 11.992
13.7784 11.985
13.7936 12.086
13.8088 12.181
13.8239 12.132
13.8391 12.188
13.8543 12.366
13.8695 12.472
13.8846 12.198
13.8998 12.261
13.9150 12.145
13.9302 12.150
13.9453 12.229
13.9605 12.015
13.9757 11.867
13.9909 11.813
14.0060 11.862
14.0212 11.499
14.0364 11.600
14.0516 11.397
14.0667 11.616
14.0819 11.829
14.0971 11.495
14.1123 11.410
14.1274 11.740
14.1426 11.782
14.1578 11.556
14.1730 11.293
14.1881 11.359
14.2033 11.800
14.2185 11.789
14.2337 11.707
14.2488 11.766
14.2640 11.593
14.2792 11.579
14.2944 12.024
14.3095 12.006
14.3247 12.264
14.3399 11.892
14.3551 12.200
14.3702 12.701
14.3854 12.622
14.4006 13.331
14.4158 13.311
14.4309 13.141
14.4461 12.758
14.4613 12.613
14.4765 12.718
14.4916 12.610
14.5068 11.995
14.5220 11.763
14.5372 11.841
14.5523 11.549
14.5675 11.264
14.5827 11.169
14.5979 11.126
14.6130 10.955
14.6282 10.797
14.6434 10.858
14.6586 10.801
14.6737 10.677
14.6889 10.855
14.7041 10.654
14.7193 10.270
14.7344 10.959
14.7496 10.445
14.7648 10.584
14.7800 10.562
14.7951 10.605
14.8103 10.484
14.8255 10.489
14.8407 10.467
14.8558 10.409
14.8710 10.632
14.8862 10.681
14.9014 10.370
14.9165 10.567
14.9317 10.821
14.9469 10.389
14.9621 10.698
14.9772 10.543
14.9924 10.103
15.0076 10.538
15.0228 10.381
15.0379 10.435
15.0531 10.158
15.0683 10.078
15.0835 10.265
15.0986 10.379
15.1138 10.071
15.1290 10.303
15.1442 10.097
15.1593 10.143
15.1745 9.978
15.1897 9.960
15.2049 10.108
15.2200 9.943
15.2352 10.090
15.2504 10.312
15.2656 10.134
15.2807 10.202
15.2959 10.450
15.3111 9.823
15.3263 10.137
15.3414 10.042
15.3566 10.170
15.3718 10.386
15.3870 9.992
15.4021 10.014
15.4173 10.249
15.4325 10.074
15.4477 10.380
15.4628 10.348
15.4780 10.426
15.4932 10.299
15.5084 10.178
15.5235 10.208
15.5387 9.792
15.5539 10.213
15.5691 9.818
15.5842 9.765
15.5994 10.044
15.6146 10.016
15.6298 9.900
15.6449 10.135
15.6601 10.134
15.6753 10.652
15.6905 10.882
15.7056 10.162
15.7208 9.888
15.7360 9.805
15.7512 10.034
15.7663 10.048
15.7815 9.888
15.7967 9.738
15.8119 9.837
15.8270 9.871
15.8422 9.674
15.8574 9.793
15.8726 9.467
15.8877 9.555
15.9029 9.661
15.9181 10.028
15.9333 9.705
15.9484 9.460
15.9636 9.546
15.9788 9.627
15.9940 9.578
16.0091 9.435
16.0243 9.560
16.0395 9.549
16.0547 9.352
16.0698 9.624
16.0850 9.584
16.1002 9.401
16.1154 9.418
16.1305 9.547
16.1457 9.580
16.1609 9.463
16.1761 9.404
16.1912 9.460
16.2064 9.463
16.2216 9.566
16.2368 9.932
16.2519 9.771
16.2671 9.752
16.2823 9.969
16.2975 9.858
16.3126 9.965
16.3278 9.812
16.3430 9.843
16.3582 9.896
16.3733 9.726
16.3885 9.614
16.4037 9.622
16.4189 9.542
16.4340 9.519
16.4492 9.657
16.4644 9.666
16.4796 9.693
16.4947 9.517
16.5099 9.694
16.5251 9.655
16.5403 9.419
16.5554 9.412
16.5706 9.622
16.5858 9.740
16.6010 9.703
16.6161 9.403
16.6313 9.634
16.6465 9.870
16.6617 10.069
16.6768 9.856
16.6920 9.891
16.7072 10.090
16.7224 9.855
16.7375 9.707
16.7527 9.700
16.7679 10.058
16.7831 9.897
16.7982 9.873
16.8134 9.660
16.8286 9.524
16.8438 9.748
16.8589 9.836
16.8741 9.738
16.8893 9.771
16.9045 9.730
16.9196 9.683
16.9348 9.671
16.9500 9.676
16.9652 9.710
16.9803 9.907
16.9955 9.893
17.0107 9.780
17.0259 9.807
17.0410 9.767
17.0562 9.707
17.0714 10.149
17.0866 10.441
17.1017 10.313
17.1169 10.479
17.1321 10.839
17.1473 11.265
17.1624 11.678
17.1776 12.137
17.1928 12.772
17.2080 13.820
17.2231 14.844
17.2383 15.987
17.2535 17.420
17.2687 18.511
17.2838 18.718
17.2990 17.945
17.3142 16.927
17.3294 16.395
17.3445 16.002
17.3597 15.890
17.3749 15.707
17.3901 15.100
17.4052 14.317
17.4204 13.304
17.4356 12.352
17.4508 11.814
17.4659 11.617
17.4811 11.561
17.4963 11.406
17.5115 10.998
17.5266 10.808
17.5418 10.619
17.5570 10.763
17.5722 11.171
17.5873 11.230
17.6025 11.144
17.6177 11.136
17.6329 11.318
17.6480 11.224
17.6632 11.237
17.6784 11.731
17.6936 11.776
17.7087 11.804
17.7239 11.757
17.7391 11.571
17.7543 11.300
17.7694 11.228
17.7846 11.409
17.7998 11.263
17.8150 11.089
17.8301 10.689
17.8453 10.485
17.8605 10.569
17.8757 10.508
17.8908 10.267
17.9060 10.311
17.9212 10.389
17.9364 10.337
17.9515 10.098
17.9667 10.038
17.9819 10.180
17.9971 10.162
18.0122 10.203
18.0274 10.125
18.0426 10.117
18.0578 10.078
18.0729 9.999
18.0881 10.010
18.1033 9.879
18.1185 9.885
18.1336 10.008
18.1488 9.813
18.1640 9.723
18.1792 9.868
18.1943 9.854
18.2095 9.892
18.2247 9.951
18.2399 10.074
18.2550 9.922
18.2702 9.664
18.2854 9.666
18.3006 9.866
18.3157 9.748
18.3309 9.645
18.3461 9.683
18.3613 9.805
18.3764 10.035
18.3916 9.811
18.4068 9.859
18.4220 9.833
18.4371 9.897
18.4523 10.092
18.4675 9.967
18.4827 9.706
18.4978 9.904
18.5130 9.910
18.5282 9.756
18.5434 9.941
18.5585 10.045
18.5737 9.871
18.5889 9.873
18.6041 9.627
18.6192 9.478
18.6344 9.773
18.6496 10.009
18.6648 9.920
18.6799 9.807
18.6951 9.844
18.7103 9.987
18.7255 10.023
18.7406 9.789
18.7558 9.597
18.7710 9.702
18.7862 9.948
18.8013 9.649
18.8165 9.693
18.8317 9.967
18.8469 9.876
18.8620 9.842
18.8772 9.979
18.8924 10.099
18.9076 10.212
18.9227 10.144
18.9379 10.150
18.9531 10.132
18.9683 9.971
18.9834 9.973
18.9986 10.138
19.0138 9.948
19.0290 10.106
19.0441 10.220
19.0593 10.102
19.0745 10.140
19.0897 10.448
19.1048 10.371
19.1200 10.410
19.1352 10.530
19.1504 10.520
19.1655 10.502
19.1807 10.602
19.1959 10.685
19.2111 10.755
19.2262 11.056
19.2414 11.039
19.2566 11.051
19.2718 10.971
19.2869 10.786
19.3021 10.942
19.3173 11.253
19.3325 11.103
19.3476 11.283
19.3628 11.324
19.3780 11.089
19.3932 11.353
19.4083 11.299
19.4235 11.215
19.4387 11.440
19.4539 11.371
19.4690 11.434
19.4842 11.622
19.4994 11.497
19.5146 11.505
19.5297 11.531
19.5449 11.618
19.5601 11.546
19.5753 11.543
19.5904 11.728
19.6056 11.815
19.6208 11.734
19.6360 11.609
19.6511 11.667
19.6663 11.654
19.6815 11.775
19.6967 11.870
19.7118 11.799
19.7270 11.975
19.7422 11.888
19.7574 11.890
19.7725 11.929
19.7877 12.118
19.8029 12.259
19.8180 12.056
19.8332 12.001
19.8484 12.252
19.8636 12.443
19.8787 12.379
19.8939 12.455
19.9091 12.870
19.9243 13.454
19.9394 13.710
19.9546 14.167
19.9698 14.519
19.9850 14.608
20.0001 14.569
20.0153 14.099
20.0305 14.012
20.0457 13.999
20.0608 13.714
20.0760 13.690
20.0912 13.960
20.1064 14.089
20.1215 13.722
20.1367 13.352
20.1519 13.132
20.1671 12.812
20.1822 12.826
20.1974 12.961
20.2126 12.934
20.2278 12.711
20.2429 12.830
20.2581 12.566
20.2733 12.248
20.2885 11.907
20.3036 11.821
20.3188 11.961
20.3340 11.941
20.3492 12.036
20.3643 12.052
20.3795 11.824
20.3947 11.552
20.4099 11.664
20.4250 11.544
20.4402 11.692
20.4554 12.044
20.4706 12.003
20.4857 11.781
20.5009 11.871
20.5161 11.812
20.5313 11.687
20.5464 11.610
20.5616 11.472
20.5768 11.338
20.5920 11.155
20.6071 11.158
20.6223 11.307
20.6375 10.989
20.6527 11.022
20.6678 11.050
20.6830 10.788
20.6982 10.676
20.7134 10.593
20.7285 10.443
20.7437 10.559
20.7589 10.558
20.7741 10.528
20.7892 10.577
20.8044 10.302
20.8196 10.354
20.8348 10.498
20.8499 10.533
20.8651 10.295
20.8803 10.266
20.8955 10.132
20.9106 10.292
20.9258 10.273
20.9410 10.293
20.9562 10.538
20.9713 10.250
20.9865 10.320
21.0017 9.938
21.0169 10.056
21.0320 10.052
21.0472 9.930
21.0624 9.562
21.0776 9.976
21.0927 9.885
21.1079 9.926
21.1231 10.194
21.1383 9.950
21.1534 9.720
21.1686 9.973
21.1838 9.597
21.1990 9.835
21.2141 9.919
21.2293 9.983
21.2445 9.781
21.2597 9.994
21.2748 9.629
21.2900 9.742
21.3052 9.687
21.3204 9.529
21.3355 9.677
21.3507 9.612
21.3659 9.510
21.3811 9.510
21.3962 9.405
21.4114 9.548
21.4266 9.488
21.4418 9.183
21.4569 9.607
21.4721 9.497
21.4873 9.270
21.5025 9.438
21.5176 9.619
21.5328 9.290
21.5480 9.281
21.5632 9.316
21.5783 9.404
21.5935 9.107
21.6087 9.185
21.6239 9.143
21.6390 9.125
21.6542 9.219
21.6694 8.948
21.6846 9.035
21.6997 9.311
21.7149 9.135
21.7301 8.859
21.7453 9.099
21.7604 9.046
21.7756 9.056
21.7908 9.096
21.8060 9.191
21.8211 9.249
21.8363 9.153
21.8515 9.147
21.8667 9.055
21.8818 9.218
21.8970 9.298
21.9122 9.178
21.9274 9.040
21.9425 9.119
21.9577 8.957
21.9729 8.896
21.9881 8.849
22.0032 8.936
22.0184 8.937
22.0336 8.936
22.0488 9.133
22.0639 8.971
22.0791 8.641
22.0943 8.647
22.1095 8.641
22.1246 8.502
22.1398 8.511
22.1550 8.669
22.1702 8.743
22.1853 8.743
22.2005 8.651
22.2157 8.635
22.2309 8.740
22.2460 8.744
22.2612 8.423
22.2764 8.395
22.2916 8.204
22.3067 8.486
22.3219 8.475
22.3371 8.635
22.3523 8.707
22.3674 8.779
22.3826 8.653
22.3978 8.364
22.4130 8.549
22.4281 8.680
22.4433 8.538
22.4585 8.425
22.4737 8.588
22.4888 8.717
22.5040 8.504
22.5192 8.631
22.5344 8.364
22.5495 8.503
22.5647 8.601
22.5799 8.632
22.5951 8.445
22.6102 8.169
22.6254 8.511
22.6406 8.427
22.6558 8.330
22.6709 8.241
22.6861 8.491
22.7013 8.452
22.7165 8.063
22.7316 6.392
