'Id: "" Comment: "" Operator: "Lab Manager" Anode: "Mo" Scantype: "Still (Eiger2R_500K (1D mode))" TimePerStep: "300" X: "11.8" Y: "9.4" Z: "11.284" 
7.2532 18.736
7.2684 18.954
7.2836 18.972
7.2987 19.023
7.3139 19.068
7.3291 19.461
7.3443 19.004
7.3594 19.173
7.3746 18.894
7.3898 19.451
7.4050 19.528
7.4201 19.255
7.4353 19.475
7.4505 19.448
7.4657 19.254
7.4808 19.812
7.4960 19.738
7.5112 19.492
7.5264 19.866
7.5415 19.975
7.5567 19.847
7.5719 19.559
7.5871 20.060
7.6022 20.031
7.6174 20.126
7.6326 20.219
7.6478 20.061
7.6629 20.150
7.6781 20.229
7.6933 20.451
7.7085 20.400
7.7236 20.307
7.7388 20.459
7.7540 20.373
7.7692 20.239
7.7843 20.345
7.7995 20.433
7.8147 20.761
7.8299 20.767
7.8450 20.460
7.8602 20.445
7.8754 20.924
7.8905 21.103
7.9057 20.846
7.9209 20.946
7.9361 21.227
7.9512 21.220
7.9664 21.065
7.9816 21.118
7.9968 21.212
8.0119 21.160
8.0271 21.522
8.0423 21.335
8.0575 20.985
8.0726 21.395
8.0878 21.606
8.1030 21.340
8.1182 21.309
8.1333 21.560
8.1485 21.517
8.1637 21.479
8.1789 21.351
8.1940 21.521
8.2092 21.708
8.2244 21.621
8.2396 21.662
8.2547 22.021
8.2699 21.690
8.2851 21.691
8.3003 21.790
8.3154 22.112
8.3306 21.890
8.3458 21.631
8.3610 22.107
8.3761 21.677
8.3913 22.027
8.4065 22.312
8.4217 22.110
8.4368 22.018
8.4520 21.661
8.4672 22.158
8.4824 22.699
8.4975 22.547
8.5127 21.919
8.5279 22.039
8.5431 22.234
8.5582 22.178
8.5734 22.274
8.5886 22.549
8.6038 22.115
8.6189 22.527
8.6341 22.384
8.6493 22.709
8.6645 22.459
8.6796 23.081
8.6948 23.199
8.7100 22.664
8.7252 22.458
8.7403 22.752
8.7555 22.491
8.7707 22.616
8.7859 22.694
8.8010 22.832
8.8162 22.439
8.8314 22.949
8.8466 22.467
8.8617 23.160
8.8769 22.664
8.8921 22.553
8.9073 22.383
8.9224 22.620
8.9376 22.632
8.9528 22.648
8.9680 22.575
8.9831 22.722
8.9983 23.155
9.0135 23.433
9.0287 23.016
9.0438 23.091
9.0590 22.897
9.0742 22.764
9.0894 22.808
9.1045 22.891
9.1197 22.932
9.1349 23.047
9.1501 22.879
9.1652 23.238
9.1804 23.022
9.1956 22.874
9.2108 22.799
9.2259 22.900
9.2411 22.990
9.2563 23.203
9.2715 23.121
9.2866 23.257
9.3018 23.387
9.3170 23.186
9.3322 23.177
9.3473 23.244
9.3625 23.106
9.3777 23.335
9.3929 23.469
9.4080 23.402
9.4232 23.493
9.4384 23.347
9.4536 23.166
9.4687 23.191
9.4839 23.457
9.4991 23.402
9.5143 23.053
9.5294 23.095
9.5446 23.605
9.5598 23.345
9.5750 23.150
9.5901 23.734
9.6053 23.931
9.6205 23.558
9.6357 23.458
9.6508 23.466
9.6660 23.397
9.6812 23.769
9.6964 23.874
9.7115 24.064
9.7267 24.379
9.7419 24.196
9.7571 23.973
9.7722 24.044
9.7874 24.272
9.8026 24.141
9.8178 23.828
9.8329 23.845
9.8481 23.590
9.8633 23.145
9.8785 23.442
9.8936 23.911
9.9088 23.859
9.9240 23.678
9.9392 23.424
9.9543 23.341
9.9695 23.641
9.9847 23.648
9.9999 23.323
10.0150 23.271
10.0302 23.394
10.0454 23.417
10.0606 23.122
10.0757 22.956
10.0909 22.992
10.1061 23.094
10.1213 23.199
10.1364 23.145
10.1516 23.195
10.1668 23.121
10.1820 23.360
10.1971 23.515
10.2123 23.499
10.2275 23.648
10.2427 23.683
10.2578 23.602
10.2730 23.487
10.2882 23.305
10.3034 23.426
10.3185 23.485
10.3337 23.243
10.3489 22.871
10.3641 22.904
10.3792 22.686
10.3944 22.762
10.4096 22.892
10.4248 22.868
10.4399 22.741
10.4551 22.718
10.4703 22.653
10.4855 22.460
10.5006 22.465
10.5158 22.854
10.5310 22.714
10.5462 22.603
10.5613 22.721
10.5765 22.865
10.5917 22.795
10.6069 22.474
10.6220 22.670
10.6372 22.394
10.6524 22.454
10.6676 22.862
10.6827 22.896
10.6979 22.271
10.7131 22.238
10.7283 22.335
10.7434 22.593
10.7586 22.659
10.7738 22.792
10.7890 22.402
10.8041 22.514
10.8193 22.876
10.8345 22.393
10.8497 22.532
10.8648 22.447
10.8800 22.351
10.8952 21.977
10.9104 21.993
10.9255 22.299
10.9407 22.225
10.9559 22.511
10.9711 22.156
10.9862 21.844
11.0014 22.265
11.0166 22.279
11.0318 22.014
11.0469 22.277
11.0621 22.194
11.0773 22.106
11.0925 22.114
11.1076 22.292
11.1228 22.015
11.1380 21.868
11.1532 21.645
11.1683 21.914
11.1835 21.763
11.1987 21.851
11.2139 21.758
11.2290 22.107
11.2442 21.903
11.2594 22.134
11.2746 22.024
11.2897 21.695
11.3049 21.661
11.3201 21.762
11.3353 21.790
11.3504 21.980
11.3656 22.012
11.3808 21.713
11.3960 21.625
11.4111 21.445
11.4263 21.731
11.4415 21.372
11.4567 21.518
11.4718 21.366
11.4870 21.234
11.5022 20.933
11.5174 21.377
11.5325 21.179
11.5477 21.126
11.5629 20.862
11.5781 20.860
11.5932 21.102
11.6084 21.021
11.6236 20.982
11.6388 21.195
11.6539 20.648
11.6691 20.488
11.6843 20.761
11.6995 20.833
11.7146 20.821
11.7298 20.932
11.7450 20.279
11.7602 20.317
11.7753 20.467
11.7905 19.806
11.8057 19.776
11.8209 19.841
11.8360 19.767
11.8512 20.027
11.8664 19.895
11.8816 20.119
11.8967 20.193
11.9119 20.093
11.9271 19.705
11.9423 19.459
11.9574 19.697
11.9726 19.432
11.9878 19.180
12.0030 19.311
12.0181 19.416
12.0333 19.169
12.0485 19.018
12.0637 18.944
12.0788 19.047
12.0940 19.029
12.1092 18.501
12.1244 18.654
12.1395 18.792
12.1547 18.795
12.1699 18.603
12.1851 18.226
12.2002 18.125
12.2154 18.119
12.2306 18.380
12.2458 18.327
12.2609 18.179
12.2761 17.988
12.2913 17.653
12.3065 17.832
12.3216 17.827
12.3368 17.545
12.3520 17.184
12.3672 17.349
12.3823 17.476
12.3975 17.735
12.4127 17.457
12.4279 17.205
12.4430 17.360
12.4582 17.274
12.4734 16.898
12.4886 17.103
12.5037 17.105
12.5189 17.068
12.5341 16.597
12.5493 16.561
12.5644 16.569
12.5796 16.631
12.5948 16.619
12.6100 16.244
12.6251 16.150
12.6403 16.025
12.6555 16.042
12.6707 16.309
12.6858 16.163
12.7010 15.954
12.7162 15.804
12.7314 15.509
12.7465 15.493
12.7617 15.616
12.7769 15.551
12.7921 15.441
12.8072 15.391
12.8224 15.080
12.8376 14.981
12.8528 14.959
12.8679 14.836
12.8831 14.888
12.8983 14.995
12.9135 14.829
12.9286 14.675
12.9438 14.700
12.9590 14.626
12.9742 14.486
12.9893 14.298
13.0045 14.189
13.0197 14.482
13.0349 14.370
13.0500 14.364
13.0652 14.492
13.0804 14.411
13.0956 14.362
13.1107 14.026
13.1259 13.663
13.1411 13.452
13.1563 13.600
13.1714 13.642
13.1866 13.697
13.2018 13.650
13.2170 13.406
13.2321 13.355
13.2473 13.329
13.2625 13.292
13.2777 13.237
13.2928 13.509
13.3080 13.701
13.3232 13.451
13.3384 13.106
13.3535 13.276
13.3687 13.462
13.3839 13.272
13.3991 13.199
13.4142 13.059
13.4294 12.932
13.4446 12.963
13.4598 12.956
13.4749 12.716
13.4901 12.688
13.5053 12.859
13.5205 12.578
13.5356 12.472
13.5508 12.688
13.5660 12.474
13.5812 12.412
13.5963 12.727
13.6115 12.700
13.6267 12.398
13.6419 12.444
13.6570 12.424
13.6722 12.504
13.6874 12.275
13.7026 12.228
13.7177 12.232
13.7329 12.070
13.7481 12.168
13.7633 12.209
13.7784 12.396
13.7936 12.437
13.8088 12.472
13.8239 12.371
13.8391 12.305
13.8543 12.319
13.8695 12.356
13.8846 12.302
13.8998 12.294
13.9150 12.340
13.9302 12.115
13.9453 11.972
13.9605 11.933
13.9757 11.865
13.9909 11.730
14.0060 11.831
14.0212 11.741
14.0364 11.696
14.0516 11.490
14.0667 11.436
14.0819 11.587
14.0971 11.792
14.1123 11.571
14.1274 11.271
14.1426 11.563
14.1578 11.707
14.1730 11.484
14.1881 11.498
14.2033 11.545
14.2185 11.655
14.2337 11.787
14.2488 11.718
14.2640 11.610
14.2792 11.935
14.2944 11.767
14.3095 12.158
14.3247 12.173
14.3399 12.108
14.3551 11.995
14.3702 12.252
14.3854 12.649
14.4006 12.478
14.4158 12.324
14.4309 12.549
14.4461 12.445
14.4613 12.339
14.4765 11.880
14.4916 11.575
14.5068 11.801
14.5220 11.559
14.5372 11.308
14.5523 11.072
14.5675 11.351
14.5827 11.154
14.5979 11.158
14.6130 11.171
14.6282 10.984
14.6434 10.959
14.6586 11.210
14.6737 10.766
14.6889 11.020
14.7041 10.920
14.7193 10.753
14.7344 10.976
14.7496 11.112
14.7648 11.010
14.7800 10.810
14.7951 10.789
14.8103 10.660
14.8255 10.825
14.8407 10.968
14.8558 10.564
14.8710 10.654
14.8862 10.681
14.9014 10.599
14.9165 11.021
14.9317 11.304
14.9469 10.962
14.9621 10.709
14.9772 10.473
14.9924 10.708
15.0076 10.527
15.0228 10.796
15.0379 10.731
15.0531 10.633
15.0683 10.295
15.0835 10.788
15.0986 10.747
15.1138 10.940
15.1290 10.263
15.1442 10.746
15.1593 10.569
15.1745 10.500
15.1897 10.721
15.2049 10.594
15.2200 10.220
15.2352 10.658
15.2504 10.222
15.2656 10.383
15.2807 10.323
15.2959 10.107
15.3111 10.284
15.3263 10.393
15.3414 10.269
15.3566 10.070
15.3718 10.457
15.3870 10.511
15.4021 10.422
15.4173 10.325
15.4325 10.741
15.4477 10.447
15.4628 10.881
15.4780 10.326
15.4932 10.357
15.5084 10.541
15.5235 10.502
15.5387 10.319
15.5539 10.579
15.5691 10.563
15.5842 10.406
15.5994 10.134
15.6146 10.271
15.6298 10.375
15.6449 10.119
15.6601 9.937
15.6753 10.166
15.6905 10.165
15.7056 9.979
15.7208 10.127
15.7360 10.036
15.7512 9.919
15.7663 9.990
15.7815 9.787
15.7967 10.046
15.8119 9.968
15.8270 10.141
15.8422 10.139
15.8574 9.965
15.8726 10.024
15.8877 9.938
15.9029 9.876
15.9181 9.919
15.9333 9.922
15.9484 9.869
15.9636 9.830
15.9788 10.147
15.9940 10.180
16.0091 9.815
16.0243 9.846
16.0395 9.807
16.0547 9.700
16.0698 9.671
16.0850 9.836
16.1002 9.708
16.1154 9.714
16.1305 9.590
16.1457 9.701
16.1609 9.812
16.1761 9.780
16.1912 9.930
16.2064 9.755
16.2216 9.564
16.2368 9.562
16.2519 9.703
16.2671 9.979
16.2823 9.827
16.2975 10.024
16.3126 10.003
16.3278 10.069
16.3430 10.157
16.3582 10.035
16.3733 10.149
16.3885 9.870
16.4037 9.922
16.4189 10.089
16.4340 9.938
16.4492 9.790
16.4644 9.807
16.4796 9.969
16.4947 10.072
16.5099 10.124
16.5251 10.033
16.5403 10.061
16.5554 10.168
16.5706 9.885
16.5858 9.867
16.6010 9.949
16.6161 9.742
16.6313 9.662
16.6465 10.088
16.6617 9.977
16.6768 9.734
16.6920 9.733
16.7072 10.125
16.7224 10.318
16.7375 10.106
16.7527 10.005
16.7679 9.994
16.7831 9.945
16.7982 9.985
16.8134 10.183
16.8286 10.143
16.8438 9.997
16.8589 9.862
16.8741 9.927
16.8893 9.893
16.9045 9.857
16.9196 10.049
16.9348 10.046
16.9500 9.965
16.9652 9.865
16.9803 9.972
16.9955 10.142
17.0107 10.133
17.0259 10.121
17.0410 10.080
17.0562 10.117
17.0714 10.253
17.0866 10.295
17.1017 10.489
17.1169 10.886
17.1321 11.179
17.1473 11.415
17.1624 11.709
17.1776 12.269
17.1928 13.074
17.2080 14.232
17.2231 15.402
17.2383 16.505
17.2535 17.589
17.2687 18.476
17.2838 18.760
17.2990 18.021
17.3142 16.850
17.3294 16.306
17.3445 15.847
17.3597 15.468
17.3749 15.627
17.3901 15.167
17.4052 14.371
17.4204 13.443
17.4356 12.593
17.4508 12.232
17.4659 11.845
17.4811 11.580
17.4963 11.427
17.5115 11.276
17.5266 11.364
17.5418 11.240
17.5570 10.880
17.5722 10.899
17.5873 11.098
17.6025 11.172
17.6177 11.118
17.6329 10.974
17.6480 10.796
17.6632 10.825
17.6784 10.724
17.6936 10.543
17.7087 10.536
17.7239 10.442
17.7391 10.334
17.7543 10.501
17.7694 10.424
17.7846 10.060
17.7998 10.089
17.8150 10.248
17.8301 10.104
17.8453 9.894
17.8605 10.061
17.8757 10.269
17.8908 10.187
17.9060 10.313
17.9212 10.428
17.9364 10.255
17.9515 10.103
17.9667 10.158
17.9819 10.354
17.9971 10.268
18.0122 10.100
18.0274 10.354
18.0426 10.381
18.0578 10.207
18.0729 10.265
18.0881 10.208
18.1033 10.035
18.1185 9.982
18.1336 10.000
18.1488 10.107
18.1640 9.954
18.1792 10.003
18.1943 9.952
18.2095 9.745
18.2247 9.830
18.2399 9.770
18.2550 9.742
18.2702 9.622
18.2854 9.802
18.3006 9.764
18.3157 9.614
18.3309 9.835
18.3461 9.872
18.3613 9.860
18.3764 9.982
18.3916 9.975
18.4068 10.049
18.4220 10.028
18.4371 9.862
18.4523 9.813
18.4675 9.557
18.4827 9.633
18.4978 9.950
18.5130 10.071
18.5282 10.091
18.5434 9.811
18.5585 9.579
18.5737 9.618
18.5889 9.678
18.6041 9.878
18.6192 9.856
18.6344 9.819
18.6496 9.799
18.6648 9.645
18.6799 9.559
18.6951 9.614
18.7103 9.784
18.7255 9.890
18.7406 9.807
18.7558 9.827
18.7710 9.720
18.7862 9.739
18.8013 9.554
18.8165 9.542
18.8317 9.632
18.8469 9.848
18.8620 9.993
18.8772 10.089
18.8924 10.095
18.9076 9.988
18.9227 9.918
18.9379 9.935
18.9531 10.138
18.9683 10.133
18.9834 9.998
18.9986 9.927
19.0138 10.113
19.0290 10.161
19.0441 10.162
19.0593 10.327
19.0745 10.280
19.0897 10.194
19.1048 10.402
19.1200 10.593
19.1352 10.369
19.1504 10.214
19.1655 10.590
19.1807 10.702
19.1959 10.547
19.2111 10.531
19.2262 10.750
19.2414 10.716
19.2566 10.777
19.2718 11.013
19.2869 11.049
19.3021 10.902
19.3173 10.926
19.3325 10.993
19.3476 10.919
19.3628 10.785
19.3780 11.023
19.3932 11.264
19.4083 11.295
19.4235 11.196
19.4387 11.415
19.4539 11.478
19.4690 11.268
19.4842 11.274
19.4994 11.263
19.5146 11.421
19.5297 11.509
19.5449 11.805
19.5601 11.657
19.5753 11.546
19.5904 11.738
19.6056 11.749
19.6208 11.584
19.6360 11.542
19.6511 11.860
19.6663 11.801
19.6815 11.631
19.6967 11.483
19.7118 11.524
19.7270 11.751
19.7422 11.693
19.7574 11.650
19.7725 11.859
19.7877 12.132
19.8029 12.150
19.8180 12.115
19.8332 12.096
19.8484 12.140
19.8636 12.319
19.8787 12.486
19.8939 12.812
19.9091 13.069
19.9243 13.460
19.9394 14.051
19.9546 14.184
19.9698 14.302
19.9850 14.518
20.0001 14.313
20.0153 14.165
20.0305 14.108
20.0457 13.897
20.0608 13.983
20.0760 13.979
20.0912 13.848
20.1064 13.768
20.1215 13.442
20.1367 13.303
20.1519 13.194
20.1671 12.877
20.1822 12.832
20.1974 12.998
20.2126 13.046
20.2278 12.926
20.2429 12.571
20.2581 12.236
20.2733 11.890
20.2885 11.774
20.3036 12.024
20.3188 12.022
20.3340 11.824
20.3492 11.949
20.3643 11.659
20.3795 11.446
20.3947 11.337
20.4099 11.015
20.4250 11.066
20.4402 10.909
20.4554 10.841
20.4706 10.972
20.4857 10.894
20.5009 10.926
20.5161 10.745
20.5313 10.568
20.5464 10.508
20.5616 10.492
20.5768 10.624
20.5920 10.629
20.6071 10.539
20.6223 10.808
20.6375 10.424
20.6527 10.369
20.6678 10.472
20.6830 10.493
20.6982 10.435
20.7134 10.451
20.7285 10.244
20.7437 10.625
20.7589 10.671
20.7741 10.352
20.7892 10.464
20.8044 10.497
20.8196 10.423
20.8348 10.133
20.8499 10.149
20.8651 10.123
20.8803 10.129
20.8955 10.270
20.9106 10.340
20.9258 10.172
20.9410 10.099
20.9562 10.305
20.9713 10.086
20.9865 10.006
21.0017 9.877
21.0169 10.056
21.0320 10.021
21.0472 9.965
21.0624 10.089
21.0776 9.685
21.0927 10.119
21.1079 9.945
21.1231 9.896
21.1383 9.898
21.1534 9.905
21.1686 9.750
21.1838 9.744
21.1990 9.556
21.2141 9.528
21.2293 9.424
21.2445 9.752
21.2597 9.993
21.2748 9.926
21.2900 9.786
21.3052 9.265
21.3204 9.804
21.3355 9.756
21.3507 9.179
21.3659 9.335
21.3811 9.555
21.3962 9.766
21.4114 9.680
21.4266 9.490
21.4418 9.285
21.4569 9.473
21.4721 9.362
21.4873 9.579
21.5025 9.404
21.5176 9.394
21.5328 9.351
21.5480 9.378
21.5632 9.212
21.5783 9.167
21.5935 9.162
21.6087 9.193
21.6239 9.064
21.6390 9.292
21.6542 9.246
21.6694 8.976
21.6846 9.129
21.6997 9.034
21.7149 9.008
21.7301 8.970
21.7453 9.113
21.7604 9.112
21.7756 9.191
21.7908 9.179
21.8060 9.183
21.8211 9.128
21.8363 8.969
21.8515 8.979
21.8667 9.160
21.8818 9.359
21.8970 9.166
21.9122 8.957
21.9274 8.909
21.9425 8.918
21.9577 8.822
21.9729 9.005
21.9881 8.914
22.0032 9.078
22.0184 8.988
22.0336 8.994
22.0488 9.120
22.0639 8.860
22.0791 8.527
22.0943 8.630
22.1095 8.701
22.1246 8.572
22.1398 8.576
22.1550 8.692
22.1702 8.684
22.1853 8.659
22.2005 8.570
22.2157 8.603
22.2309 8.865
22.2460 8.818
22.2612 8.398
22.2764 8.644
22.2916 8.565
22.3067 8.542
22.3219 8.577
22.3371 8.546
22.3523 8.473
22.3674 8.692
22.3826 8.578
22.3978 8.446
22.4130 8.580
22.4281 8.518
22.4433 8.570
22.4585 8.361
22.4737 8.601
22.4888 8.649
22.5040 8.672
22.5192 8.477
22.5344 8.256
22.5495 8.508
22.5647 8.450
22.5799 8.523
22.5951 8.349
22.6102 8.894
22.6254 8.519
22.6406 8.374
22.6558 8.459
22.6709 8.371
22.6861 8.316
22.7013 8.644
22.7165 8.346
22.7316 6.527
