'Id: "" Comment: "" Operator: "Lab Manager" Anode: "Mo" Scantype: "Still (Eiger2R_500K (1D mode))" TimePerStep: "300" X: "11.8" Y: "9.4" Z: "11.284" 
7.2532 18.752
7.2684 18.900
7.2836 19.426
7.2987 19.229
7.3139 19.399
7.3291 19.069
7.3443 19.386
7.3594 19.262
7.3746 19.734
7.3898 19.647
7.4050 19.245
7.4201 19.745
7.4353 19.671
7.4505 19.848
7.4657 19.560
7.4808 19.366
7.4960 19.753
7.5112 20.134
7.5264 20.244
7.5415 19.963
7.5567 20.010
7.5719 19.665
7.5871 19.854
7.6022 20.258
7.6174 20.167
7.6326 20.047
7.6478 20.298
7.6629 20.161
7.6781 19.922
7.6933 19.863
7.7085 20.396
7.7236 20.739
7.7388 20.573
7.7540 20.491
7.7692 20.677
7.7843 20.732
7.7995 20.664
7.8147 20.565
7.8299 20.300
7.8450 20.238
7.8602 20.407
7.8754 20.643
7.8905 20.739
7.9057 20.866
7.9209 21.067
7.9361 20.616
7.9512 20.626
7.9664 21.047
7.9816 20.920
7.9968 20.709
8.0119 20.694
8.0271 21.219
8.0423 21.334
8.0575 21.508
8.0726 21.693
8.0878 21.440
8.1030 21.220
8.1182 21.335
8.1333 21.547
8.1485 21.631
8.1637 21.296
8.1789 21.806
8.1940 22.031
8.2092 21.830
8.2244 21.266
8.2396 21.462
8.2547 21.574
8.2699 21.934
8.2851 21.657
8.3003 21.455
8.3154 21.988
8.3306 22.232
8.3458 21.438
8.3610 21.758
8.3761 21.856
8.3913 22.105
8.4065 22.195
8.4217 22.202
8.4368 21.780
8.4520 21.887
8.4672 21.642
8.4824 21.561
8.4975 22.566
8.5127 22.358
8.5279 22.022
8.5431 22.062
8.5582 21.947
8.5734 22.190
8.5886 22.403
8.6038 22.323
8.6189 22.506
8.6341 22.369
8.6493 22.314
8.6645 22.342
8.6796 22.588
8.6948 22.373
8.7100 22.234
8.7252 22.851
8.7403 22.366
8.7555 22.166
8.7707 22.203
8.7859 22.738
8.8010 22.540
8.8162 22.327
8.8314 22.816
8.8466 22.488
8.8617 22.591
8.8769 22.368
8.8921 22.805
8.9073 22.910
8.9224 22.233
8.9376 22.541
8.9528 22.669
8.9680 22.456
8.9831 22.761
8.9983 22.759
9.0135 22.708
9.0287 22.652
9.0438 22.902
9.0590 23.091
9.0742 22.973
9.0894 22.478
9.1045 22.882
9.1197 22.821
9.1349 22.499
9.1501 22.492
9.1652 22.364
9.1804 22.617
9.1956 22.490
9.2108 22.835
9.2259 22.724
9.2411 22.802
9.2563 23.004
9.2715 22.731
9.2866 22.695
9.3018 22.870
9.3170 23.110
9.3322 23.105
9.3473 23.036
9.3625 23.148
9.3777 23.082
9.3929 23.367
9.4080 23.106
9.4232 22.700
9.4384 22.976
9.4536 23.091
9.4687 23.368
9.4839 23.250
9.4991 23.023
9.5143 23.133
9.5294 23.545
9.5446 23.352
9.5598 23.252
9.5750 23.272
9.5901 23.389
9.6053 23.595
9.6205 23.516
9.6357 23.722
9.6508 23.896
9.6660 23.956
9.6812 24.123
9.6964 23.819
9.7115 23.737
9.7267 24.001
9.7419 24.109
9.7571 24.291
9.7722 24.115
9.7874 23.838
9.8026 23.876
9.8178 23.735
9.8329 23.835
9.8481 23.787
9.8633 23.558
9.8785 23.559
9.8936 23.657
9.9088 23.868
9.9240 23.996
9.9392 24.044
9.9543 23.983
9.9695 23.726
9.9847 23.572
9.9999 23.361
10.0150 23.225
10.0302 23.267
10.0454 23.320
10.0606 23.291
10.0757 23.167
10.0909 23.130
10.1061 23.094
10.1213 23.116
10.1364 23.291
10.1516 23.224
10.1668 23.123
10.1820 23.136
10.1971 23.024
10.2123 23.244
10.2275 23.323
10.2427 23.052
10.2578 23.106
10.2730 23.386
10.2882 23.169
10.3034 22.872
10.3185 23.017
10.3337 22.969
10.3489 22.808
10.3641 23.128
10.3792 23.111
10.3944 22.911
10.4096 23.112
10.4248 23.052
10.4399 22.804
10.4551 22.734
10.4703 22.840
10.4855 22.867
10.5006 22.794
10.5158 22.638
10.5310 22.421
10.5462 22.863
10.5613 22.849
10.5765 22.769
10.5917 22.727
10.6069 22.703
10.6220 22.530
10.6372 22.609
10.6524 22.338
10.6676 22.358
10.6827 22.532
10.6979 22.783
10.7131 22.692
10.7283 22.846
10.7434 22.663
10.7586 22.373
10.7738 22.752
10.7890 22.876
10.8041 22.461
10.8193 22.502
10.8345 22.528
10.8497 21.986
10.8648 22.199
10.8800 22.335
10.8952 22.122
10.9104 22.344
10.9255 22.308
10.9407 22.502
10.9559 22.075
10.9711 22.080
10.9862 22.371
11.0014 22.800
11.0166 22.625
11.0318 21.924
11.0469 21.826
11.0621 21.857
11.0773 21.870
11.0925 21.697
11.1076 21.822
11.1228 21.711
11.1380 21.598
11.1532 21.864
11.1683 22.183
11.1835 21.874
11.1987 21.872
11.2139 21.619
11.2290 21.379
11.2442 21.534
11.2594 21.716
11.2746 21.645
11.2897 21.889
11.3049 21.594
11.3201 21.725
11.3353 21.923
11.3504 21.433
11.3656 21.427
11.3808 21.664
11.3960 21.676
11.4111 21.636
11.4263 21.734
11.4415 21.408
11.4567 21.545
11.4718 21.588
11.4870 21.262
11.5022 21.339
11.5174 21.299
11.5325 21.481
11.5477 21.776
11.5629 21.588
11.5781 21.349
11.5932 20.743
11.6084 20.551
11.6236 20.669
11.6388 20.648
11.6539 20.916
11.6691 20.961
11.6843 20.454
11.6995 20.811
11.7146 20.570
11.7298 20.638
11.7450 20.549
11.7602 20.223
11.7753 20.167
11.7905 20.001
11.8057 20.111
11.8209 19.849
11.8360 19.774
11.8512 19.874
11.8664 20.166
11.8816 19.947
11.8967 19.449
11.9119 19.664
11.9271 19.833
11.9423 19.736
11.9574 19.551
11.9726 19.540
11.9878 19.291
12.0030 19.067
12.0181 19.055
12.0333 19.087
12.0485 19.163
12.0637 19.017
12.0788 18.982
12.0940 18.716
12.1092 18.619
12.1244 18.432
12.1395 18.507
12.1547 18.169
12.1699 18.362
12.1851 18.582
12.2002 18.388
12.2154 18.179
12.2306 18.077
12.2458 17.795
12.2609 17.712
12.2761 17.729
12.2913 17.864
12.3065 18.231
12.3216 18.005
12.3368 17.708
12.3520 17.562
12.3672 17.338
12.3823 17.533
12.3975 17.627
12.4127 17.404
12.4279 17.106
12.4430 17.008
12.4582 16.894
12.4734 16.903
12.4886 16.753
12.5037 16.636
12.5189 16.515
12.5341 16.367
12.5493 16.209
12.5644 16.235
12.5796 16.446
12.5948 16.294
12.6100 16.343
12.6251 16.216
12.6403 16.121
12.6555 15.965
12.6707 15.936
12.6858 15.922
12.7010 15.739
12.7162 15.619
12.7314 15.704
12.7465 15.494
12.7617 15.573
12.7769 15.684
12.7921 15.400
12.8072 15.192
12.8224 15.184
12.8376 15.016
12.8528 15.060
12.8679 15.237
12.8831 15.014
12.8983 14.645
12.9135 14.611
12.9286 14.632
12.9438 14.511
12.9590 14.553
12.9742 14.695
12.9893 14.628
13.0045 14.495
13.0197 14.260
13.0349 14.192
13.0500 14.267
13.0652 14.330
13.0804 14.229
13.0956 14.053
13.1107 13.804
13.1259 13.693
13.1411 13.657
13.1563 13.660
13.1714 13.733
13.1866 13.627
13.2018 13.528
13.2170 13.400
13.2321 13.320
13.2473 13.254
13.2625 13.471
13.2777 13.680
13.2928 13.550
13.3080 13.268
13.3232 13.048
13.3384 13.129
13.3535 13.072
13.3687 12.946
13.3839 13.008
13.3991 12.953
13.4142 13.036
13.4294 13.114
13.4446 12.889
13.4598 12.700
13.4749 12.661
13.4901 12.699
13.5053 12.632
13.5205 12.680
13.5356 12.863
13.5508 12.681
13.5660 12.562
13.5812 12.457
13.5963 12.441
13.6115 12.240
13.6267 12.059
13.6419 12.155
13.6570 12.332
13.6722 12.291
13.6874 12.035
13.7026 12.193
13.7177 12.324
13.7329 12.232
13.7481 12.311
13.7633 12.412
13.7784 12.052
13.7936 12.162
13.8088 12.249
13.8239 12.435
13.8391 12.307
13.8543 12.317
13.8695 12.321
13.8846 12.195
13.8998 12.197
13.9150 12.195
13.9302 12.053
13.9453 12.129
13.9605 12.080
13.9757 11.766
13.9909 11.693
14.0060 11.720
14.0212 11.585
14.0364 11.585
14.0516 11.566
14.0667 11.634
14.0819 11.702
14.0971 11.492
14.1123 11.448
14.1274 11.426
14.1426 11.480
14.1578 11.494
14.1730 11.378
14.1881 11.375
14.2033 11.786
14.2185 11.667
14.2337 11.442
14.2488 11.442
14.2640 11.291
14.2792 11.459
14.2944 11.796
14.3095 11.926
14.3247 11.962
14.3399 12.049
14.3551 11.771
14.3702 12.466
14.3854 13.016
14.4006 12.761
14.4158 13.174
14.4309 13.142
14.4461 12.664
14.4613 12.723
14.4765 12.619
14.4916 12.425
14.5068 12.108
14.5220 11.645
14.5372 11.905
14.5523 11.714
14.5675 10.877
14.5827 10.730
14.5979 11.565
14.6130 11.088
14.6282 10.868
14.6434 10.879
14.6586 10.963
14.6737 11.140
14.6889 11.113
14.7041 11.025
14.7193 10.902
14.7344 11.130
14.7496 11.141
14.7648 10.887
14.7800 11.151
14.7951 10.866
14.8103 10.920
14.8255 10.721
14.8407 10.636
14.8558 10.718
14.8710 10.880
14.8862 10.899
14.9014 10.653
14.9165 11.047
14.9317 10.790
14.9469 10.589
14.9621 10.836
14.9772 10.243
14.9924 10.286
15.0076 10.337
15.0228 10.249
15.0379 10.775
15.0531 10.434
15.0683 10.512
15.0835 10.378
15.0986 10.616
15.1138 10.505
15.1290 10.468
15.1442 10.630
15.1593 10.412
15.1745 10.165
15.1897 10.333
15.2049 10.192
15.2200 10.031
15.2352 10.338
15.2504 10.010
15.2656 10.337
15.2807 10.128
15.2959 10.271
15.3111 10.326
15.3263 10.267
15.3414 10.576
15.3566 10.391
15.3718 10.117
15.3870 10.348
15.4021 10.134
15.4173 10.577
15.4325 10.514
15.4477 10.584
15.4628 10.066
15.4780 10.492
15.4932 10.097
15.5084 10.429
15.5235 9.983
15.5387 10.343
15.5539 10.417
15.5691 10.075
15.5842 10.144
15.5994 10.162
15.6146 10.009
15.6298 10.231
15.6449 10.105
15.6601 10.267
15.6753 9.909
15.6905 9.838
15.7056 9.796
15.7208 9.905
15.7360 9.600
15.7512 9.665
15.7663 9.947
15.7815 10.043
15.7967 9.893
15.8119 10.036
15.8270 10.026
15.8422 10.162
15.8574 9.975
15.8726 9.527
15.8877 9.850
15.9029 9.723
15.9181 9.605
15.9333 9.929
15.9484 9.892
15.9636 9.634
15.9788 9.710
15.9940 9.933
16.0091 10.005
16.0243 10.052
16.0395 10.044
16.0547 9.964
16.0698 9.559
16.0850 9.512
16.1002 9.520
16.1154 9.525
16.1305 9.953
16.1457 9.882
16.1609 9.777
16.1761 9.945
16.1912 9.607
16.2064 9.765
16.2216 9.859
16.2368 9.850
16.2519 9.737
16.2671 9.998
16.2823 9.916
16.2975 9.984
16.3126 10.229
16.3278 10.177
16.3430 10.010
16.3582 9.927
16.3733 9.997
16.3885 10.058
16.4037 10.218
16.4189 10.261
16.4340 10.292
16.4492 10.223
16.4644 9.992
16.4796 10.004
16.4947 9.817
16.5099 9.705
16.5251 10.199
16.5403 9.967
16.5554 9.632
16.5706 9.697
16.5858 9.812
16.6010 9.650
16.6161 9.669
16.6313 9.796
16.6465 9.960
16.6617 10.141
16.6768 10.136
16.6920 9.971
16.7072 10.231
16.7224 10.132
16.7375 10.114
16.7527 9.945
16.7679 9.821
16.7831 9.987
16.7982 10.076
16.8134 9.883
16.8286 9.756
16.8438 10.114
16.8589 10.046
16.8741 9.785
16.8893 9.675
16.9045 9.815
16.9196 9.992
16.9348 9.868
16.9500 9.867
16.9652 10.059
16.9803 10.085
16.9955 9.973
17.0107 10.067
17.0259 10.012
17.0410 10.172
17.0562 10.382
17.0714 10.266
17.0866 10.289
17.1017 10.671
17.1169 10.912
17.1321 11.061
17.1473 11.427
17.1624 11.671
17.1776 12.242
17.1928 13.056
17.2080 13.977
17.2231 15.021
17.2383 16.265
17.2535 17.833
17.2687 18.745
17.2838 18.738
17.2990 18.296
17.3142 17.185
17.3294 16.461
17.3445 16.307
17.3597 15.990
17.3749 15.799
17.3901 15.403
17.4052 14.467
17.4204 13.389
17.4356 12.457
17.4508 11.994
17.4659 11.640
17.4811 11.275
17.4963 11.252
17.5115 11.000
17.5266 10.716
17.5418 10.457
17.5570 10.387
17.5722 10.589
17.5873 10.558
17.6025 10.473
17.6177 10.536
17.6329 10.376
17.6480 10.238
17.6632 10.306
17.6784 10.446
17.6936 10.636
17.7087 10.883
17.7239 10.881
17.7391 10.546
17.7543 10.653
17.7694 10.701
17.7846 10.723
17.7998 10.872
17.8150 11.065
17.8301 11.169
17.8453 10.908
17.8605 10.834
17.8757 10.888
17.8908 10.877
17.9060 10.833
17.9212 10.718
17.9364 10.528
17.9515 10.594
17.9667 10.972
17.9819 10.668
17.9971 10.494
18.0122 10.546
18.0274 10.517
18.0426 10.365
18.0578 10.270
18.0729 10.300
18.0881 10.161
18.1033 10.110
18.1185 10.039
18.1336 10.108
18.1488 10.226
18.1640 10.214
18.1792 10.193
18.1943 9.882
18.2095 9.819
18.2247 10.029
18.2399 10.108
18.2550 10.056
18.2702 10.167
18.2854 10.047
18.3006 9.898
18.3157 9.928
18.3309 10.033
18.3461 9.782
18.3613 9.555
18.3764 9.884
18.3916 9.996
18.4068 9.686
18.4220 9.741
18.4371 9.802
18.4523 9.880
18.4675 9.929
18.4827 9.873
18.4978 9.864
18.5130 10.051
18.5282 9.956
18.5434 9.764
18.5585 9.972
18.5737 10.029
18.5889 9.813
18.6041 9.695
18.6192 9.692
18.6344 9.772
18.6496 9.858
18.6648 9.670
18.6799 9.963
18.6951 10.042
18.7103 9.916
18.7255 9.999
18.7406 9.790
18.7558 9.672
18.7710 9.896
18.7862 9.935
18.8013 9.731
18.8165 9.622
18.8317 9.745
18.8469 9.790
18.8620 9.824
18.8772 9.917
18.8924 9.886
18.9076 10.013
18.9227 10.070
18.9379 9.814
18.9531 9.948
18.9683 9.940
18.9834 10.006
18.9986 10.128
19.0138 10.230
19.0290 10.221
19.0441 10.029
19.0593 10.130
19.0745 10.262
19.0897 10.211
19.1048 10.388
19.1200 10.590
19.1352 10.687
19.1504 10.557
19.1655 10.522
19.1807 10.678
19.1959 10.744
19.2111 10.860
19.2262 10.950
19.2414 10.956
19.2566 10.719
19.2718 10.586
19.2869 10.837
19.3021 11.014
19.3173 10.958
19.3325 11.059
19.3476 11.155
19.3628 11.247
19.3780 11.277
19.3932 11.279
19.4083 11.375
19.4235 11.344
19.4387 11.261
19.4539 11.332
19.4690 11.528
19.4842 11.318
19.4994 11.193
19.5146 11.483
19.5297 11.714
19.5449 11.589
19.5601 11.483
19.5753 11.462
19.5904 11.490
19.6056 11.655
19.6208 11.859
19.6360 11.756
19.6511 11.657
19.6663 11.499
19.6815 11.585
19.6967 11.783
19.7118 11.803
19.7270 11.822
19.7422 11.505
19.7574 11.496
19.7725 11.654
19.7877 11.764
19.8029 11.962
19.8180 11.961
19.8332 11.894
19.8484 12.014
19.8636 12.200
19.8787 12.548
19.8939 12.631
19.9091 13.043
19.9243 13.713
19.9394 14.098
19.9546 14.224
19.9698 14.528
19.9850 14.722
20.0001 14.565
20.0153 14.289
20.0305 14.119
20.0457 13.887
20.0608 13.645
20.0760 13.856
20.0912 13.913
20.1064 13.829
20.1215 13.629
20.1367 13.291
20.1519 12.959
20.1671 12.838
20.1822 12.927
20.1974 12.969
20.2126 12.777
20.2278 12.635
20.2429 12.643
20.2581 12.182
20.2733 12.000
20.2885 12.101
20.3036 11.814
20.3188 11.509
20.3340 11.684
20.3492 11.814
20.3643 11.611
20.3795 11.135
20.3947 10.835
20.4099 11.128
20.4250 11.046
20.4402 11.117
20.4554 11.019
20.4706 10.740
20.4857 10.626
20.5009 10.782
20.5161 11.024
20.5313 10.614
20.5464 10.807
20.5616 11.099
20.5768 11.052
20.5920 11.016
20.6071 10.602
20.6223 10.633
20.6375 10.323
20.6527 10.252
20.6678 10.623
20.6830 10.550
20.6982 10.604
20.7134 10.446
20.7285 10.515
20.7437 10.682
20.7589 10.453
20.7741 10.328
20.7892 10.037
20.8044 10.417
20.8196 10.571
20.8348 10.467
20.8499 10.523
20.8651 10.412
20.8803 10.832
20.8955 10.564
20.9106 10.428
20.9258 10.287
20.9410 10.615
20.9562 10.355
20.9713 10.648
20.9865 10.427
21.0017 10.399
21.0169 10.408
21.0320 10.399
21.0472 10.091
21.0624 9.889
21.0776 10.018
21.0927 10.372
21.1079 10.126
21.1231 10.053
21.1383 9.968
21.1534 9.808
21.1686 10.132
21.1838 9.654
21.1990 9.965
21.2141 9.843
21.2293 9.762
21.2445 9.807
21.2597 9.342
21.2748 9.757
21.2900 9.388
21.3052 9.563
21.3204 9.548
21.3355 9.554
21.3507 9.698
21.3659 9.585
21.3811 9.572
21.3962 9.665
21.4114 9.679
21.4266 9.383
21.4418 9.570
21.4569 9.472
21.4721 9.695
21.4873 9.586
21.5025 9.555
21.5176 9.405
21.5328 9.378
21.5480 9.376
21.5632 9.307
21.5783 9.515
21.5935 9.515
21.6087 9.311
21.6239 9.327
21.6390 9.142
21.6542 8.986
21.6694 9.052
21.6846 9.116
21.6997 8.971
21.7149 8.872
21.7301 9.152
21.7453 9.069
21.7604 9.179
21.7756 8.913
21.7908 8.999
21.8060 9.172
21.8211 8.775
21.8363 8.899
21.8515 9.112
21.8667 9.121
21.8818 9.039
21.8970 9.073
21.9122 9.119
21.9274 9.049
21.9425 9.108
21.9577 9.035
21.9729 8.727
21.9881 8.779
22.0032 8.764
22.0184 8.897
22.0336 8.761
22.0488 8.684
22.0639 8.800
22.0791 8.718
22.0943 8.655
22.1095 8.704
22.1246 8.621
22.1398 8.706
22.1550 8.668
22.1702 8.581
22.1853 8.604
22.2005 8.606
22.2157 8.580
22.2309 8.504
22.2460 8.694
22.2612 8.702
22.2764 8.704
22.2916 8.550
22.3067 8.415
22.3219 8.621
22.3371 8.915
22.3523 8.527
22.3674 8.550
22.3826 8.661
22.3978 8.528
22.4130 8.548
22.4281 8.566
22.4433 8.764
22.4585 8.427
22.4737 8.390
22.4888 8.412
22.5040 8.370
22.5192 8.380
22.5344 8.402
22.5495 8.556
22.5647 8.497
22.5799 8.398
22.5951 8.273
22.6102 8.315
22.6254 8.783
22.6406 8.580
22.6558 8.242
22.6709 8.221
22.6861 8.462
22.7013 8.111
22.7165 7.939
22.7316 6.402
