'Id: "" Comment: "" Operator: "Lab Manager" Anode: "Mo" Scantype: "Still (Eiger2R_500K (1D mode))" TimePerStep: "300" X: "11.8" Y: "9.4" Z: "11.284" 
7.2532 18.978
7.2684 19.024
7.2836 18.639
7.2987 19.269
7.3139 18.926
7.3291 18.906
7.3443 18.908
7.3594 18.947
7.3746 18.921
7.3898 19.392
7.4050 19.451
7.4201 19.541
7.4353 19.307
7.4505 19.617
7.4657 20.217
7.4808 19.826
7.4960 19.804
7.5112 19.610
7.5264 19.799
7.5415 19.691
7.5567 19.772
7.5719 19.785
7.5871 19.558
7.6022 20.091
7.6174 19.988
7.6326 20.085
7.6478 20.197
7.6629 20.313
7.6781 20.276
7.6933 20.219
7.7085 20.220
7.7236 20.562
7.7388 20.435
7.7540 20.509
7.7692 20.816
7.7843 20.519
7.7995 20.657
7.8147 20.544
7.8299 20.470
7.8450 20.860
7.8602 20.834
7.8754 20.857
7.8905 20.950
7.9057 20.954
7.9209 21.399
7.9361 21.305
7.9512 21.199
7.9664 20.995
7.9816 21.454
7.9968 21.444
8.0119 21.056
8.0271 21.118
8.0423 21.134
8.0575 21.339
8.0726 21.235
8.0878 21.010
8.1030 21.415
8.1182 21.564
8.1333 21.516
8.1485 21.430
8.1637 21.268
8.1789 21.272
8.1940 21.436
8.2092 21.488
8.2244 21.677
8.2396 21.405
8.2547 21.690
8.2699 21.939
8.2851 21.869
8.3003 21.674
8.3154 21.965
8.3306 22.097
8.3458 22.144
8.3610 21.734
8.3761 21.856
8.3913 21.890
8.4065 21.602
8.4217 22.399
8.4368 22.305
8.4520 21.798
8.4672 22.343
8.4824 22.614
8.4975 22.059
8.5127 21.887
8.5279 22.019
8.5431 22.379
8.5582 22.468
8.5734 22.650
8.5886 22.603
8.6038 21.924
8.6189 22.654
8.6341 22.631
8.6493 22.547
8.6645 21.971
8.6796 22.397
8.6948 22.878
8.7100 23.018
8.7252 22.511
8.7403 22.983
8.7555 22.699
8.7707 22.897
8.7859 22.364
8.8010 22.839
8.8162 23.053
8.8314 22.588
8.8466 22.514
8.8617 22.567
8.8769 22.727
8.8921 22.797
8.9073 22.617
8.9224 22.514
8.9376 22.736
8.9528 22.682
8.9680 22.452
8.9831 22.919
8.9983 22.866
9.0135 22.880
9.0287 22.675
9.0438 22.972
9.0590 23.226
9.0742 22.956
9.0894 22.731
9.1045 22.835
9.1197 22.940
9.1349 22.890
9.1501 22.708
9.1652 23.170
9.1804 22.904
9.1956 23.145
9.2108 23.045
9.2259 23.190
9.2411 23.148
9.2563 23.277
9.2715 22.947
9.2866 23.127
9.3018 23.253
9.3170 22.851
9.3322 23.057
9.3473 23.010
9.3625 23.016
9.3777 23.552
9.3929 23.083
9.4080 23.457
9.4232 23.419
9.4384 23.019
9.4536 23.285
9.4687 23.425
9.4839 23.147
9.4991 23.260
9.5143 23.382
9.5294 23.359
9.5446 23.528
9.5598 23.167
9.5750 22.899
9.5901 22.869
9.6053 23.187
9.6205 23.322
9.6357 23.346
9.6508 23.750
9.6660 24.020
9.6812 24.019
9.6964 23.805
9.7115 24.026
9.7267 24.178
9.7419 23.799
9.7571 23.609
9.7722 23.649
9.7874 23.774
9.8026 23.882
9.8178 23.556
9.8329 23.200
9.8481 23.412
9.8633 23.347
9.8785 23.297
9.8936 23.585
9.9088 23.630
9.9240 23.246
9.9392 23.100
9.9543 23.123
9.9695 23.329
9.9847 23.511
9.9999 23.581
10.0150 23.767
10.0302 23.624
10.0454 23.955
10.0606 23.816
10.0757 23.418
10.0909 23.374
10.1061 24.031
10.1213 24.119
10.1364 23.674
10.1516 23.690
10.1668 23.767
10.1820 23.754
10.1971 23.732
10.2123 23.909
10.2275 23.962
10.2427 23.768
10.2578 23.529
10.2730 23.870
10.2882 23.853
10.3034 23.532
10.3185 23.409
10.3337 23.071
10.3489 23.165
10.3641 23.351
10.3792 22.956
10.3944 22.761
10.4096 22.814
10.4248 22.989
10.4399 23.221
10.4551 23.248
10.4703 22.825
10.4855 22.656
10.5006 22.794
10.5158 22.874
10.5310 22.764
10.5462 22.604
10.5613 22.726
10.5765 22.556
10.5917 22.551
10.6069 23.027
10.6220 22.875
10.6372 22.637
10.6524 22.912
10.6676 22.983
10.6827 22.515
10.6979 22.368
10.7131 22.822
10.7283 23.011
10.7434 22.620
10.7586 22.295
10.7738 22.519
10.7890 22.558
10.8041 22.078
10.8193 22.147
10.8345 22.238
10.8497 22.548
10.8648 22.198
10.8800 22.296
10.8952 22.289
10.9104 22.206
10.9255 22.418
10.9407 22.158
10.9559 22.225
10.9711 22.045
10.9862 22.114
11.0014 22.383
11.0166 22.297
11.0318 22.186
11.0469 22.026
11.0621 21.791
11.0773 21.809
11.0925 21.844
11.1076 21.614
11.1228 21.787
11.1380 21.599
11.1532 21.860
11.1683 21.861
11.1835 22.104
11.1987 22.382
11.2139 22.359
11.2290 22.367
11.2442 22.055
11.2594 21.825
11.2746 21.732
11.2897 21.823
11.3049 21.755
11.3201 21.662
11.3353 21.495
11.3504 21.622
11.3656 21.818
11.3808 21.608
11.3960 21.478
11.4111 21.718
11.4263 21.485
11.4415 21.524
11.4567 21.466
11.4718 20.913
11.4870 20.921
11.5022 21.307
11.5174 21.410
11.5325 21.258
11.5477 21.035
11.5629 21.098
11.5781 21.143
11.5932 21.200
11.6084 20.916
11.6236 20.513
11.6388 20.704
11.6539 20.807
11.6691 20.988
11.6843 20.863
11.6995 20.758
11.7146 20.779
11.7298 20.664
11.7450 20.482
11.7602 20.329
11.7753 19.780
11.7905 20.144
11.8057 19.988
11.8209 20.002
11.8360 19.893
11.8512 19.700
11.8664 19.536
11.8816 19.961
11.8967 19.864
11.9119 19.678
11.9271 19.849
11.9423 19.523
11.9574 19.469
11.9726 19.364
11.9878 19.197
12.0030 19.314
12.0181 19.298
12.0333 19.148
12.0485 19.213
12.0637 18.811
12.0788 18.571
12.0940 18.902
12.1092 18.981
12.1244 18.740
12.1395 18.397
12.1547 18.459
12.1699 18.426
12.1851 18.321
12.2002 18.191
12.2154 18.093
12.2306 18.001
12.2458 18.356
12.2609 17.941
12.2761 17.800
12.2913 17.872
12.3065 17.882
12.3216 17.877
12.3368 17.564
12.3520 17.303
12.3672 17.302
12.3823 17.334
12.3975 17.612
12.4127 17.740
12.4279 17.582
12.4430 17.238
12.4582 16.949
12.4734 16.963
12.4886 17.121
12.5037 17.296
12.5189 16.974
12.5341 16.659
12.5493 16.629
12.5644 16.467
12.5796 16.176
12.5948 16.409
12.6100 16.446
12.6251 16.293
12.6403 16.112
12.6555 15.739
12.6707 15.670
12.6858 15.609
12.7010 15.616
12.7162 15.842
12.7314 15.744
12.7465 15.907
12.7617 15.675
12.7769 15.174
12.7921 15.019
12.8072 14.921
12.8224 14.891
12.8376 14.890
12.8528 14.883
12.8679 14.984
12.8831 14.854
12.8983 15.028
12.9135 15.112
12.9286 14.998
12.9438 14.707
12.9590 14.568
12.9742 14.534
12.9893 14.554
13.0045 14.368
13.0197 14.152
13.0349 14.050
13.0500 14.058
13.0652 14.064
13.0804 14.035
13.0956 14.092
13.1107 13.915
13.1259 13.754
13.1411 13.577
13.1563 13.535
13.1714 13.722
13.1866 13.596
13.2018 13.440
13.2170 13.525
13.2321 13.473
13.2473 13.295
13.2625 13.286
13.2777 13.236
13.2928 13.099
13.3080 13.136
13.3232 13.219
13.3384 13.168
13.3535 13.121
13.3687 13.024
13.3839 12.794
13.3991 12.943
13.4142 13.066
13.4294 12.996
13.4446 12.785
13.4598 12.810
13.4749 12.897
13.4901 12.886
13.5053 12.872
13.5205 12.884
13.5356 12.465
13.5508 12.334
13.5660 12.351
13.5812 12.180
13.5963 12.098
13.6115 12.222
13.6267 12.036
13.6419 12.055
13.6570 12.173
13.6722 12.260
13.6874 12.380
13.7026 12.331
13.7177 12.279
13.7329 12.090
13.7481 12.197
13.7633 12.219
13.7784 12.156
13.7936 12.073
13.8088 12.130
13.8239 12.210
13.8391 12.116
13.8543 12.504
13.8695 12.316
13.8846 12.108
13.8998 12.007
13.9150 12.261
13.9302 12.243
13.9453 11.911
13.9605 11.673
13.9757 11.745
13.9909 11.365
14.0060 11.409
14.0212 11.513
14.0364 11.524
14.0516 11.406
14.0667 11.355
14.0819 11.660
14.0971 11.752
14.1123 11.781
14.1274 11.477
14.1426 11.420
14.1578 11.281
14.1730 11.567
14.1881 11.784
14.2033 11.750
14.2185 11.909
14.2337 11.898
14.2488 12.177
14.2640 12.193
14.2792 12.191
14.2944 12.165
14.3095 12.247
14.3247 12.360
14.3399 12.623
14.3551 12.578
14.3702 13.007
14.3854 13.338
14.4006 13.375
14.4158 13.163
14.4309 13.014
14.4461 12.794
14.4613 12.566
14.4765 12.342
14.4916 12.304
14.5068 12.046
14.5220 11.841
14.5372 11.817
14.5523 11.482
14.5675 11.517
14.5827 11.148
14.5979 11.478
14.6130 11.514
14.6282 11.590
14.6434 11.328
14.6586 10.972
14.6737 11.244
14.6889 11.069
14.7041 10.808
14.7193 11.071
14.7344 11.001
14.7496 10.845
14.7648 10.720
14.7800 10.497
14.7951 10.783
14.8103 10.664
14.8255 10.609
14.8407 10.803
14.8558 10.588
14.8710 10.868
14.8862 10.499
14.9014 10.422
14.9165 10.691
14.9317 10.651
14.9469 10.681
14.9621 10.707
14.9772 10.427
14.9924 10.861
15.0076 10.644
15.0228 10.531
15.0379 10.402
15.0531 10.662
15.0683 10.607
15.0835 10.731
15.0986 10.813
15.1138 10.372
15.1290 10.694
15.1442 10.576
15.1593 10.725
15.1745 10.180
15.1897 10.326
15.2049 10.296
15.2200 10.274
15.2352 10.444
15.2504 10.482
15.2656 10.409
15.2807 10.358
15.2959 10.139
15.3111 9.988
15.3263 10.421
15.3414 10.366
15.3566 10.272
15.3718 10.524
15.3870 10.472
15.4021 10.385
15.4173 10.531
15.4325 10.712
15.4477 10.553
15.4628 10.503
15.4780 10.496
15.4932 10.538
15.5084 10.200
15.5235 10.237
15.5387 10.341
15.5539 10.545
15.5691 10.255
15.5842 10.052
15.5994 10.065
15.6146 10.161
15.6298 10.262
15.6449 9.935
15.6601 10.040
15.6753 10.067
15.6905 9.953
15.7056 10.118
15.7208 9.988
15.7360 10.071
15.7512 9.819
15.7663 9.811
15.7815 9.941
15.7967 10.070
15.8119 10.069
15.8270 9.742
15.8422 9.869
15.8574 9.793
15.8726 9.724
15.8877 9.871
15.9029 9.695
15.9181 9.505
15.9333 9.763
15.9484 9.734
15.9636 9.938
15.9788 9.850
15.9940 10.124
16.0091 9.742
16.0243 9.667
16.0395 9.746
16.0547 9.868
16.0698 9.771
16.0850 9.871
16.1002 9.642
16.1154 9.847
16.1305 9.816
16.1457 9.973
16.1609 9.773
16.1761 9.766
16.1912 9.800
16.2064 9.869
16.2216 9.946
16.2368 10.111
16.2519 10.095
16.2671 9.821
16.2823 9.975
16.2975 10.425
16.3126 10.320
16.3278 10.044
16.3430 10.054
16.3582 9.974
16.3733 10.218
16.3885 10.328
16.4037 10.125
16.4189 10.197
16.4340 9.820
16.4492 9.844
16.4644 9.956
16.4796 9.800
16.4947 9.710
16.5099 9.817
16.5251 9.752
16.5403 9.706
16.5554 9.545
16.5706 9.599
16.5858 9.579
16.6010 9.490
16.6161 9.645
16.6313 9.743
16.6465 9.737
16.6617 9.772
16.6768 9.757
16.6920 9.925
16.7072 10.084
16.7224 10.105
16.7375 10.097
16.7527 10.118
16.7679 9.763
16.7831 9.698
16.7982 9.947
16.8134 10.024
16.8286 9.952
16.8438 9.773
16.8589 9.694
16.8741 9.934
16.8893 9.854
16.9045 9.777
16.9196 9.696
16.9348 9.886
16.9500 10.074
16.9652 9.782
16.9803 9.684
16.9955 9.801
17.0107 9.947
17.0259 9.953
17.0410 9.955
17.0562 10.022
17.0714 10.349
17.0866 10.570
17.1017 10.476
17.1169 10.638
17.1321 10.945
17.1473 11.238
17.1624 11.558
17.1776 12.107
17.1928 13.020
17.2080 13.794
17.2231 14.778
17.2383 16.057
17.2535 17.259
17.2687 18.295
17.2838 18.761
17.2990 18.124
17.3142 17.093
17.3294 16.346
17.3445 16.023
17.3597 16.167
17.3749 16.039
17.3901 15.351
17.4052 14.375
17.4204 13.539
17.4356 12.788
17.4508 12.249
17.4659 12.001
17.4811 11.637
17.4963 11.277
17.5115 11.305
17.5266 11.251
17.5418 11.125
17.5570 11.186
17.5722 11.359
17.5873 11.821
17.6025 12.030
17.6177 11.682
17.6329 11.174
17.6480 11.174
17.6632 11.292
17.6784 11.059
17.6936 10.703
17.7087 10.897
17.7239 10.975
17.7391 10.670
17.7543 10.415
17.7694 10.220
17.7846 10.367
17.7998 10.354
17.8150 10.410
17.8301 10.560
17.8453 10.559
17.8605 10.513
17.8757 10.492
17.8908 10.414
17.9060 10.338
17.9212 10.461
17.9364 10.395
17.9515 10.254
17.9667 10.413
17.9819 10.502
17.9971 10.404
18.0122 10.286
18.0274 10.378
18.0426 10.390
18.0578 10.102
18.0729 10.081
18.0881 10.003
18.1033 10.022
18.1185 9.952
18.1336 9.967
18.1488 9.893
18.1640 10.009
18.1792 9.937
18.1943 9.988
18.2095 9.905
18.2247 9.849
18.2399 9.813
18.2550 9.904
18.2702 10.090
18.2854 9.920
18.3006 9.777
18.3157 9.875
18.3309 9.933
18.3461 9.892
18.3613 9.805
18.3764 9.759
18.3916 9.848
18.4068 9.715
18.4220 9.873
18.4371 10.026
18.4523 9.697
18.4675 9.538
18.4827 9.525
18.4978 9.615
18.5130 9.810
18.5282 9.707
18.5434 9.800
18.5585 9.844
18.5737 9.731
18.5889 9.664
18.6041 9.577
18.6192 9.663
18.6344 9.732
18.6496 9.963
18.6648 9.703
18.6799 9.450
18.6951 9.380
18.7103 9.543
18.7255 9.785
18.7406 9.742
18.7558 9.882
18.7710 9.905
18.7862 9.831
18.8013 9.636
18.8165 9.477
18.8317 9.662
18.8469 9.959
18.8620 10.106
18.8772 10.090
18.8924 9.792
18.9076 9.694
18.9227 9.693
18.9379 9.860
18.9531 10.055
18.9683 9.986
18.9834 9.966
18.9986 10.286
19.0138 10.519
19.0290 10.295
19.0441 10.101
19.0593 9.978
19.0745 10.215
19.0897 10.257
19.1048 10.140
19.1200 10.190
19.1352 10.296
19.1504 10.317
19.1655 10.392
19.1807 10.300
19.1959 10.467
19.2111 10.679
19.2262 10.727
19.2414 10.613
19.2566 10.776
19.2718 10.896
19.2869 10.961
19.3021 11.034
19.3173 10.907
19.3325 11.072
19.3476 10.983
19.3628 10.881
19.3780 11.022
19.3932 11.429
19.4083 11.312
19.4235 11.140
19.4387 11.234
19.4539 11.163
19.4690 11.370
19.4842 11.575
19.4994 11.381
19.5146 11.368
19.5297 11.541
19.5449 11.500
19.5601 11.410
19.5753 11.514
19.5904 11.693
19.6056 11.566
19.6208 11.447
19.6360 11.706
19.6511 11.670
19.6663 11.565
19.6815 11.754
19.6967 11.644
19.7118 11.500
19.7270 11.574
19.7422 11.576
19.7574 11.532
19.7725 11.656
19.7877 11.782
19.8029 11.861
19.8180 12.068
19.8332 12.347
19.8484 12.269
19.8636 12.374
19.8787 12.567
19.8939 12.577
19.9091 12.892
19.9243 13.135
19.9394 13.509
19.9546 13.847
19.9698 14.222
19.9850 14.497
20.0001 14.490
20.0153 14.118
20.0305 14.029
20.0457 13.609
20.0608 13.524
20.0760 13.688
20.0912 13.587
20.1064 13.512
20.1215 13.268
20.1367 13.136
20.1519 13.230
20.1671 12.924
20.1822 12.981
20.1974 12.650
20.2126 12.652
20.2278 12.892
20.2429 12.860
20.2581 12.657
20.2733 12.403
20.2885 12.041
20.3036 11.754
20.3188 11.840
20.3340 11.815
20.3492 11.577
20.3643 11.531
20.3795 11.186
20.3947 10.934
20.4099 11.114
20.4250 11.197
20.4402 11.056
20.4554 11.008
20.4706 10.892
20.4857 10.899
20.5009 11.162
20.5161 11.163
20.5313 11.087
20.5464 10.968
20.5616 10.794
20.5768 10.927
20.5920 10.679
20.6071 10.770
20.6223 10.940
20.6375 10.650
20.6527 10.644
20.6678 10.494
20.6830 10.073
20.6982 10.403
20.7134 10.444
20.7285 10.610
20.7437 10.572
20.7589 10.503
20.7741 10.723
20.7892 10.736
20.8044 10.616
20.8196 10.355
20.8348 10.588
20.8499 10.302
20.8651 10.096
20.8803 10.107
20.8955 10.425
20.9106 10.304
20.9258 10.020
20.9410 9.863
20.9562 10.055
20.9713 10.072
20.9865 9.950
21.0017 9.923
21.0169 9.704
21.0320 10.122
21.0472 9.836
21.0624 10.047
21.0776 9.781
21.0927 9.839
21.1079 10.034
21.1231 9.696
21.1383 9.969
21.1534 9.845
21.1686 9.786
21.1838 9.644
21.1990 10.040
21.2141 9.652
21.2293 9.830
21.2445 9.838
21.2597 9.418
21.2748 9.583
21.2900 9.801
21.3052 9.763
21.3204 9.556
21.3355 9.560
21.3507 9.592
21.3659 9.211
21.3811 9.866
21.3962 9.705
21.4114 9.505
21.4266 9.751
21.4418 9.527
21.4569 9.533
21.4721 9.547
21.4873 9.595
21.5025 9.379
21.5176 9.245
21.5328 9.141
21.5480 9.274
21.5632 9.120
21.5783 9.323
21.5935 9.292
21.6087 9.407
21.6239 9.491
21.6390 9.247
21.6542 9.234
21.6694 9.207
21.6846 9.146
21.6997 8.945
21.7149 8.913
21.7301 9.224
21.7453 9.106
21.7604 8.951
21.7756 9.082
21.7908 9.141
21.8060 8.935
21.8211 8.854
21.8363 8.978
21.8515 9.145
21.8667 9.074
21.8818 8.998
21.8970 8.970
21.9122 9.210
21.9274 9.138
21.9425 9.060
21.9577 9.284
21.9729 9.220
21.9881 9.023
22.0032 8.974
22.0184 9.035
22.0336 8.969
22.0488 8.814
22.0639 8.634
22.0791 8.560
22.0943 8.647
22.1095 8.683
22.1246 8.611
22.1398 8.879
22.1550 8.940
22.1702 8.698
22.1853 8.582
22.2005 8.613
22.2157 8.735
22.2309 8.716
22.2460 8.806
22.2612 8.993
22.2764 8.799
22.2916 8.715
22.3067 8.649
22.3219 8.634
22.3371 8.410
22.3523 8.403
22.3674 8.506
22.3826 8.496
22.3978 8.455
22.4130 8.631
22.4281 8.626
22.4433 8.466
22.4585 8.543
22.4737 8.517
22.4888 8.703
22.5040 8.410
22.5192 8.545
22.5344 8.568
22.5495 8.274
22.5647 8.407
22.5799 8.533
22.5951 8.653
22.6102 8.471
22.6254 8.547
22.6406 8.227
22.6558 8.685
22.6709 8.675
22.6861 8.578
22.7013 8.403
22.7165 7.992
22.7316 6.451
