'Id: "" Comment: "" Operator: "Lab Manager" Anode: "Mo" Scantype: "Still (Eiger2R_500K (1D mode))" TimePerStep: "300" X: "11.8" Y: "9.4" Z: "11.284" 
7.2532 19.108
7.2684 18.992
7.2836 19.133
7.2987 19.158
7.3139 19.126
7.3291 19.051
7.3443 19.307
7.3594 19.741
7.3746 19.227
7.3898 19.498
7.4050 19.322
7.4201 19.800
7.4353 19.740
7.4505 19.608
7.4657 19.802
7.4808 20.017
7.4960 20.087
7.5112 19.933
7.5264 19.867
7.5415 19.550
7.5567 19.797
7.5719 20.013
7.5871 20.221
7.6022 20.101
7.6174 19.870
7.6326 20.160
7.6478 20.114
7.6629 20.154
7.6781 20.392
7.6933 20.442
7.7085 20.472
7.7236 20.172
7.7388 20.550
7.7540 20.416
7.7692 20.188
7.7843 20.377
7.7995 20.495
7.8147 20.621
7.8299 20.636
7.8450 20.707
7.8602 20.722
7.8754 20.983
7.8905 20.832
7.9057 20.791
7.9209 20.913
7.9361 20.963
7.9512 21.189
7.9664 21.705
7.9816 21.481
7.9968 21.422
8.0119 21.153
8.0271 20.865
8.0423 21.121
8.0575 21.405
8.0726 21.468
8.0878 21.215
8.1030 21.328
8.1182 21.844
8.1333 21.375
8.1485 21.651
8.1637 21.749
8.1789 21.679
8.1940 21.619
8.2092 21.893
8.2244 21.789
8.2396 21.702
8.2547 21.916
8.2699 21.992
8.2851 22.075
8.3003 21.693
8.3154 21.744
8.3306 21.670
8.3458 22.279
8.3610 22.522
8.3761 21.877
8.3913 22.055
8.4065 22.107
8.4217 21.829
8.4368 22.103
8.4520 22.276
8.4672 22.065
8.4824 21.970
8.4975 22.120
8.5127 21.965
8.5279 22.316
8.5431 22.300
8.5582 22.491
8.5734 22.447
8.5886 22.108
8.6038 22.133
8.6189 22.222
8.6341 22.374
8.6493 22.005
8.6645 22.381
8.6796 22.545
8.6948 22.612
8.7100 22.623
8.7252 22.955
8.7403 22.456
8.7555 22.538
8.7707 22.255
8.7859 22.252
8.8010 22.644
8.8162 22.342
8.8314 22.593
8.8466 22.740
8.8617 22.982
8.8769 22.394
8.8921 22.792
8.9073 22.894
8.9224 22.865
8.9376 22.820
8.9528 22.834
8.9680 22.404
8.9831 22.633
8.9983 22.753
9.0135 22.719
9.0287 22.570
9.0438 22.894
9.0590 23.289
9.0742 23.043
9.0894 22.780
9.1045 22.935
9.1197 23.224
9.1349 23.219
9.1501 23.012
9.1652 22.836
9.1804 23.049
9.1956 23.276
9.2108 22.975
9.2259 22.649
9.2411 22.914
9.2563 23.091
9.2715 23.374
9.2866 23.235
9.3018 23.010
9.3170 23.341
9.3322 22.886
9.3473 23.006
9.3625 23.208
9.3777 22.990
9.3929 22.941
9.4080 23.072
9.4232 23.096
9.4384 22.990
9.4536 22.893
9.4687 23.318
9.4839 23.073
9.4991 23.195
9.5143 23.682
9.5294 23.222
9.5446 23.258
9.5598 23.432
9.5750 23.374
9.5901 23.410
9.6053 23.388
9.6205 23.375
9.6357 23.435
9.6508 23.736
9.6660 23.845
9.6812 23.558
9.6964 23.672
9.7115 24.033
9.7267 24.253
9.7419 24.325
9.7571 24.103
9.7722 24.352
9.7874 24.148
9.8026 23.899
9.8178 23.806
9.8329 23.525
9.8481 23.775
9.8633 23.846
9.8785 23.755
9.8936 23.710
9.9088 23.661
9.9240 23.961
9.9392 24.051
9.9543 23.861
9.9695 24.043
9.9847 24.237
9.9999 24.044
10.0150 23.967
10.0302 23.779
10.0454 23.695
10.0606 23.801
10.0757 23.438
10.0909 23.299
10.1061 23.528
10.1213 23.828
10.1364 23.657
10.1516 23.710
10.1668 23.874
10.1820 23.863
10.1971 24.045
10.2123 24.194
10.2275 24.233
10.2427 24.278
10.2578 24.052
10.2730 23.709
10.2882 23.834
10.3034 23.794
10.3185 23.800
10.3337 23.288
10.3489 22.983
10.3641 23.292
10.3792 23.164
10.3944 23.204
10.4096 23.206
10.4248 23.215
10.4399 23.097
10.4551 22.839
10.4703 22.675
10.4855 22.696
10.5006 22.709
10.5158 22.791
10.5310 23.069
10.5462 23.172
10.5613 22.897
10.5765 22.721
10.5917 22.362
10.6069 22.894
10.6220 22.851
10.6372 22.796
10.6524 22.405
10.6676 22.604
10.6827 22.746
10.6979 22.669
10.7131 22.512
10.7283 22.679
10.7434 22.416
10.7586 22.223
10.7738 22.451
10.7890 22.019
10.8041 22.408
10.8193 22.821
10.8345 22.593
10.8497 22.497
10.8648 22.299
10.8800 22.258
10.8952 21.944
10.9104 22.420
10.9255 22.868
10.9407 22.350
10.9559 22.515
10.9711 22.437
10.9862 22.092
11.0014 22.183
11.0166 21.992
11.0318 22.201
11.0469 22.095
11.0621 21.872
11.0773 21.454
11.0925 21.597
11.1076 21.764
11.1228 21.833
11.1380 21.969
11.1532 22.041
11.1683 22.034
11.1835 21.896
11.1987 21.806
11.2139 21.767
11.2290 22.128
11.2442 21.841
11.2594 22.063
11.2746 21.707
11.2897 21.629
11.3049 21.457
11.3201 21.767
11.3353 21.566
11.3504 21.640
11.3656 21.261
11.3808 21.356
11.3960 21.423
11.4111 21.392
11.4263 21.458
11.4415 21.545
11.4567 21.507
11.4718 21.433
11.4870 21.451
11.5022 21.006
11.5174 20.823
11.5325 20.930
11.5477 21.246
11.5629 21.118
11.5781 21.103
11.5932 20.856
11.6084 20.951
11.6236 20.648
11.6388 20.714
11.6539 20.513
11.6691 20.514
11.6843 20.738
11.6995 20.745
11.7146 20.611
11.7298 20.533
11.7450 20.606
11.7602 20.456
11.7753 20.324
11.7905 20.259
11.8057 20.023
11.8209 19.798
11.8360 19.572
11.8512 19.562
11.8664 20.145
11.8816 20.085
11.8967 19.837
11.9119 19.845
11.9271 19.722
11.9423 19.770
11.9574 19.519
11.9726 19.649
11.9878 19.267
12.0030 19.389
12.0181 19.328
12.0333 19.176
12.0485 19.117
12.0637 19.137
12.0788 18.914
12.0940 18.522
12.1092 18.305
12.1244 18.586
12.1395 18.710
12.1547 18.618
12.1699 18.428
12.1851 18.023
12.2002 18.001
12.2154 18.164
12.2306 18.145
12.2458 17.897
12.2609 18.076
12.2761 17.943
12.2913 17.911
12.3065 17.686
12.3216 17.556
12.3368 17.728
12.3520 17.456
12.3672 17.345
12.3823 17.387
12.3975 17.074
12.4127 17.246
12.4279 17.357
12.4430 17.186
12.4582 17.155
12.4734 16.938
12.4886 16.913
12.5037 16.649
12.5189 16.404
12.5341 16.455
12.5493 16.304
12.5644 16.300
12.5796 16.373
12.5948 15.943
12.6100 15.995
12.6251 16.217
12.6403 16.002
12.6555 16.029
12.6707 15.785
12.6858 15.651
12.7010 15.734
12.7162 15.268
12.7314 15.057
12.7465 15.320
12.7617 15.450
12.7769 15.213
12.7921 15.009
12.8072 15.126
12.8224 15.233
12.8376 15.100
12.8528 14.990
12.8679 14.710
12.8831 14.841
12.8983 14.922
12.9135 14.795
12.9286 14.892
12.9438 14.668
12.9590 14.476
12.9742 14.622
12.9893 14.433
13.0045 14.283
13.0197 14.297
13.0349 14.160
13.0500 13.906
13.0652 13.851
13.0804 13.829
13.0956 13.876
13.1107 13.920
13.1259 13.812
13.1411 13.660
13.1563 13.601
13.1714 13.622
13.1866 13.499
13.2018 13.433
13.2170 13.221
13.2321 13.135
13.2473 13.266
13.2625 13.155
13.2777 13.163
13.2928 13.230
13.3080 13.190
13.3232 13.162
13.3384 13.137
13.3535 13.199
13.3687 13.128
13.3839 13.122
13.3991 12.799
13.4142 12.773
13.4294 13.165
13.4446 12.840
13.4598 12.411
13.4749 12.436
13.4901 12.490
13.5053 12.533
13.5205 12.601
13.5356 12.540
13.5508 12.455
13.5660 12.323
13.5812 12.375
13.5963 12.388
13.6115 12.256
13.6267 12.421
13.6419 12.357
13.6570 12.175
13.6722 12.121
13.6874 12.028
13.7026 12.107
13.7177 11.996
13.7329 11.930
13.7481 12.112
13.7633 11.820
13.7784 11.903
13.7936 12.393
13.8088 12.281
13.8239 12.279
13.8391 12.369
13.8543 12.198
13.8695 12.015
13.8846 12.060
13.8998 11.867
13.9150 11.793
13.9302 11.878
13.9453 11.872
13.9605 11.834
13.9757 11.881
13.9909 11.405
14.0060 11.432
14.0212 11.296
14.0364 11.582
14.0516 11.554
14.0667 11.325
14.0819 11.337
14.0971 11.453
14.1123 11.160
14.1274 11.347
14.1426 11.414
14.1578 11.409
14.1730 11.605
14.1881 11.357
14.2033 11.466
14.2185 11.541
14.2337 11.893
14.2488 11.699
14.2640 11.628
14.2792 11.713
14.2944 11.886
14.3095 11.913
14.3247 11.970
14.3399 12.377
14.3551 12.519
14.3702 12.735
14.3854 13.027
14.4006 13.137
14.4158 13.070
14.4309 13.057
14.4461 13.414
14.4613 13.035
14.4765 13.133
14.4916 13.044
14.5068 12.981
14.5220 13.231
14.5372 12.957
14.5523 12.940
14.5675 12.825
14.5827 12.411
14.5979 12.387
14.6130 12.273
14.6282 12.066
14.6434 11.767
14.6586 11.658
14.6737 11.426
14.6889 11.751
14.7041 11.276
14.7193 11.020
14.7344 11.345
14.7496 11.475
14.7648 11.157
14.7800 11.230
14.7951 11.492
14.8103 11.080
14.8255 11.138
14.8407 10.850
14.8558 10.858
14.8710 10.653
14.8862 10.557
14.9014 10.931
14.9165 11.231
14.9317 10.987
14.9469 10.939
14.9621 10.830
14.9772 10.673
14.9924 10.518
15.0076 10.282
15.0228 10.430
15.0379 10.887
15.0531 10.642
15.0683 10.396
15.0835 10.363
15.0986 10.706
15.1138 10.665
15.1290 10.512
15.1442 10.659
15.1593 10.406
15.1745 10.623
15.1897 10.615
15.2049 10.304
15.2200 10.137
15.2352 10.793
15.2504 10.701
15.2656 10.548
15.2807 10.616
15.2959 10.401
15.3111 10.455
15.3263 10.024
15.3414 10.559
15.3566 10.726
15.3718 10.561
15.3870 10.140
15.4021 10.152
15.4173 10.526
15.4325 10.427
15.4477 10.347
15.4628 10.576
15.4780 10.520
15.4932 10.246
15.5084 10.193
15.5235 10.299
15.5387 10.672
15.5539 10.415
15.5691 10.272
15.5842 9.936
15.5994 9.981
15.6146 10.254
15.6298 10.132
15.6449 10.096
15.6601 10.192
15.6753 10.051
15.6905 10.054
15.7056 10.292
15.7208 9.870
15.7360 10.112
15.7512 9.945
15.7663 10.189
15.7815 9.990
15.7967 10.140
15.8119 9.680
15.8270 9.989
15.8422 9.685
15.8574 9.623
15.8726 9.668
15.8877 9.662
15.9029 9.623
15.9181 9.901
15.9333 9.769
15.9484 9.729
15.9636 9.854
15.9788 9.691
15.9940 9.788
16.0091 9.630
16.0243 9.627
16.0395 9.796
16.0547 10.247
16.0698 10.019
16.0850 9.685
16.1002 9.745
16.1154 9.657
16.1305 9.571
16.1457 9.615
16.1609 9.905
16.1761 9.834
16.1912 9.749
16.2064 9.848
16.2216 9.863
16.2368 9.869
16.2519 9.980
16.2671 10.023
16.2823 9.934
16.2975 10.049
16.3126 10.326
16.3278 10.088
16.3430 9.895
16.3582 9.812
16.3733 10.047
16.3885 10.366
16.4037 10.352
16.4189 10.361
16.4340 10.023
16.4492 9.983
16.4644 10.124
16.4796 10.018
16.4947 10.183
16.5099 10.023
16.5251 9.956
16.5403 9.836
16.5554 9.972
16.5706 9.906
16.5858 9.683
16.6010 9.809
16.6161 9.833
16.6313 9.877
16.6465 9.657
16.6617 9.757
16.6768 9.850
16.6920 10.120
16.7072 10.128
16.7224 10.114
16.7375 10.173
16.7527 10.024
16.7679 10.052
16.7831 10.078
16.7982 9.938
16.8134 10.063
16.8286 9.873
16.8438 9.961
16.8589 9.963
16.8741 9.611
16.8893 9.587
16.9045 9.779
16.9196 10.019
16.9348 10.028
16.9500 9.941
16.9652 9.815
16.9803 9.871
16.9955 9.940
17.0107 9.823
17.0259 10.012
17.0410 10.110
17.0562 9.912
17.0714 10.081
17.0866 10.199
17.1017 10.273
17.1169 10.734
17.1321 10.983
17.1473 11.426
17.1624 12.020
17.1776 12.307
17.1928 12.879
17.2080 13.783
17.2231 14.852
17.2383 16.226
17.2535 17.662
17.2687 18.577
17.2838 18.813
17.2990 17.915
17.3142 16.697
17.3294 16.248
17.3445 16.125
17.3597 15.982
17.3749 15.635
17.3901 15.199
17.4052 14.253
17.4204 13.403
17.4356 12.547
17.4508 11.698
17.4659 11.774
17.4811 11.609
17.4963 11.289
17.5115 11.131
17.5266 10.990
17.5418 11.034
17.5570 10.737
17.5722 10.513
17.5873 10.813
17.6025 10.980
17.6177 10.865
17.6329 10.637
17.6480 10.458
17.6632 10.444
17.6784 10.483
17.6936 10.577
17.7087 10.659
17.7239 10.640
17.7391 10.754
17.7543 11.012
17.7694 11.115
17.7846 11.018
17.7998 11.203
17.8150 11.670
17.8301 11.852
17.8453 11.913
17.8605 11.900
17.8757 11.956
17.8908 11.887
17.9060 11.868
17.9212 11.790
17.9364 11.433
17.9515 11.356
17.9667 11.401
17.9819 11.230
17.9971 10.981
18.0122 10.975
18.0274 10.882
18.0426 10.688
18.0578 10.596
18.0729 10.337
18.0881 10.176
18.1033 10.285
18.1185 10.222
18.1336 9.917
18.1488 10.080
18.1640 10.040
18.1792 9.899
18.1943 9.880
18.2095 9.815
18.2247 9.921
18.2399 10.051
18.2550 10.062
18.2702 9.703
18.2854 9.589
18.3006 9.749
18.3157 9.754
18.3309 9.837
18.3461 10.087
18.3613 10.182
18.3764 10.004
18.3916 9.949
18.4068 10.007
18.4220 9.921
18.4371 9.788
18.4523 9.767
18.4675 9.607
18.4827 9.731
18.4978 9.946
18.5130 9.989
18.5282 9.887
18.5434 9.891
18.5585 9.876
18.5737 9.786
18.5889 9.710
18.6041 9.735
18.6192 9.603
18.6344 9.633
18.6496 9.660
18.6648 9.819
18.6799 9.837
18.6951 9.702
18.7103 9.705
18.7255 9.840
18.7406 9.855
18.7558 10.004
18.7710 9.848
18.7862 9.745
18.8013 9.674
18.8165 9.564
18.8317 9.790
18.8469 9.838
18.8620 9.774
18.8772 9.758
18.8924 9.997
18.9076 10.002
18.9227 9.942
18.9379 10.050
18.9531 10.107
18.9683 10.103
18.9834 10.065
18.9986 10.170
19.0138 10.322
19.0290 10.273
19.0441 10.259
19.0593 10.402
19.0745 10.358
19.0897 10.439
19.1048 10.578
19.1200 10.727
19.1352 10.671
19.1504 10.557
19.1655 10.607
19.1807 10.569
19.1959 10.635
19.2111 10.737
19.2262 10.952
19.2414 10.845
19.2566 10.633
19.2718 10.702
19.2869 10.790
19.3021 10.783
19.3173 10.998
19.3325 11.306
19.3476 11.260
19.3628 11.331
19.3780 11.383
19.3932 11.347
19.4083 11.418
19.4235 11.467
19.4387 11.467
19.4539 11.359
19.4690 11.491
19.4842 11.601
19.4994 11.441
19.5146 11.364
19.5297 11.249
19.5449 11.360
19.5601 11.495
19.5753 11.369
19.5904 11.277
19.6056 11.388
19.6208 11.630
19.6360 11.751
19.6511 11.579
19.6663 11.330
19.6815 11.443
19.6967 11.682
19.7118 11.598
19.7270 11.499
19.7422 11.701
19.7574 11.795
19.7725 11.851
19.7877 11.750
19.8029 11.613
19.8180 11.947
19.8332 12.057
19.8484 11.998
19.8636 12.238
19.8787 12.361
19.8939 12.585
19.9091 12.945
19.9243 13.291
19.9394 13.679
19.9546 14.188
19.9698 14.525
19.9850 14.486
20.0001 14.416
20.0153 14.153
20.0305 14.008
20.0457 13.684
20.0608 13.815
20.0760 13.799
20.0912 13.682
20.1064 13.832
20.1215 13.465
20.1367 13.208
20.1519 12.993
20.1671 13.011
20.1822 12.939
20.1974 12.792
20.2126 12.700
20.2278 12.568
20.2429 12.536
20.2581 12.307
20.2733 12.149
20.2885 11.857
20.3036 11.596
20.3188 11.647
20.3340 11.717
20.3492 11.724
20.3643 11.786
20.3795 11.593
20.3947 11.356
20.4099 10.986
20.4250 11.085
20.4402 10.913
20.4554 11.022
20.4706 10.929
20.4857 10.803
20.5009 10.647
20.5161 10.879
20.5313 10.966
20.5464 10.895
20.5616 10.781
20.5768 10.931
20.5920 10.765
20.6071 10.993
20.6223 10.801
20.6375 10.871
20.6527 10.984
20.6678 10.773
20.6830 10.761
20.6982 10.800
20.7134 10.864
20.7285 10.714
20.7437 10.588
20.7589 10.734
20.7741 10.572
20.7892 10.556
20.8044 10.444
20.8196 10.465
20.8348 10.500
20.8499 10.405
20.8651 10.731
20.8803 10.623
20.8955 10.427
20.9106 10.461
20.9258 10.339
20.9410 10.030
20.9562 10.267
20.9713 10.467
20.9865 10.446
21.0017 10.399
21.0169 10.295
21.0320 10.437
21.0472 10.176
21.0624 10.194
21.0776 10.350
21.0927 9.850
21.1079 9.783
21.1231 10.339
21.1383 9.710
21.1534 10.015
21.1686 9.801
21.1838 9.750
21.1990 9.746
21.2141 10.016
21.2293 9.774
21.2445 9.658
21.2597 9.910
21.2748 9.694
21.2900 9.795
21.3052 9.747
21.3204 9.803
21.3355 9.484
21.3507 9.465
21.3659 9.612
21.3811 9.580
21.3962 9.459
21.4114 9.840
21.4266 9.329
21.4418 9.352
21.4569 9.407
21.4721 9.322
21.4873 9.405
21.5025 9.378
21.5176 9.208
21.5328 9.457
21.5480 9.075
21.5632 9.343
21.5783 9.427
21.5935 9.312
21.6087 9.177
21.6239 8.877
21.6390 9.115
21.6542 9.108
21.6694 9.157
21.6846 9.001
21.6997 8.942
21.7149 9.054
21.7301 8.996
21.7453 8.800
21.7604 9.004
21.7756 8.883
21.7908 8.993
21.8060 8.901
21.8211 8.802
21.8363 8.922
21.8515 8.849
21.8667 9.136
21.8818 9.081
21.8970 9.032
21.9122 9.159
21.9274 9.034
21.9425 8.784
21.9577 8.837
21.9729 8.882
21.9881 8.970
22.0032 8.814
22.0184 8.687
22.0336 8.795
22.0488 8.782
22.0639 8.854
22.0791 8.770
22.0943 8.666
22.1095 8.609
22.1246 8.700
22.1398 8.719
22.1550 8.604
22.1702 8.619
22.1853 8.668
22.2005 8.605
22.2157 8.692
22.2309 8.735
22.2460 8.598
22.2612 8.726
22.2764 8.719
22.2916 8.641
22.3067 8.605
22.3219 8.442
22.3371 8.767
22.3523 8.698
22.3674 8.630
22.3826 8.492
22.3978 8.455
22.4130 8.194
22.4281 8.469
22.4433 8.393
22.4585 8.473
22.4737 8.497
22.4888 8.449
22.5040 8.426
22.5192 8.137
22.5344 8.598
22.5495 8.526
22.5647 8.424
22.5799 8.155
22.5951 8.596
22.6102 8.298
22.6254 8.266
22.6406 8.362
22.6558 8.653
22.6709 8.265
22.6861 8.416
22.7013 8.473
22.7165 7.747
22.7316 6.255
