'Id: "" Comment: "" Operator: "Lab Manager" Anode: "Mo" Scantype: "Still (Eiger2R_500K (1D mode))" TimePerStep: "300" X: "11.8" Y: "9.4" Z: "11.284" 
7.2532 18.477
7.2684 19.299
7.2836 19.362
7.2987 19.041
7.3139 18.888
7.3291 19.141
7.3443 19.600
7.3594 19.106
7.3746 19.274
7.3898 19.381
7.4050 19.191
7.4201 19.542
7.4353 19.376
7.4505 18.874
7.4657 19.610
7.4808 19.363
7.4960 19.576
7.5112 19.396
7.5264 19.584
7.5415 19.769
7.5567 19.831
7.5719 19.816
7.5871 19.687
7.6022 19.688
7.6174 19.771
7.6326 19.899
7.6478 20.119
7.6629 20.524
7.6781 20.495
7.6933 20.532
7.7085 20.341
7.7236 20.205
7.7388 20.288
7.7540 20.535
7.7692 20.449
7.7843 20.752
7.7995 21.008
7.8147 20.741
7.8299 20.670
7.8450 20.528
7.8602 20.555
7.8754 20.819
7.8905 20.947
7.9057 20.660
7.9209 20.713
7.9361 20.881
7.9512 20.811
7.9664 20.792
7.9816 21.073
7.9968 21.242
8.0119 21.072
8.0271 21.029
8.0423 21.008
8.0575 21.271
8.0726 21.092
8.0878 21.160
8.1030 20.975
8.1182 21.350
8.1333 21.348
8.1485 21.443
8.1637 20.941
8.1789 21.565
8.1940 21.432
8.2092 21.701
8.2244 21.502
8.2396 21.434
8.2547 21.782
8.2699 22.004
8.2851 21.569
8.3003 21.786
8.3154 22.024
8.3306 21.464
8.3458 21.987
8.3610 21.936
8.3761 21.742
8.3913 21.320
8.4065 21.916
8.4217 22.018
8.4368 21.954
8.4520 22.282
8.4672 21.917
8.4824 22.254
8.4975 22.093
8.5127 22.281
8.5279 21.738
8.5431 21.993
8.5582 22.053
8.5734 21.677
8.5886 22.288
8.6038 22.272
8.6189 21.882
8.6341 21.903
8.6493 22.261
8.6645 22.391
8.6796 22.088
8.6948 21.935
8.7100 22.140
8.7252 22.217
8.7403 22.654
8.7555 22.261
8.7707 22.327
8.7859 22.367
8.8010 22.452
8.8162 22.633
8.8314 22.696
8.8466 21.976
8.8617 22.197
8.8769 22.286
8.8921 22.464
8.9073 22.415
8.9224 22.257
8.9376 22.877
8.9528 22.521
8.9680 22.514
8.9831 22.538
8.9983 22.566
9.0135 22.334
9.0287 22.635
9.0438 22.621
9.0590 22.304
9.0742 22.406
9.0894 22.845
9.1045 22.867
9.1197 22.623
9.1349 22.697
9.1501 22.870
9.1652 22.749
9.1804 22.707
9.1956 22.656
9.2108 22.711
9.2259 22.775
9.2411 22.912
9.2563 22.660
9.2715 22.709
9.2866 22.724
9.3018 22.874
9.3170 22.836
9.3322 23.173
9.3473 23.082
9.3625 22.883
9.3777 22.997
9.3929 23.244
9.4080 23.691
9.4232 23.446
9.4384 23.095
9.4536 23.280
9.4687 23.254
9.4839 23.022
9.4991 23.014
9.5143 22.965
9.5294 23.296
9.5446 23.640
9.5598 23.254
9.5750 23.375
9.5901 23.326
9.6053 23.204
9.6205 23.422
9.6357 23.378
9.6508 23.496
9.6660 23.872
9.6812 23.661
9.6964 23.560
9.7115 23.793
9.7267 23.928
9.7419 24.255
9.7571 23.866
9.7722 23.671
9.7874 23.719
9.8026 24.081
9.8178 23.983
9.8329 23.409
9.8481 23.130
9.8633 23.284
9.8785 23.588
9.8936 23.371
9.9088 22.929
9.9240 23.062
9.9392 23.347
9.9543 23.372
9.9695 23.639
9.9847 23.574
9.9999 23.120
10.0150 23.308
10.0302 23.341
10.0454 23.142
10.0606 23.047
10.0757 23.452
10.0909 23.523
10.1061 23.059
10.1213 22.897
10.1364 23.068
10.1516 23.468
10.1668 23.382
10.1820 23.326
10.1971 23.151
10.2123 23.246
10.2275 23.156
10.2427 22.947
10.2578 22.823
10.2730 22.800
10.2882 22.981
10.3034 23.115
10.3185 22.886
10.3337 22.941
10.3489 22.911
10.3641 22.805
10.3792 22.721
10.3944 22.977
10.4096 22.960
10.4248 22.740
10.4399 22.731
10.4551 22.644
10.4703 22.563
10.4855 22.637
10.5006 22.590
10.5158 22.688
10.5310 22.234
10.5462 22.574
10.5613 22.876
10.5765 22.375
10.5917 22.462
10.6069 22.418
10.6220 22.652
10.6372 22.828
10.6524 22.885
10.6676 22.658
10.6827 22.186
10.6979 22.659
10.7131 22.682
10.7283 22.400
10.7434 22.235
10.7586 22.315
10.7738 22.466
10.7890 22.291
10.8041 22.410
10.8193 22.702
10.8345 22.533
10.8497 22.446
10.8648 22.367
10.8800 22.445
10.8952 22.562
10.9104 22.233
10.9255 22.083
10.9407 22.379
10.9559 22.327
10.9711 21.818
10.9862 22.305
11.0014 22.427
11.0166 22.148
11.0318 22.208
11.0469 21.685
11.0621 22.026
11.0773 22.060
11.0925 22.022
11.1076 21.919
11.1228 22.096
11.1380 21.985
11.1532 21.675
11.1683 21.396
11.1835 21.614
11.1987 21.732
11.2139 21.654
11.2290 21.792
11.2442 21.551
11.2594 21.461
11.2746 21.439
11.2897 21.418
11.3049 21.445
11.3201 21.476
11.3353 21.739
11.3504 21.748
11.3656 21.657
11.3808 21.629
11.3960 21.194
11.4111 21.171
11.4263 21.238
11.4415 21.252
11.4567 21.052
11.4718 21.272
11.4870 21.208
11.5022 21.369
11.5174 21.288
11.5325 21.458
11.5477 21.134
11.5629 20.962
11.5781 20.856
11.5932 20.783
11.6084 21.273
11.6236 21.420
11.6388 20.938
11.6539 20.566
11.6691 20.585
11.6843 20.647
11.6995 20.369
11.7146 20.602
11.7298 20.499
11.7450 20.170
11.7602 20.326
11.7753 20.151
11.7905 20.145
11.8057 20.031
11.8209 20.118
11.8360 19.925
11.8512 19.631
11.8664 20.120
11.8816 20.058
11.8967 19.753
11.9119 19.574
11.9271 19.540
11.9423 19.339
11.9574 19.490
11.9726 19.432
11.9878 19.710
12.0030 19.525
12.0181 19.026
12.0333 19.006
12.0485 19.186
12.0637 18.878
12.0788 18.871
12.0940 18.882
12.1092 18.975
12.1244 18.980
12.1395 18.634
12.1547 18.793
12.1699 18.886
12.1851 18.657
12.2002 18.403
12.2154 18.408
12.2306 18.165
12.2458 17.871
12.2609 17.901
12.2761 17.892
12.2913 17.663
12.3065 17.618
12.3216 18.065
12.3368 17.953
12.3520 17.500
12.3672 17.180
12.3823 17.350
12.3975 17.186
12.4127 17.105
12.4279 17.348
12.4430 17.121
12.4582 16.858
12.4734 16.695
12.4886 16.765
12.5037 16.814
12.5189 16.607
12.5341 16.400
12.5493 16.568
12.5644 16.543
12.5796 16.308
12.5948 16.306
12.6100 16.390
12.6251 16.192
12.6403 15.788
12.6555 15.551
12.6707 15.440
12.6858 15.806
12.7010 15.919
12.7162 15.649
12.7314 15.553
12.7465 15.390
12.7617 15.359
12.7769 15.294
12.7921 15.408
12.8072 15.440
12.8224 15.100
12.8376 14.975
12.8528 15.036
12.8679 15.071
12.8831 14.889
12.8983 14.546
12.9135 14.526
12.9286 14.718
12.9438 14.575
12.9590 14.322
12.9742 14.340
12.9893 14.419
13.0045 14.366
13.0197 14.359
13.0349 13.965
13.0500 13.799
13.0652 14.050
13.0804 14.133
13.0956 13.950
13.1107 13.989
13.1259 13.909
13.1411 13.638
13.1563 13.686
13.1714 13.784
13.1866 13.639
13.2018 13.556
13.2170 13.476
13.2321 13.239
13.2473 13.381
13.2625 13.388
13.2777 13.347
13.2928 13.171
13.3080 12.968
13.3232 13.276
13.3384 13.547
13.3535 13.374
13.3687 13.067
13.3839 13.041
13.3991 13.151
13.4142 12.981
13.4294 12.843
13.4446 12.876
13.4598 12.928
13.4749 12.929
13.4901 12.689
13.5053 12.666
13.5205 12.622
13.5356 12.401
13.5508 12.339
13.5660 12.293
13.5812 12.215
13.5963 12.374
13.6115 12.363
13.6267 12.305
13.6419 12.108
13.6570 12.227
13.6722 11.953
13.6874 11.933
13.7026 12.094
13.7177 11.990
13.7329 11.990
13.7481 12.250
13.7633 12.146
13.7784 12.101
13.7936 12.274
13.8088 12.370
13.8239 12.393
13.8391 12.476
13.8543 12.382
13.8695 12.291
13.8846 12.328
13.8998 12.207
13.9150 12.335
13.9302 12.218
13.9453 12.041
13.9605 11.950
13.9757 11.483
13.9909 11.767
14.0060 11.953
14.0212 11.652
14.0364 11.671
14.0516 11.412
14.0667 11.523
14.0819 11.516
14.0971 11.642
14.1123 12.060
14.1274 12.052
14.1426 11.633
14.1578 11.593
14.1730 11.602
14.1881 11.826
14.2033 11.683
14.2185 11.625
14.2337 11.695
14.2488 11.754
14.2640 11.869
14.2792 12.199
14.2944 12.086
14.3095 11.963
14.3247 12.368
14.3399 12.479
14.3551 12.801
14.3702 12.957
14.3854 13.036
14.4006 13.108
14.4158 13.380
14.4309 12.931
14.4461 12.625
14.4613 12.749
14.4765 12.546
14.4916 12.267
14.5068 12.248
14.5220 11.763
14.5372 11.813
14.5523 11.235
14.5675 10.969
14.5827 11.301
14.5979 11.101
14.6130 10.895
14.6282 11.050
14.6434 10.776
14.6586 10.809
14.6737 10.832
14.6889 10.785
14.7041 10.673
14.7193 10.954
14.7344 10.705
14.7496 10.768
14.7648 10.746
14.7800 10.586
14.7951 10.491
14.8103 10.781
14.8255 10.728
14.8407 10.234
14.8558 10.240
14.8710 10.583
14.8862 10.686
14.9014 10.469
14.9165 11.112
14.9317 10.750
14.9469 10.634
14.9621 10.511
14.9772 10.167
14.9924 10.168
15.0076 10.162
15.0228 10.165
15.0379 10.333
15.0531 10.207
15.0683 10.084
15.0835 10.265
15.0986 10.314
15.1138 10.305
15.1290 10.426
15.1442 10.195
15.1593 10.455
15.1745 10.546
15.1897 10.093
15.2049 10.364
15.2200 10.419
15.2352 10.193
15.2504 10.229
15.2656 10.202
15.2807 10.256
15.2959 9.979
15.3111 10.102
15.3263 10.109
15.3414 10.015
15.3566 10.234
15.3718 10.047
15.3870 10.000
15.4021 10.255
15.4173 10.397
15.4325 10.465
15.4477 10.210
15.4628 10.176
15.4780 10.072
15.4932 9.976
15.5084 10.217
15.5235 10.072
15.5387 10.053
15.5539 9.934
15.5691 9.880
15.5842 10.018
15.5994 9.867
15.6146 10.027
15.6298 10.165
15.6449 9.803
15.6601 9.850
15.6753 9.845
15.6905 10.185
15.7056 9.897
15.7208 9.892
15.7360 9.804
15.7512 9.742
15.7663 9.726
15.7815 9.745
15.7967 9.876
15.8119 9.737
15.8270 9.980
15.8422 9.712
15.8574 9.626
15.8726 9.850
15.8877 9.831
15.9029 9.534
15.9181 9.498
15.9333 9.296
15.9484 9.434
15.9636 9.819
15.9788 9.744
15.9940 9.516
16.0091 9.700
16.0243 9.765
16.0395 9.559
16.0547 9.690
16.0698 9.869
16.0850 9.652
16.1002 9.999
16.1154 9.894
16.1305 9.934
16.1457 9.752
16.1609 9.672
16.1761 9.652
16.1912 9.716
16.2064 9.557
16.2216 9.929
16.2368 9.725
16.2519 9.651
16.2671 9.437
16.2823 9.950
16.2975 10.018
16.3126 10.036
16.3278 9.711
16.3430 9.810
16.3582 9.852
16.3733 9.932
16.3885 10.080
16.4037 9.858
16.4189 9.558
16.4340 9.718
16.4492 9.663
16.4644 9.853
16.4796 9.809
16.4947 9.673
16.5099 9.778
16.5251 9.725
16.5403 9.703
16.5554 9.924
16.5706 9.914
16.5858 9.543
16.6010 9.673
16.6161 9.476
16.6313 9.406
16.6465 9.482
16.6617 9.542
16.6768 9.656
16.6920 9.616
16.7072 9.757
16.7224 9.627
16.7375 10.171
16.7527 10.083
16.7679 9.861
16.7831 10.012
16.7982 9.807
16.8134 9.798
16.8286 9.827
16.8438 9.731
16.8589 9.567
16.8741 9.804
16.8893 9.806
16.9045 9.614
16.9196 9.629
16.9348 9.799
16.9500 9.789
16.9652 9.718
16.9803 9.711
16.9955 9.725
17.0107 9.868
17.0259 9.989
17.0410 10.083
17.0562 10.146
17.0714 10.027
17.0866 10.201
17.1017 10.410
17.1169 10.469
17.1321 10.883
17.1473 11.335
17.1624 11.858
17.1776 12.378
17.1928 12.814
17.2080 13.935
17.2231 15.115
17.2383 16.372
17.2535 17.864
17.2687 18.608
17.2838 18.742
17.2990 18.227
17.3142 17.104
17.3294 16.347
17.3445 16.239
17.3597 16.102
17.3749 15.904
17.3901 15.324
17.4052 14.220
17.4204 13.228
17.4356 12.679
17.4508 12.097
17.4659 11.657
17.4811 11.798
17.4963 11.655
17.5115 11.384
17.5266 11.295
17.5418 11.052
17.5570 10.909
17.5722 11.065
17.5873 11.251
17.6025 11.452
17.6177 11.415
17.6329 11.265
17.6480 11.384
17.6632 11.457
17.6784 11.542
17.6936 11.617
17.7087 11.435
17.7239 11.247
17.7391 11.187
17.7543 11.250
17.7694 11.196
17.7846 11.028
17.7998 10.755
17.8150 10.622
17.8301 10.550
17.8453 10.143
17.8605 10.153
17.8757 10.520
17.8908 10.263
17.9060 10.170
17.9212 10.243
17.9364 10.031
17.9515 9.926
17.9667 9.986
17.9819 10.259
17.9971 10.239
18.0122 9.960
18.0274 10.123
18.0426 10.323
18.0578 10.225
18.0729 10.072
18.0881 10.160
18.1033 10.039
18.1185 9.863
18.1336 9.914
18.1488 9.993
18.1640 10.025
18.1792 9.986
18.1943 9.890
18.2095 9.861
18.2247 9.658
18.2399 9.658
18.2550 9.871
18.2702 9.699
18.2854 9.687
18.3006 9.683
18.3157 9.751
18.3309 10.078
18.3461 10.037
18.3613 9.860
18.3764 9.909
18.3916 9.700
18.4068 9.823
18.4220 10.098
18.4371 10.008
18.4523 9.993
18.4675 9.896
18.4827 9.739
18.4978 9.749
18.5130 9.633
18.5282 9.530
18.5434 9.881
18.5585 9.995
18.5737 9.769
18.5889 9.494
18.6041 9.591
18.6192 9.864
18.6344 9.691
18.6496 9.703
18.6648 9.930
18.6799 9.849
18.6951 9.764
18.7103 9.774
18.7255 9.857
18.7406 9.911
18.7558 9.933
18.7710 9.824
18.7862 9.744
18.8013 9.719
18.8165 9.629
18.8317 9.710
18.8469 9.763
18.8620 9.870
18.8772 10.170
18.8924 10.167
18.9076 9.949
18.9227 9.913
18.9379 10.240
18.9531 10.119
18.9683 9.883
18.9834 9.913
18.9986 9.998
19.0138 10.188
19.0290 10.385
19.0441 10.127
19.0593 9.990
19.0745 10.213
19.0897 10.182
19.1048 10.296
19.1200 10.558
19.1352 10.576
19.1504 10.548
19.1655 10.442
19.1807 10.696
19.1959 10.581
19.2111 10.460
19.2262 10.681
19.2414 10.763
19.2566 10.765
19.2718 10.919
19.2869 10.986
19.3021 10.780
19.3173 10.641
19.3325 10.880
19.3476 11.055
19.3628 11.159
19.3780 11.255
19.3932 11.179
19.4083 11.018
19.4235 11.086
19.4387 11.142
19.4539 11.226
19.4690 11.237
19.4842 11.206
19.4994 11.366
19.5146 11.285
19.5297 11.337
19.5449 11.508
19.5601 11.658
19.5753 11.827
19.5904 11.582
19.6056 11.639
19.6208 11.904
19.6360 11.906
19.6511 11.994
19.6663 11.785
19.6815 11.730
19.6967 11.752
19.7118 11.702
19.7270 11.732
19.7422 11.731
19.7574 11.922
19.7725 11.866
19.7877 11.714
19.8029 11.867
19.8180 12.195
19.8332 12.305
19.8484 12.197
19.8636 12.334
19.8787 12.428
19.8939 12.693
19.9091 13.208
19.9243 13.380
19.9394 13.462
19.9546 13.960
19.9698 14.441
19.9850 14.392
20.0001 14.182
20.0153 14.158
20.0305 14.164
20.0457 13.921
20.0608 13.511
20.0760 13.717
20.0912 13.865
20.1064 13.737
20.1215 13.430
20.1367 13.332
20.1519 13.143
20.1671 12.774
20.1822 12.774
20.1974 12.657
20.2126 12.708
20.2278 12.873
20.2429 12.605
20.2581 12.452
20.2733 12.423
20.2885 12.022
20.3036 11.987
20.3188 12.091
20.3340 11.996
20.3492 11.915
20.3643 12.087
20.3795 11.967
20.3947 11.899
20.4099 11.742
20.4250 11.743
20.4402 11.868
20.4554 11.651
20.4706 11.733
20.4857 11.961
20.5009 11.697
20.5161 11.446
20.5313 11.447
20.5464 11.258
20.5616 11.060
20.5768 11.197
20.5920 11.012
20.6071 10.855
20.6223 10.859
20.6375 10.950
20.6527 10.728
20.6678 10.996
20.6830 10.715
20.6982 10.585
20.7134 10.614
20.7285 10.355
20.7437 10.456
20.7589 10.284
20.7741 10.412
20.7892 10.358
20.8044 10.116
20.8196 10.109
20.8348 10.081
20.8499 10.264
20.8651 10.320
20.8803 10.402
20.8955 10.347
20.9106 10.134
20.9258 10.392
20.9410 10.091
20.9562 9.975
20.9713 9.920
20.9865 10.095
21.0017 10.009
21.0169 9.778
21.0320 9.972
21.0472 10.067
21.0624 9.968
21.0776 9.875
21.0927 9.992
21.1079 9.985
21.1231 10.052
21.1383 9.706
21.1534 9.663
21.1686 9.567
21.1838 9.718
21.1990 10.005
21.2141 9.570
21.2293 9.419
21.2445 9.573
21.2597 9.619
21.2748 9.647
21.2900 9.821
21.3052 9.889
21.3204 9.634
21.3355 9.409
21.3507 9.698
21.3659 9.198
21.3811 9.465
21.3962 9.493
21.4114 9.521
21.4266 9.669
21.4418 9.611
21.4569 9.509
21.4721 9.323
21.4873 9.525
21.5025 9.498
21.5176 9.074
21.5328 9.397
21.5480 9.339
21.5632 9.280
21.5783 9.341
21.5935 9.281
21.6087 9.228
21.6239 9.423
21.6390 9.428
21.6542 9.189
21.6694 9.412
21.6846 9.222
21.6997 9.356
21.7149 9.337
21.7301 8.996
21.7453 8.910
21.7604 8.972
21.7756 9.086
21.7908 9.056
21.8060 9.029
21.8211 9.025
21.8363 9.082
21.8515 9.082
21.8667 8.937
21.8818 9.124
21.8970 9.268
21.9122 9.028
21.9274 8.901
21.9425 9.128
21.9577 8.984
21.9729 8.781
21.9881 8.884
22.0032 9.127
22.0184 8.894
22.0336 8.765
22.0488 8.751
22.0639 8.839
22.0791 8.812
22.0943 8.691
22.1095 8.635
22.1246 8.740
22.1398 8.514
22.1550 8.496
22.1702 8.583
22.1853 8.656
22.2005 8.726
22.2157 8.744
22.2309 8.547
22.2460 8.504
22.2612 8.833
22.2764 8.743
22.2916 8.593
22.3067 8.451
22.3219 8.421
22.3371 8.492
22.3523 8.487
22.3674 8.368
22.3826 8.492
22.3978 8.478
22.4130 8.353
22.4281 8.349
22.4433 8.376
22.4585 8.331
22.4737 8.282
22.4888 8.405
22.5040 8.550
22.5192 8.465
22.5344 8.581
22.5495 8.480
22.5647 8.466
22.5799 8.258
22.5951 8.161
22.6102 8.174
22.6254 8.450
22.6406 8.408
22.6558 8.400
22.6709 8.270
22.6861 8.234
22.7013 7.904
22.7165 7.750
22.7316 6.291
