'Id: "" Comment: "" Operator: "Lab Manager" Anode: "Mo" Scantype: "Still (Eiger2R_500K (1D mode))" TimePerStep: "300" X: "11.8" Y: "9.4" Z: "11.284" 
7.2532 19.038
7.2684 18.994
7.2836 19.195
7.2987 18.833
7.3139 18.935
7.3291 19.244
7.3443 19.094
7.3594 18.792
7.3746 19.047
7.3898 19.290
7.4050 19.469
7.4201 19.593
7.4353 18.980
7.4505 19.776
7.4657 19.687
7.4808 19.589
7.4960 19.606
7.5112 20.061
7.5264 20.020
7.5415 19.763
7.5567 19.742
7.5719 20.057
7.5871 20.046
7.6022 20.182
7.6174 19.942
7.6326 20.009
7.6478 20.123
7.6629 20.017
7.6781 20.241
7.6933 20.338
7.7085 20.353
7.7236 20.397
7.7388 20.418
7.7540 20.632
7.7692 20.718
7.7843 20.323
7.7995 20.349
7.8147 20.873
7.8299 21.000
7.8450 20.864
7.8602 20.888
7.8754 20.890
7.8905 20.826
7.9057 20.994
7.9209 20.776
7.9361 20.765
7.9512 21.086
7.9664 21.014
7.9816 20.956
7.9968 21.288
8.0119 21.327
8.0271 21.208
8.0423 20.978
8.0575 21.108
8.0726 21.046
8.0878 21.274
8.1030 21.369
8.1182 21.373
8.1333 21.501
8.1485 21.418
8.1637 21.194
8.1789 21.314
8.1940 21.638
8.2092 21.747
8.2244 21.583
8.2396 21.900
8.2547 21.605
8.2699 21.450
8.2851 21.946
8.3003 21.720
8.3154 21.787
8.3306 22.087
8.3458 22.046
8.3610 21.927
8.3761 21.920
8.3913 21.677
8.4065 22.364
8.4217 21.978
8.4368 21.970
8.4520 22.297
8.4672 21.803
8.4824 22.195
8.4975 22.426
8.5127 22.288
8.5279 22.404
8.5431 22.001
8.5582 22.096
8.5734 22.155
8.5886 22.716
8.6038 22.065
8.6189 22.601
8.6341 22.384
8.6493 22.480
8.6645 22.591
8.6796 21.963
8.6948 21.867
8.7100 22.094
8.7252 22.447
8.7403 22.433
8.7555 22.212
8.7707 22.400
8.7859 22.568
8.8010 22.426
8.8162 22.890
8.8314 22.420
8.8466 22.626
8.8617 22.713
8.8769 22.579
8.8921 22.817
8.9073 22.620
8.9224 22.498
8.9376 22.552
8.9528 22.868
8.9680 22.902
8.9831 22.415
8.9983 22.663
9.0135 23.011
9.0287 23.108
9.0438 22.622
9.0590 22.654
9.0742 22.936
9.0894 22.783
9.1045 22.956
9.1197 22.803
9.1349 23.004
9.1501 23.179
9.1652 23.019
9.1804 23.014
9.1956 23.313
9.2108 22.904
9.2259 22.755
9.2411 22.885
9.2563 23.143
9.2715 22.943
9.2866 22.683
9.3018 23.206
9.3170 22.864
9.3322 22.950
9.3473 23.014
9.3625 23.052
9.3777 22.903
9.3929 23.363
9.4080 23.109
9.4232 23.145
9.4384 22.795
9.4536 22.883
9.4687 23.497
9.4839 23.470
9.4991 23.266
9.5143 23.377
9.5294 23.555
9.5446 23.175
9.5598 23.427
9.5750 23.538
9.5901 23.294
9.6053 23.082
9.6205 23.269
9.6357 23.509
9.6508 23.867
9.6660 23.833
9.6812 23.617
9.6964 23.505
9.7115 23.564
9.7267 24.086
9.7419 24.175
9.7571 24.053
9.7722 24.105
9.7874 23.978
9.8026 23.918
9.8178 23.653
9.8329 23.708
9.8481 23.941
9.8633 23.791
9.8785 23.366
9.8936 23.604
9.9088 23.625
9.9240 23.272
9.9392 23.293
9.9543 23.345
9.9695 23.592
9.9847 23.586
9.9999 23.375
10.0150 23.064
10.0302 23.168
10.0454 23.620
10.0606 23.451
10.0757 23.280
10.0909 23.389
10.1061 23.275
10.1213 23.366
10.1364 23.412
10.1516 23.337
10.1668 23.236
10.1820 23.186
10.1971 23.364
10.2123 23.211
10.2275 23.191
10.2427 23.141
10.2578 23.053
10.2730 23.083
10.2882 23.226
10.3034 23.110
10.3185 23.127
10.3337 23.369
10.3489 23.460
10.3641 23.026
10.3792 22.645
10.3944 22.251
10.4096 23.003
10.4248 23.197
10.4399 23.049
10.4551 22.910
10.4703 22.834
10.4855 22.370
10.5006 22.398
10.5158 22.374
10.5310 22.641
10.5462 22.981
10.5613 22.834
10.5765 22.611
10.5917 22.579
10.6069 22.466
10.6220 22.851
10.6372 22.621
10.6524 22.544
10.6676 22.593
10.6827 22.793
10.6979 22.308
10.7131 22.158
10.7283 22.517
10.7434 22.241
10.7586 21.765
10.7738 22.086
10.7890 22.466
10.8041 22.326
10.8193 22.228
10.8345 22.648
10.8497 22.788
10.8648 22.145
10.8800 22.028
10.8952 22.086
10.9104 22.105
10.9255 22.006
10.9407 22.086
10.9559 22.185
10.9711 22.515
10.9862 22.190
11.0014 22.093
11.0166 22.271
11.0318 22.384
11.0469 22.064
11.0621 21.700
11.0773 21.843
11.0925 21.900
11.1076 21.885
11.1228 21.748
11.1380 21.986
11.1532 21.921
11.1683 21.778
11.1835 21.755
11.1987 21.897
11.2139 21.719
11.2290 21.439
11.2442 21.843
11.2594 21.500
11.2746 21.708
11.2897 21.748
11.3049 21.989
11.3201 21.599
11.3353 21.672
11.3504 21.628
11.3656 21.802
11.3808 21.582
11.3960 21.279
11.4111 21.572
11.4263 21.769
11.4415 21.491
11.4567 21.157
11.4718 20.940
11.4870 21.146
11.5022 21.260
11.5174 21.307
11.5325 21.339
11.5477 21.332
11.5629 21.179
11.5781 21.234
11.5932 20.949
11.6084 20.833
11.6236 20.888
11.6388 20.623
11.6539 20.706
11.6691 20.756
11.6843 20.358
11.6995 20.592
11.7146 20.621
11.7298 20.572
11.7450 20.564
11.7602 20.464
11.7753 20.509
11.7905 20.621
11.8057 20.459
11.8209 19.851
11.8360 19.641
11.8512 19.809
11.8664 20.035
11.8816 19.870
11.8967 19.681
11.9119 19.663
11.9271 19.616
11.9423 19.186
11.9574 19.259
11.9726 19.468
11.9878 19.454
12.0030 19.298
12.0181 19.352
12.0333 19.381
12.0485 19.218
12.0637 18.884
12.0788 18.636
12.0940 18.570
12.1092 18.895
12.1244 18.615
12.1395 18.597
12.1547 18.995
12.1699 18.653
12.1851 18.525
12.2002 18.223
12.2154 18.173
12.2306 18.177
12.2458 18.106
12.2609 18.281
12.2761 17.818
12.2913 17.910
12.3065 17.933
12.3216 17.786
12.3368 17.697
12.3520 17.648
12.3672 17.377
12.3823 17.348
12.3975 17.399
12.4127 17.077
12.4279 16.941
12.4430 16.884
12.4582 16.802
12.4734 16.696
12.4886 16.574
12.5037 16.483
12.5189 16.481
12.5341 16.476
12.5493 16.486
12.5644 16.347
12.5796 16.133
12.5948 16.131
12.6100 16.226
12.6251 16.088
12.6403 16.121
12.6555 16.236
12.6707 16.070
12.6858 15.811
12.7010 15.641
12.7162 15.606
12.7314 15.469
12.7465 15.319
12.7617 15.443
12.7769 15.543
12.7921 15.388
12.8072 15.214
12.8224 15.132
12.8376 15.013
12.8528 14.995
12.8679 14.815
12.8831 14.810
12.8983 14.841
12.9135 14.626
12.9286 14.507
12.9438 14.373
12.9590 14.307
12.9742 14.275
12.9893 14.393
13.0045 14.404
13.0197 13.885
13.0349 13.670
13.0500 14.004
13.0652 14.026
13.0804 14.092
13.0956 14.011
13.1107 13.868
13.1259 14.014
13.1411 13.916
13.1563 13.850
13.1714 13.661
13.1866 13.672
13.2018 13.721
13.2170 13.332
13.2321 13.198
13.2473 13.475
13.2625 13.663
13.2777 13.422
13.2928 13.277
13.3080 13.373
13.3232 13.245
13.3384 13.263
13.3535 13.232
13.3687 12.870
13.3839 12.856
13.3991 13.028
13.4142 12.850
13.4294 12.728
13.4446 13.020
13.4598 12.958
13.4749 13.000
13.4901 12.870
13.5053 12.636
13.5205 12.629
13.5356 12.737
13.5508 12.608
13.5660 12.505
13.5812 12.327
13.5963 12.239
13.6115 12.337
13.6267 12.433
13.6419 12.585
13.6570 12.249
13.6722 12.224
13.6874 12.051
13.7026 11.953
13.7177 12.217
13.7329 12.223
13.7481 12.196
13.7633 11.942
13.7784 11.952
13.7936 12.136
13.8088 12.350
13.8239 12.184
13.8391 12.291
13.8543 12.661
13.8695 12.657
13.8846 12.014
13.8998 12.188
13.9150 11.951
13.9302 12.183
13.9453 12.029
13.9605 11.781
13.9757 11.836
13.9909 11.903
14.0060 11.688
14.0212 11.515
14.0364 11.508
14.0516 11.521
14.0667 11.881
14.0819 11.762
14.0971 11.695
14.1123 11.684
14.1274 11.301
14.1426 11.028
14.1578 11.533
14.1730 11.312
14.1881 11.213
14.2033 11.423
14.2185 11.431
14.2337 11.564
14.2488 11.424
14.2640 11.489
14.2792 11.835
14.2944 11.919
14.3095 12.016
14.3247 12.386
14.3399 12.339
14.3551 12.649
14.3702 13.132
14.3854 12.866
14.4006 13.151
14.4158 13.654
14.4309 13.448
14.4461 13.214
14.4613 12.490
14.4765 12.901
14.4916 12.629
14.5068 12.346
14.5220 11.965
14.5372 11.679
14.5523 11.649
14.5675 11.357
14.5827 11.355
14.5979 11.179
14.6130 11.220
14.6282 11.250
14.6434 10.823
14.6586 10.958
14.6737 11.007
14.6889 10.751
14.7041 10.779
14.7193 10.660
14.7344 10.939
14.7496 10.812
14.7648 10.633
14.7800 10.728
14.7951 10.498
14.8103 10.803
14.8255 10.944
14.8407 10.538
14.8558 10.566
14.8710 10.889
14.8862 10.775
14.9014 10.550
14.9165 10.855
14.9317 10.815
14.9469 10.632
14.9621 10.549
14.9772 10.598
14.9924 10.500
15.0076 10.387
15.0228 10.510
15.0379 10.471
15.0531 10.637
15.0683 10.734
15.0835 10.383
15.0986 10.596
15.1138 10.333
15.1290 10.248
15.1442 10.089
15.1593 10.280
15.1745 10.361
15.1897 10.610
15.2049 10.184
15.2200 10.322
15.2352 10.466
15.2504 10.203
15.2656 10.377
15.2807 10.399
15.2959 10.325
15.3111 9.882
15.3263 9.975
15.3414 10.181
15.3566 10.021
15.3718 10.181
15.3870 9.909
15.4021 10.271
15.4173 10.247
15.4325 10.479
15.4477 10.117
15.4628 10.252
15.4780 10.086
15.4932 10.369
15.5084 10.400
15.5235 10.182
15.5387 10.380
15.5539 10.538
15.5691 10.243
15.5842 9.898
15.5994 10.191
15.6146 10.081
15.6298 10.328
15.6449 10.025
15.6601 10.053
15.6753 9.847
15.6905 9.838
15.7056 9.820
15.7208 9.815
15.7360 9.979
15.7512 9.869
15.7663 9.493
15.7815 9.789
15.7967 9.734
15.8119 10.003
15.8270 9.964
15.8422 9.845
15.8574 9.844
15.8726 9.764
15.8877 9.770
15.9029 9.585
15.9181 10.056
15.9333 9.637
15.9484 9.925
15.9636 9.754
15.9788 9.816
15.9940 9.894
16.0091 9.772
16.0243 9.563
16.0395 9.807
16.0547 9.730
16.0698 9.517
16.0850 9.778
16.1002 9.899
16.1154 9.699
16.1305 9.355
16.1457 9.663
16.1609 9.509
16.1761 9.608
16.1912 9.675
16.2064 9.763
16.2216 9.654
16.2368 9.758
16.2519 9.937
16.2671 9.904
16.2823 9.925
16.2975 10.003
16.3126 9.984
16.3278 9.754
16.3430 9.885
16.3582 10.161
16.3733 10.102
16.3885 10.174
16.4037 10.226
16.4189 10.180
16.4340 10.215
16.4492 9.824
16.4644 9.679
16.4796 9.868
16.4947 10.174
16.5099 10.055
16.5251 9.893
16.5403 9.828
16.5554 9.759
16.5706 9.623
16.5858 9.865
16.6010 10.033
16.6161 9.971
16.6313 9.875
16.6465 9.911
16.6617 9.957
16.6768 10.125
16.6920 10.112
16.7072 10.222
16.7224 10.270
16.7375 10.216
16.7527 9.955
16.7679 9.920
16.7831 10.127
16.7982 10.094
16.8134 9.974
16.8286 9.833
16.8438 9.783
16.8589 9.802
16.8741 9.680
16.8893 9.892
16.9045 9.978
16.9196 9.706
16.9348 9.741
16.9500 9.927
16.9652 9.874
16.9803 9.903
16.9955 10.151
17.0107 10.004
17.0259 9.937
17.0410 10.119
17.0562 10.132
17.0714 10.234
17.0866 10.328
17.1017 10.361
17.1169 10.796
17.1321 11.123
17.1473 11.325
17.1624 11.965
17.1776 12.366
17.1928 12.923
17.2080 14.005
17.2231 15.244
17.2383 16.673
17.2535 17.957
17.2687 19.027
17.2838 19.150
17.2990 18.016
17.3142 16.786
17.3294 16.331
17.3445 16.254
17.3597 16.133
17.3749 15.695
17.3901 15.144
17.4052 14.336
17.4204 13.342
17.4356 12.668
17.4508 11.951
17.4659 11.423
17.4811 11.116
17.4963 11.066
17.5115 10.972
17.5266 10.854
17.5418 10.732
17.5570 10.591
17.5722 10.606
17.5873 10.672
17.6025 10.703
17.6177 10.603
17.6329 10.670
17.6480 10.868
17.6632 10.911
17.6784 11.044
17.6936 11.433
17.7087 11.395
17.7239 11.446
17.7391 11.207
17.7543 11.083
17.7694 11.295
17.7846 11.387
17.7998 11.213
17.8150 10.924
17.8301 10.786
17.8453 10.745
17.8605 10.743
17.8757 10.687
17.8908 10.612
17.9060 10.587
17.9212 10.403
17.9364 10.231
17.9515 10.097
17.9667 10.098
17.9819 10.328
17.9971 10.466
18.0122 10.410
18.0274 10.505
18.0426 10.380
18.0578 10.224
18.0729 10.038
18.0881 9.791
18.1033 9.918
18.1185 10.048
18.1336 10.024
18.1488 10.038
18.1640 10.053
18.1792 9.860
18.1943 9.794
18.2095 9.928
18.2247 9.944
18.2399 9.849
18.2550 9.813
18.2702 9.994
18.2854 10.081
18.3006 9.934
18.3157 9.863
18.3309 9.897
18.3461 10.004
18.3613 10.086
18.3764 9.901
18.3916 9.872
18.4068 9.878
18.4220 10.025
18.4371 9.985
18.4523 9.968
18.4675 9.813
18.4827 9.643
18.4978 9.803
18.5130 9.852
18.5282 9.715
18.5434 9.866
18.5585 9.818
18.5737 9.603
18.5889 9.699
18.6041 9.684
18.6192 9.668
18.6344 9.597
18.6496 9.792
18.6648 9.806
18.6799 9.725
18.6951 9.850
18.7103 9.751
18.7255 9.655
18.7406 9.581
18.7558 9.598
18.7710 9.801
18.7862 9.944
18.8013 9.813
18.8165 9.616
18.8317 9.946
18.8469 9.953
18.8620 10.017
18.8772 10.095
18.8924 10.195
18.9076 10.104
18.9227 9.857
18.9379 9.941
18.9531 10.142
18.9683 10.059
18.9834 10.073
18.9986 10.191
19.0138 10.173
19.0290 10.261
19.0441 10.181
19.0593 10.446
19.0745 10.311
19.0897 10.207
19.1048 10.292
19.1200 10.408
19.1352 10.451
19.1504 10.450
19.1655 10.624
19.1807 10.683
19.1959 10.540
19.2111 10.563
19.2262 10.708
19.2414 10.785
19.2566 10.883
19.2718 10.865
19.2869 10.935
19.3021 11.032
19.3173 10.972
19.3325 11.073
19.3476 11.273
19.3628 11.101
19.3780 11.119
19.3932 11.352
19.4083 11.098
19.4235 11.020
19.4387 11.209
19.4539 11.407
19.4690 11.413
19.4842 11.310
19.4994 11.523
19.5146 11.444
19.5297 11.502
19.5449 11.571
19.5601 11.664
19.5753 11.651
19.5904 11.735
19.6056 11.600
19.6208 11.561
19.6360 11.676
19.6511 11.575
19.6663 11.703
19.6815 11.661
19.6967 11.463
19.7118 11.633
19.7270 11.880
19.7422 11.955
19.7574 11.927
19.7725 11.657
19.7877 11.548
19.8029 11.780
19.8180 12.043
19.8332 12.065
19.8484 12.035
19.8636 12.206
19.8787 12.388
19.8939 12.872
19.9091 13.215
19.9243 13.283
19.9394 13.685
19.9546 14.222
19.9698 14.357
19.9850 14.378
20.0001 14.418
20.0153 14.473
20.0305 14.409
20.0457 13.734
20.0608 13.543
20.0760 13.729
20.0912 13.691
20.1064 13.733
20.1215 13.726
20.1367 13.547
20.1519 13.231
20.1671 12.904
20.1822 12.716
20.1974 12.583
20.2126 12.515
20.2278 12.541
20.2429 12.401
20.2581 12.303
20.2733 12.098
20.2885 11.889
20.3036 11.759
20.3188 11.566
20.3340 11.615
20.3492 11.921
20.3643 11.842
20.3795 11.686
20.3947 11.595
20.4099 11.454
20.4250 11.397
20.4402 11.372
20.4554 11.388
20.4706 11.402
20.4857 11.343
20.5009 11.298
20.5161 11.332
20.5313 11.069
20.5464 11.497
20.5616 11.104
20.5768 10.986
20.5920 11.141
20.6071 11.092
20.6223 10.794
20.6375 10.392
20.6527 10.585
20.6678 10.970
20.6830 10.442
20.6982 10.670
20.7134 10.570
20.7285 10.392
20.7437 10.693
20.7589 10.283
20.7741 10.193
20.7892 10.500
20.8044 10.420
20.8196 10.488
20.8348 10.486
20.8499 10.568
20.8651 10.473
20.8803 10.156
20.8955 10.283
20.9106 10.091
20.9258 10.243
20.9410 10.232
20.9562 10.271
20.9713 10.115
20.9865 10.402
21.0017 10.298
21.0169 9.942
21.0320 10.187
21.0472 9.894
21.0624 10.153
21.0776 9.967
21.0927 10.119
21.1079 9.967
21.1231 9.878
21.1383 9.883
21.1534 9.591
21.1686 9.770
21.1838 9.899
21.1990 9.628
21.2141 9.963
21.2293 9.795
21.2445 9.776
21.2597 10.080
21.2748 9.781
21.2900 9.509
21.3052 10.056
21.3204 9.612
21.3355 9.604
21.3507 9.839
21.3659 9.727
21.3811 9.762
21.3962 9.744
21.4114 9.477
21.4266 9.516
21.4418 9.492
21.4569 9.408
21.4721 9.487
21.4873 9.366
21.5025 9.472
21.5176 9.206
21.5328 9.024
21.5480 9.471
21.5632 9.474
21.5783 9.517
21.5935 9.255
21.6087 9.391
21.6239 9.132
21.6390 9.171
21.6542 9.200
21.6694 9.211
21.6846 8.989
21.6997 9.182
21.7149 9.182
21.7301 9.075
21.7453 9.221
21.7604 9.117
21.7756 9.138
21.7908 9.531
21.8060 9.333
21.8211 8.920
21.8363 8.958
21.8515 9.040
21.8667 9.260
21.8818 9.043
21.8970 9.095
21.9122 9.198
21.9274 8.901
21.9425 8.808
21.9577 8.957
21.9729 8.867
21.9881 8.784
22.0032 8.949
22.0184 8.937
22.0336 8.776
22.0488 8.922
22.0639 8.904
22.0791 8.764
22.0943 8.778
22.1095 8.461
22.1246 8.501
22.1398 8.560
22.1550 8.543
22.1702 8.730
22.1853 8.587
22.2005 8.749
22.2157 8.679
22.2309 8.635
22.2460 8.631
22.2612 8.575
22.2764 8.765
22.2916 8.595
22.3067 8.599
22.3219 8.382
22.3371 8.707
22.3523 8.598
22.3674 8.751
22.3826 8.492
22.3978 8.392
22.4130 8.413
22.4281 8.566
22.4433 8.459
22.4585 8.471
22.4737 8.653
22.4888 8.468
22.5040 8.276
22.5192 8.331
22.5344 8.296
22.5495 8.397
22.5647 8.531
22.5799 8.521
22.5951 8.819
22.6102 8.499
22.6254 8.391
22.6406 8.192
22.6558 8.310
22.6709 8.604
22.6861 8.577
22.7013 8.305
22.7165 7.954
22.7316 6.588
