'Id: "" Comment: "" Operator: "Lab Manager" Anode: "Mo" Scantype: "Still (Eiger2R_500K (1D mode))" TimePerStep: "300" X: "11.8" Y: "9.4" Z: "11.284" 
7.2532 19.187
7.2684 19.454
7.2836 19.050
7.2987 18.907
7.3139 19.497
7.3291 19.631
7.3443 19.724
7.3594 19.474
7.3746 20.091
7.3898 20.141
7.4050 20.281
7.4201 19.973
7.4353 19.956
7.4505 19.938
7.4657 19.663
7.4808 20.089
7.4960 19.825
7.5112 19.917
7.5264 20.169
7.5415 19.974
7.5567 20.126
7.5719 20.116
7.5871 20.139
7.6022 20.282
7.6174 20.481
7.6326 20.711
7.6478 20.670
7.6629 20.425
7.6781 20.542
7.6933 20.726
7.7085 20.566
7.7236 20.222
7.7388 20.443
7.7540 21.063
7.7692 20.869
7.7843 20.662
7.7995 20.868
7.8147 21.007
7.8299 20.675
7.8450 20.607
7.8602 20.784
7.8754 20.934
7.8905 20.994
7.9057 21.124
7.9209 21.257
7.9361 21.318
7.9512 20.970
7.9664 20.959
7.9816 21.223
7.9968 21.481
8.0119 21.432
8.0271 21.190
8.0423 21.372
8.0575 21.520
8.0726 21.309
8.0878 21.440
8.1030 21.564
8.1182 21.741
8.1333 21.742
8.1485 21.722
8.1637 21.574
8.1789 21.996
8.1940 21.926
8.2092 22.149
8.2244 21.992
8.2396 22.003
8.2547 22.184
8.2699 21.997
8.2851 21.611
8.3003 22.037
8.3154 22.149
8.3306 22.124
8.3458 22.274
8.3610 22.039
8.3761 22.056
8.3913 21.956
8.4065 21.687
8.4217 21.748
8.4368 21.888
8.4520 22.630
8.4672 22.017
8.4824 22.005
8.4975 22.182
8.5127 22.111
8.5279 22.191
8.5431 21.986
8.5582 22.453
8.5734 22.645
8.5886 22.428
8.6038 22.335
8.6189 22.420
8.6341 22.429
8.6493 22.412
8.6645 22.707
8.6796 22.901
8.6948 22.195
8.7100 22.442
8.7252 22.669
8.7403 23.004
8.7555 22.674
8.7707 22.482
8.7859 22.739
8.8010 22.385
8.8162 22.414
8.8314 22.865
8.8466 22.898
8.8617 23.134
8.8769 22.231
8.8921 22.440
8.9073 22.769
8.9224 22.814
8.9376 22.791
8.9528 23.068
8.9680 23.010
8.9831 22.613
8.9983 22.738
9.0135 22.851
9.0287 23.021
9.0438 23.112
9.0590 23.087
9.0742 23.137
9.0894 23.153
9.1045 23.391
9.1197 22.901
9.1349 23.061
9.1501 23.046
9.1652 23.573
9.1804 23.311
9.1956 23.158
9.2108 22.839
9.2259 22.966
9.2411 23.021
9.2563 23.534
9.2715 23.653
9.2866 23.411
9.3018 23.352
9.3170 23.647
9.3322 23.564
9.3473 23.534
9.3625 23.062
9.3777 23.061
9.3929 23.179
9.4080 23.392
9.4232 23.562
9.4384 23.356
9.4536 23.429
9.4687 23.510
9.4839 23.608
9.4991 23.353
9.5143 23.365
9.5294 23.376
9.5446 23.281
9.5598 23.425
9.5750 23.383
9.5901 23.542
9.6053 23.792
9.6205 23.528
9.6357 23.605
9.6508 23.939
9.6660 23.827
9.6812 24.000
9.6964 24.160
9.7115 24.538
9.7267 24.710
9.7419 24.366
9.7571 24.289
9.7722 24.285
9.7874 24.313
9.8026 24.156
9.8178 24.258
9.8329 24.429
9.8481 24.521
9.8633 24.549
9.8785 24.344
9.8936 24.081
9.9088 24.600
9.9240 24.729
9.9392 24.408
9.9543 24.299
9.9695 24.190
9.9847 24.191
9.9999 23.985
10.0150 23.612
10.0302 23.558
10.0454 23.523
10.0606 23.396
10.0757 23.609
10.0909 23.653
10.1061 23.740
10.1213 24.204
10.1364 24.255
10.1516 24.043
10.1668 23.961
10.1820 24.107
10.1971 24.055
10.2123 24.263
10.2275 24.079
10.2427 23.722
10.2578 23.691
10.2730 23.545
10.2882 23.462
10.3034 23.302
10.3185 23.252
10.3337 23.324
10.3489 23.232
10.3641 23.388
10.3792 23.113
10.3944 23.162
10.4096 23.393
10.4248 23.556
10.4399 23.415
10.4551 22.924
10.4703 22.828
10.4855 23.111
10.5006 23.092
10.5158 23.384
10.5310 23.095
10.5462 23.099
10.5613 22.883
10.5765 22.863
10.5917 23.030
10.6069 23.030
10.6220 23.039
10.6372 22.991
10.6524 22.524
10.6676 22.899
10.6827 22.891
10.6979 22.768
10.7131 22.635
10.7283 22.937
10.7434 22.762
10.7586 22.417
10.7738 22.454
10.7890 22.534
10.8041 22.538
10.8193 22.670
10.8345 22.690
10.8497 22.765
10.8648 22.656
10.8800 22.848
10.8952 22.518
10.9104 22.332
10.9255 22.118
10.9407 22.360
10.9559 22.478
10.9711 22.219
10.9862 22.293
11.0014 22.211
11.0166 22.032
11.0318 22.113
11.0469 21.759
11.0621 21.771
11.0773 21.892
11.0925 21.982
11.1076 22.082
11.1228 22.005
11.1380 21.817
11.1532 21.922
11.1683 22.129
11.1835 22.044
11.1987 22.250
11.2139 22.094
11.2290 21.837
11.2442 21.608
11.2594 21.874
11.2746 21.715
11.2897 21.488
11.3049 21.586
11.3201 21.545
11.3353 21.330
11.3504 21.795
11.3656 21.882
11.3808 21.802
11.3960 21.454
11.4111 21.264
11.4263 21.567
11.4415 21.781
11.4567 21.415
11.4718 21.408
11.4870 21.478
11.5022 21.281
11.5174 21.331
11.5325 21.206
11.5477 21.468
11.5629 21.491
11.5781 21.015
11.5932 21.028
11.6084 21.374
11.6236 21.325
11.6388 21.057
11.6539 20.783
11.6691 21.126
11.6843 20.987
11.6995 20.901
11.7146 20.774
11.7298 20.720
11.7450 20.257
11.7602 20.378
11.7753 20.130
11.7905 20.224
11.8057 20.250
11.8209 19.818
11.8360 19.828
11.8512 20.096
11.8664 20.076
11.8816 20.002
11.8967 19.891
11.9119 20.107
11.9271 19.936
11.9423 19.711
11.9574 19.542
11.9726 19.233
11.9878 19.593
12.0030 19.404
12.0181 19.174
12.0333 19.142
12.0485 19.092
12.0637 19.095
12.0788 18.943
12.0940 18.713
12.1092 18.897
12.1244 18.811
12.1395 18.958
12.1547 18.745
12.1699 18.375
12.1851 18.423
12.2002 18.364
12.2154 18.258
12.2306 18.171
12.2458 18.131
12.2609 18.229
12.2761 18.278
12.2913 18.097
12.3065 17.566
12.3216 17.858
12.3368 17.875
12.3520 17.289
12.3672 17.182
12.3823 17.337
12.3975 17.075
12.4127 16.950
12.4279 17.027
12.4430 17.009
12.4582 17.022
12.4734 17.218
12.4886 16.912
12.5037 16.885
12.5189 16.568
12.5341 16.328
12.5493 16.336
12.5644 16.574
12.5796 16.256
12.5948 15.910
12.6100 15.960
12.6251 15.926
12.6403 15.952
12.6555 16.142
12.6707 15.888
12.6858 15.912
12.7010 15.762
12.7162 15.679
12.7314 15.813
12.7465 15.505
12.7617 15.331
12.7769 15.421
12.7921 15.443
12.8072 15.352
12.8224 15.054
12.8376 15.045
12.8528 15.030
12.8679 15.034
12.8831 14.950
12.8983 14.792
12.9135 14.810
12.9286 14.627
12.9438 14.618
12.9590 14.602
12.9742 14.363
12.9893 14.389
13.0045 14.566
13.0197 14.448
13.0349 14.109
13.0500 14.017
13.0652 14.081
13.0804 14.006
13.0956 13.840
13.1107 13.847
13.1259 13.819
13.1411 13.735
13.1563 13.764
13.1714 13.759
13.1866 13.717
13.2018 13.649
13.2170 13.700
13.2321 13.713
13.2473 13.357
13.2625 13.149
13.2777 13.256
13.2928 13.169
13.3080 13.028
13.3232 13.078
13.3384 13.022
13.3535 12.777
13.3687 13.014
13.3839 13.345
13.3991 13.180
13.4142 13.044
13.4294 13.016
13.4446 12.912
13.4598 12.894
13.4749 12.787
13.4901 12.686
13.5053 12.645
13.5205 12.644
13.5356 12.648
13.5508 12.516
13.5660 12.310
13.5812 12.245
13.5963 12.008
13.6115 12.037
13.6267 12.278
13.6419 12.166
13.6570 12.221
13.6722 12.337
13.6874 12.200
13.7026 12.135
13.7177 12.302
13.7329 12.076
13.7481 12.067
13.7633 11.958
13.7784 11.876
13.7936 11.983
13.8088 12.081
13.8239 11.976
13.8391 12.236
13.8543 12.679
13.8695 12.256
13.8846 11.998
13.8998 12.055
13.9150 12.023
13.9302 11.949
13.9453 11.809
13.9605 11.768
13.9757 11.786
13.9909 11.779
14.0060 11.795
14.0212 11.774
14.0364 11.973
14.0516 11.694
14.0667 11.538
14.0819 11.325
14.0971 11.239
14.1123 11.366
14.1274 11.639
14.1426 11.672
14.1578 11.495
14.1730 11.625
14.1881 11.252
14.2033 11.356
14.2185 11.246
14.2337 11.311
14.2488 11.629
14.2640 11.541
14.2792 11.800
14.2944 11.666
14.3095 11.960
14.3247 11.749
14.3399 11.975
14.3551 12.712
14.3702 12.905
14.3854 13.792
14.4006 14.059
14.4158 14.083
14.4309 14.527
14.4461 14.874
14.4613 14.953
14.4765 14.024
14.4916 13.855
14.5068 13.780
14.5220 13.735
14.5372 13.402
14.5523 12.695
14.5675 11.944
14.5827 11.830
14.5979 11.744
14.6130 11.604
14.6282 11.360
14.6434 11.141
14.6586 10.973
14.6737 11.202
14.6889 11.276
14.7041 10.829
14.7193 11.052
14.7344 11.197
14.7496 11.450
14.7648 11.287
14.7800 11.414
14.7951 11.109
14.8103 11.675
14.8255 11.749
14.8407 11.226
14.8558 11.247
14.8710 11.334
14.8862 10.980
14.9014 10.954
14.9165 11.234
14.9317 11.049
14.9469 10.890
14.9621 10.987
14.9772 10.404
14.9924 10.495
15.0076 10.537
15.0228 10.512
15.0379 11.093
15.0531 10.414
15.0683 10.767
15.0835 10.597
15.0986 10.551
15.1138 10.205
15.1290 10.251
15.1442 10.778
15.1593 10.365
15.1745 10.778
15.1897 10.634
15.2049 10.444
15.2200 10.166
15.2352 10.804
15.2504 10.196
15.2656 10.402
15.2807 10.552
15.2959 10.520
15.3111 10.332
15.3263 10.382
15.3414 10.267
15.3566 10.506
15.3718 10.601
15.3870 10.577
15.4021 10.605
15.4173 10.700
15.4325 10.626
15.4477 10.737
15.4628 10.351
15.4780 10.304
15.4932 10.365
15.5084 10.327
15.5235 10.450
15.5387 10.416
15.5539 10.447
15.5691 10.592
15.5842 10.067
15.5994 10.432
15.6146 10.202
15.6298 10.312
15.6449 9.924
15.6601 10.599
15.6753 10.040
15.6905 10.229
15.7056 10.029
15.7208 10.031
15.7360 10.113
15.7512 10.065
15.7663 10.018
15.7815 9.963
15.7967 9.841
15.8119 9.681
15.8270 9.896
15.8422 9.998
15.8574 10.099
15.8726 10.093
15.8877 9.932
15.9029 9.894
15.9181 9.754
15.9333 9.779
15.9484 9.752
15.9636 9.922
15.9788 9.966
15.9940 9.939
16.0091 10.042
16.0243 10.227
16.0395 9.894
16.0547 9.974
16.0698 10.044
16.0850 9.695
16.1002 9.810
16.1154 9.606
16.1305 9.530
16.1457 9.755
16.1609 9.846
16.1761 9.934
16.1912 10.086
16.2064 9.774
16.2216 9.873
16.2368 9.868
16.2519 9.797
16.2671 9.956
16.2823 10.168
16.2975 10.323
16.3126 10.369
16.3278 10.196
16.3430 9.990
16.3582 10.050
16.3733 10.273
16.3885 10.326
16.4037 10.414
16.4189 10.271
16.4340 10.117
16.4492 10.014
16.4644 9.950
16.4796 10.035
16.4947 10.002
16.5099 9.799
16.5251 10.000
16.5403 10.006
16.5554 9.680
16.5706 9.974
16.5858 10.177
16.6010 9.747
16.6161 9.949
16.6313 10.074
16.6465 10.127
16.6617 9.938
16.6768 9.807
16.6920 9.957
16.7072 10.285
16.7224 10.336
16.7375 10.318
16.7527 10.212
16.7679 9.802
16.7831 9.843
16.7982 10.038
16.8134 10.178
16.8286 10.182
16.8438 9.963
16.8589 10.002
16.8741 10.072
16.8893 10.152
16.9045 10.041
16.9196 9.785
16.9348 9.913
16.9500 10.031
16.9652 9.918
16.9803 9.972
16.9955 10.162
17.0107 10.041
17.0259 9.929
17.0410 10.008
17.0562 10.035
17.0714 10.292
17.0866 10.586
17.1017 10.789
17.1169 10.883
17.1321 11.288
17.1473 11.749
17.1624 12.156
17.1776 12.543
17.1928 13.234
17.2080 14.219
17.2231 15.222
17.2383 16.555
17.2535 17.843
17.2687 18.870
17.2838 19.137
17.2990 18.489
17.3142 17.440
17.3294 16.353
17.3445 16.047
17.3597 16.091
17.3749 16.063
17.3901 15.608
17.4052 14.518
17.4204 13.537
17.4356 12.523
17.4508 11.849
17.4659 11.558
17.4811 11.455
17.4963 11.379
17.5115 10.991
17.5266 10.748
17.5418 10.782
17.5570 10.684
17.5722 10.543
17.5873 10.601
17.6025 10.642
17.6177 10.641
17.6329 10.753
17.6480 11.075
17.6632 11.408
17.6784 11.417
17.6936 11.445
17.7087 11.971
17.7239 12.229
17.7391 12.430
17.7543 12.496
17.7694 12.116
17.7846 12.084
17.7998 12.590
17.8150 12.736
17.8301 12.656
17.8453 12.518
17.8605 12.348
17.8757 12.137
17.8908 12.118
17.9060 12.114
17.9212 12.175
17.9364 11.783
17.9515 11.232
17.9667 11.114
17.9819 10.935
17.9971 10.936
18.0122 10.858
18.0274 10.489
18.0426 10.348
18.0578 10.365
18.0729 10.174
18.0881 10.094
18.1033 10.092
18.1185 10.058
18.1336 10.052
18.1488 10.182
18.1640 10.304
18.1792 10.062
18.1943 10.115
18.2095 10.201
18.2247 10.207
18.2399 10.124
18.2550 10.111
18.2702 10.107
18.2854 10.075
18.3006 9.774
18.3157 9.931
18.3309 10.115
18.3461 9.891
18.3613 9.957
18.3764 10.084
18.3916 9.982
18.4068 10.061
18.4220 10.051
18.4371 10.078
18.4523 9.982
18.4675 10.007
18.4827 9.950
18.4978 9.928
18.5130 9.980
18.5282 9.948
18.5434 10.104
18.5585 10.164
18.5737 10.073
18.5889 9.833
18.6041 9.947
18.6192 9.907
18.6344 10.052
18.6496 10.216
18.6648 10.014
18.6799 9.966
18.6951 9.920
18.7103 10.051
18.7255 9.859
18.7406 9.821
18.7558 9.895
18.7710 9.805
18.7862 9.790
18.8013 9.625
18.8165 9.620
18.8317 9.850
18.8469 10.076
18.8620 10.269
18.8772 10.341
18.8924 10.051
18.9076 9.942
18.9227 9.921
18.9379 9.988
18.9531 10.023
18.9683 10.004
18.9834 10.156
18.9986 10.453
19.0138 10.252
19.0290 10.096
19.0441 10.082
19.0593 10.089
19.0745 10.198
19.0897 10.442
19.1048 10.451
19.1200 10.477
19.1352 10.864
19.1504 10.726
19.1655 10.669
19.1807 10.671
19.1959 10.751
19.2111 10.801
19.2262 11.022
19.2414 11.025
19.2566 10.757
19.2718 10.965
19.2869 10.890
19.3021 10.975
19.3173 11.172
19.3325 11.192
19.3476 11.094
19.3628 10.994
19.3780 11.330
19.3932 11.596
19.4083 11.260
19.4235 11.140
19.4387 11.284
19.4539 11.471
19.4690 11.541
19.4842 11.398
19.4994 11.533
19.5146 11.740
19.5297 11.774
19.5449 11.730
19.5601 11.347
19.5753 11.560
19.5904 11.904
19.6056 11.733
19.6208 11.533
19.6360 11.636
19.6511 11.627
19.6663 11.476
19.6815 11.744
19.6967 11.931
19.7118 11.572
19.7270 11.782
19.7422 11.981
19.7574 11.738
19.7725 11.586
19.7877 11.859
19.8029 12.095
19.8180 11.948
19.8332 11.905
19.8484 12.118
19.8636 12.236
19.8787 12.502
19.8939 13.082
19.9091 13.153
19.9243 13.320
19.9394 13.648
19.9546 14.313
19.9698 14.690
19.9850 14.530
20.0001 14.577
20.0153 14.686
20.0305 14.158
20.0457 13.671
20.0608 13.706
20.0760 13.911
20.0912 13.947
20.1064 14.045
20.1215 13.844
20.1367 13.307
20.1519 13.287
20.1671 13.143
20.1822 12.753
20.1974 12.720
20.2126 12.940
20.2278 13.073
20.2429 12.746
20.2581 12.300
20.2733 12.260
20.2885 12.046
20.3036 11.580
20.3188 11.457
20.3340 11.683
20.3492 11.706
20.3643 11.457
20.3795 11.555
20.3947 11.424
20.4099 11.411
20.4250 11.360
20.4402 11.579
20.4554 11.415
20.4706 11.778
20.4857 12.157
20.5009 12.443
20.5161 12.075
20.5313 11.938
20.5464 11.908
20.5616 11.562
20.5768 11.486
20.5920 11.486
20.6071 11.487
20.6223 11.364
20.6375 11.438
20.6527 11.414
20.6678 10.925
20.6830 10.960
20.6982 10.818
20.7134 10.719
20.7285 10.406
20.7437 10.377
20.7589 10.369
20.7741 10.556
20.7892 10.881
20.8044 10.325
20.8196 10.556
20.8348 10.425
20.8499 10.427
20.8651 10.597
20.8803 10.440
20.8955 10.277
20.9106 10.582
20.9258 10.578
20.9410 10.763
20.9562 10.418
20.9713 10.800
20.9865 10.687
21.0017 10.895
21.0169 10.596
21.0320 10.667
21.0472 10.495
21.0624 10.276
21.0776 10.462
21.0927 10.285
21.1079 10.277
21.1231 10.412
21.1383 10.228
21.1534 10.161
21.1686 10.198
21.1838 9.980
21.1990 9.881
21.2141 9.761
21.2293 9.734
21.2445 9.919
21.2597 10.095
21.2748 10.150
21.2900 9.678
21.3052 9.828
21.3204 9.571
21.3355 9.586
21.3507 9.493
21.3659 9.712
21.3811 9.507
21.3962 9.559
21.4114 9.589
21.4266 9.535
21.4418 9.341
21.4569 9.446
21.4721 9.377
21.4873 9.416
21.5025 9.460
21.5176 9.295
21.5328 9.357
21.5480 9.255
21.5632 9.157
21.5783 9.416
21.5935 9.052
21.6087 9.348
21.6239 8.996
21.6390 9.145
21.6542 9.202
21.6694 9.338
21.6846 9.256
21.6997 9.042
21.7149 9.039
21.7301 8.975
21.7453 9.003
21.7604 9.286
21.7756 9.235
21.7908 9.068
21.8060 8.966
21.8211 8.978
21.8363 9.109
21.8515 9.261
21.8667 9.195
21.8818 8.924
21.8970 8.770
21.9122 8.915
21.9274 9.022
21.9425 8.892
21.9577 8.912
21.9729 8.888
21.9881 8.871
22.0032 8.884
22.0184 8.820
22.0336 8.864
22.0488 8.972
22.0639 8.927
22.0791 8.915
22.0943 8.837
22.1095 8.909
22.1246 8.786
22.1398 8.531
22.1550 8.552
22.1702 8.697
22.1853 8.540
22.2005 8.758
22.2157 8.866
22.2309 8.692
22.2460 8.430
22.2612 8.468
22.2764 8.546
22.2916 8.607
22.3067 8.441
22.3219 8.348
22.3371 8.504
22.3523 8.130
22.3674 8.394
22.3826 8.216
22.3978 8.448
22.4130 8.393
22.4281 8.556
22.4433 8.450
22.4585 8.509
22.4737 8.517
22.4888 8.291
22.5040 8.531
22.5192 8.637
22.5344 8.965
22.5495 8.643
22.5647 8.667
22.5799 8.377
22.5951 8.689
22.6102 8.439
22.6254 8.471
22.6406 8.841
22.6558 8.704
22.6709 8.678
22.6861 8.535
22.7013 8.427
22.7165 7.840
22.7316 6.423
