'Id: "" Comment: "" Operator: "Lab Manager" Anode: "Mo" Scantype: "Still (Eiger2R_500K (1D mode))" TimePerStep: "300" X: "11.8" Y: "9.4" Z: "11.284" 
7.2532 18.875
7.2684 19.063
7.2836 19.186
7.2987 19.457
7.3139 18.816
7.3291 19.248
7.3443 19.317
7.3594 19.452
7.3746 19.393
7.3898 19.532
7.4050 19.491
7.4201 19.442
7.4353 19.795
7.4505 19.212
7.4657 19.564
7.4808 19.969
7.4960 19.871
7.5112 19.675
7.5264 19.869
7.5415 19.984
7.5567 19.858
7.5719 19.900
7.5871 20.327
7.6022 20.307
7.6174 20.214
7.6326 20.362
7.6478 20.314
7.6629 20.317
7.6781 20.195
7.6933 20.294
7.7085 20.244
7.7236 20.543
7.7388 20.903
7.7540 20.566
7.7692 20.692
7.7843 20.549
7.7995 20.682
7.8147 20.860
7.8299 20.451
7.8450 20.602
7.8602 20.674
7.8754 20.646
7.8905 20.898
7.9057 21.267
7.9209 21.414
7.9361 21.003
7.9512 21.052
7.9664 21.111
7.9816 21.386
7.9968 21.055
8.0119 21.101
8.0271 21.057
8.0423 21.085
8.0575 21.434
8.0726 21.538
8.0878 21.369
8.1030 21.275
8.1182 21.762
8.1333 21.835
8.1485 21.973
8.1637 22.109
8.1789 21.636
8.1940 21.694
8.2092 21.525
8.2244 21.297
8.2396 21.550
8.2547 21.444
8.2699 22.108
8.2851 22.524
8.3003 21.693
8.3154 21.756
8.3306 22.118
8.3458 21.733
8.3610 21.755
8.3761 21.948
8.3913 22.247
8.4065 22.131
8.4217 22.306
8.4368 22.367
8.4520 22.303
8.4672 22.139
8.4824 22.332
8.4975 22.426
8.5127 22.632
8.5279 22.195
8.5431 21.924
8.5582 22.012
8.5734 22.067
8.5886 22.714
8.6038 22.749
8.6189 22.398
8.6341 22.806
8.6493 22.825
8.6645 22.681
8.6796 22.755
8.6948 22.760
8.7100 22.199
8.7252 22.429
8.7403 22.613
8.7555 22.516
8.7707 22.747
8.7859 22.558
8.8010 22.773
8.8162 22.608
8.8314 22.807
8.8466 22.681
8.8617 22.763
8.8769 23.045
8.8921 22.684
8.9073 22.759
8.9224 23.002
8.9376 22.894
8.9528 23.071
8.9680 22.436
8.9831 22.837
8.9983 22.962
9.0135 22.628
9.0287 22.927
9.0438 22.903
9.0590 22.615
9.0742 22.807
9.0894 22.773
9.1045 22.815
9.1197 22.916
9.1349 23.032
9.1501 23.029
9.1652 22.638
9.1804 22.865
9.1956 23.170
9.2108 22.859
9.2259 22.786
9.2411 22.724
9.2563 23.017
9.2715 23.135
9.2866 23.222
9.3018 22.853
9.3170 23.077
9.3322 23.066
9.3473 23.281
9.3625 23.251
9.3777 23.248
9.3929 23.208
9.4080 23.157
9.4232 23.264
9.4384 23.430
9.4536 22.818
9.4687 22.769
9.4839 23.252
9.4991 23.536
9.5143 23.478
9.5294 23.303
9.5446 23.117
9.5598 23.142
9.5750 23.303
9.5901 23.550
9.6053 23.331
9.6205 23.260
9.6357 23.425
9.6508 23.754
9.6660 23.896
9.6812 23.818
9.6964 23.881
9.7115 24.025
9.7267 23.948
9.7419 24.176
9.7571 24.223
9.7722 24.384
9.7874 24.390
9.8026 24.045
9.8178 23.989
9.8329 23.645
9.8481 23.536
9.8633 23.791
9.8785 23.789
9.8936 24.001
9.9088 24.173
9.9240 24.245
9.9392 24.064
9.9543 24.080
9.9695 24.141
9.9847 23.747
9.9999 23.506
10.0150 23.093
10.0302 23.088
10.0454 23.303
10.0606 23.282
10.0757 23.126
10.0909 23.235
10.1061 23.262
10.1213 23.211
10.1364 23.153
10.1516 23.288
10.1668 23.299
10.1820 23.208
10.1971 23.127
10.2123 23.200
10.2275 23.395
10.2427 23.205
10.2578 23.222
10.2730 23.481
10.2882 23.488
10.3034 23.105
10.3185 22.851
10.3337 23.123
10.3489 23.071
10.3641 22.849
10.3792 22.655
10.3944 22.882
10.4096 23.256
10.4248 23.011
10.4399 22.926
10.4551 23.134
10.4703 22.782
10.4855 22.819
10.5006 23.089
10.5158 22.838
10.5310 22.843
10.5462 22.792
10.5613 22.442
10.5765 22.284
10.5917 22.818
10.6069 22.800
10.6220 22.603
10.6372 22.647
10.6524 22.876
10.6676 22.873
10.6827 22.648
10.6979 22.333
10.7131 22.477
10.7283 22.671
10.7434 22.745
10.7586 22.515
10.7738 22.211
10.7890 22.270
10.8041 22.685
10.8193 22.298
10.8345 22.343
10.8497 22.488
10.8648 22.244
10.8800 22.148
10.8952 21.999
10.9104 21.921
10.9255 22.123
10.9407 22.518
10.9559 22.164
10.9711 22.273
10.9862 22.230
11.0014 22.145
11.0166 21.762
11.0318 21.977
11.0469 21.791
11.0621 21.724
11.0773 21.751
11.0925 21.612
11.1076 21.557
11.1228 21.999
11.1380 22.054
11.1532 21.938
11.1683 21.927
11.1835 21.733
11.1987 21.437
11.2139 21.680
11.2290 21.732
11.2442 21.622
11.2594 22.016
11.2746 21.992
11.2897 21.829
11.3049 21.862
11.3201 21.340
11.3353 21.630
11.3504 21.523
11.3656 21.613
11.3808 21.373
11.3960 21.449
11.4111 21.455
11.4263 21.515
11.4415 21.369
11.4567 21.174
11.4718 21.444
11.4870 21.323
11.5022 21.169
11.5174 21.252
11.5325 21.273
11.5477 21.107
11.5629 21.381
11.5781 21.158
11.5932 21.248
11.6084 21.135
11.6236 21.088
11.6388 20.955
11.6539 20.997
11.6691 20.799
11.6843 20.925
11.6995 20.474
11.7146 20.177
11.7298 20.429
11.7450 20.408
11.7602 20.649
11.7753 20.682
11.7905 20.171
11.8057 20.370
11.8209 20.173
11.8360 20.353
11.8512 20.377
11.8664 20.033
11.8816 20.173
11.8967 20.196
11.9119 19.748
11.9271 19.873
11.9423 19.664
11.9574 19.551
11.9726 19.238
11.9878 19.403
12.0030 19.301
12.0181 19.042
12.0333 19.268
12.0485 18.961
12.0637 18.525
12.0788 18.610
12.0940 18.775
12.1092 18.857
12.1244 18.622
12.1395 18.883
12.1547 19.051
12.1699 18.923
12.1851 18.557
12.2002 18.315
12.2154 18.239
12.2306 18.131
12.2458 18.045
12.2609 17.886
12.2761 17.966
12.2913 17.869
12.3065 17.857
12.3216 17.805
12.3368 17.782
12.3520 17.670
12.3672 17.520
12.3823 17.401
12.3975 17.350
12.4127 17.129
12.4279 16.756
12.4430 16.696
12.4582 16.948
12.4734 16.708
12.4886 16.620
12.5037 16.959
12.5189 16.790
12.5341 16.277
12.5493 16.522
12.5644 16.845
12.5796 16.719
12.5948 16.387
12.6100 16.059
12.6251 15.920
12.6403 15.739
12.6555 16.082
12.6707 16.087
12.6858 15.889
12.7010 15.520
12.7162 15.383
12.7314 15.521
12.7465 15.619
12.7617 15.468
12.7769 15.393
12.7921 15.488
12.8072 15.360
12.8224 15.374
12.8376 15.327
12.8528 14.968
12.8679 14.978
12.8831 15.141
12.8983 14.907
12.9135 14.724
12.9286 14.475
12.9438 14.330
12.9590 14.541
12.9742 14.655
12.9893 14.609
13.0045 14.321
13.0197 14.077
13.0349 14.135
13.0500 14.134
13.0652 13.956
13.0804 14.085
13.0956 14.141
13.1107 14.166
13.1259 14.094
13.1411 13.771
13.1563 13.921
13.1714 13.852
13.1866 13.542
13.2018 13.557
13.2170 13.524
13.2321 13.609
13.2473 13.424
13.2625 13.182
13.2777 13.163
13.2928 13.056
13.3080 13.236
13.3232 13.309
13.3384 13.312
13.3535 13.199
13.3687 13.163
13.3839 13.415
13.3991 13.428
13.4142 12.963
13.4294 12.669
13.4446 12.887
13.4598 12.934
13.4749 13.084
13.4901 13.110
13.5053 12.870
13.5205 12.901
13.5356 12.664
13.5508 12.299
13.5660 12.312
13.5812 12.116
13.5963 12.152
13.6115 12.587
13.6267 12.364
13.6419 12.403
13.6570 12.433
13.6722 12.195
13.6874 12.195
13.7026 12.165
13.7177 12.016
13.7329 11.980
13.7481 12.266
13.7633 12.355
13.7784 12.109
13.7936 12.150
13.8088 12.424
13.8239 12.585
13.8391 12.442
13.8543 12.488
13.8695 12.604
13.8846 12.477
13.8998 12.319
13.9150 11.976
13.9302 12.175
13.9453 12.160
13.9605 11.880
13.9757 11.754
13.9909 11.932
14.0060 11.713
14.0212 11.317
14.0364 11.643
14.0516 11.758
14.0667 11.434
14.0819 11.477
14.0971 11.473
14.1123 11.472
14.1274 11.260
14.1426 11.171
14.1578 11.213
14.1730 11.324
14.1881 11.391
14.2033 11.678
14.2185 11.530
14.2337 11.648
14.2488 11.668
14.2640 11.417
14.2792 11.179
14.2944 11.718
14.3095 11.628
14.3247 11.812
14.3399 12.062
14.3551 12.100
14.3702 12.402
14.3854 12.720
14.4006 13.122
14.4158 12.902
14.4309 13.170
14.4461 13.019
14.4613 12.816
14.4765 12.606
14.4916 12.427
14.5068 12.110
14.5220 12.088
14.5372 11.750
14.5523 11.574
14.5675 11.459
14.5827 11.427
14.5979 11.259
14.6130 11.033
14.6282 10.903
14.6434 11.156
14.6586 11.026
14.6737 10.927
14.6889 11.397
14.7041 10.885
14.7193 10.912
14.7344 11.125
14.7496 11.099
14.7648 11.014
14.7800 10.984
14.7951 11.130
14.8103 11.299
14.8255 11.175
14.8407 11.192
14.8558 10.693
14.8710 10.943
14.8862 10.843
14.9014 11.094
14.9165 10.977
14.9317 11.065
14.9469 10.676
14.9621 10.757
14.9772 10.615
14.9924 10.784
15.0076 10.449
15.0228 10.746
15.0379 10.738
15.0531 10.777
15.0683 10.550
15.0835 10.406
15.0986 10.522
15.1138 10.406
15.1290 10.160
15.1442 10.368
15.1593 10.712
15.1745 10.608
15.1897 10.384
15.2049 10.464
15.2200 10.426
15.2352 10.121
15.2504 10.405
15.2656 9.880
15.2807 10.537
15.2959 10.258
15.3111 10.623
15.3263 10.220
15.3414 10.397
15.3566 10.433
15.3718 10.249
15.3870 10.148
15.4021 10.175
15.4173 10.320
15.4325 10.436
15.4477 10.777
15.4628 10.373
15.4780 10.300
15.4932 10.270
15.5084 9.972
15.5235 10.432
15.5387 10.371
15.5539 10.181
15.5691 10.159
15.5842 10.083
15.5994 9.887
15.6146 10.006
15.6298 10.104
15.6449 10.124
15.6601 10.209
15.6753 9.808
15.6905 10.013
15.7056 9.878
15.7208 10.188
15.7360 10.249
15.7512 9.982
15.7663 9.623
15.7815 9.900
15.7967 10.288
15.8119 10.249
15.8270 10.148
15.8422 9.834
15.8574 9.874
15.8726 9.942
15.8877 9.849
15.9029 9.802
15.9181 9.953
15.9333 9.801
15.9484 9.527
15.9636 9.794
15.9788 9.754
15.9940 9.736
16.0091 9.669
16.0243 9.687
16.0395 9.462
16.0547 9.865
16.0698 9.677
16.0850 9.814
16.1002 9.935
16.1154 9.879
16.1305 9.883
16.1457 9.954
16.1609 9.919
16.1761 9.902
16.1912 9.908
16.2064 9.862
16.2216 9.655
16.2368 9.843
16.2519 10.036
16.2671 10.331
16.2823 10.125
16.2975 10.083
16.3126 10.079
16.3278 10.027
16.3430 9.966
16.3582 9.891
16.3733 10.084
16.3885 10.385
16.4037 10.238
16.4189 10.166
16.4340 10.049
16.4492 10.175
16.4644 10.132
16.4796 10.005
16.4947 9.848
16.5099 9.866
16.5251 9.976
16.5403 9.854
16.5554 9.844
16.5706 9.918
16.5858 9.725
16.6010 9.926
16.6161 9.810
16.6313 9.766
16.6465 9.740
16.6617 9.767
16.6768 9.957
16.6920 9.997
16.7072 10.044
16.7224 10.000
16.7375 10.143
16.7527 10.039
16.7679 10.061
16.7831 10.004
16.7982 10.126
16.8134 10.276
16.8286 10.296
16.8438 10.098
16.8589 10.012
16.8741 10.040
16.8893 10.186
16.9045 9.969
16.9196 9.636
16.9348 9.662
16.9500 9.855
16.9652 9.945
16.9803 9.808
16.9955 9.992
17.0107 9.895
17.0259 9.865
17.0410 10.126
17.0562 10.283
17.0714 10.342
17.0866 10.384
17.1017 10.664
17.1169 10.943
17.1321 11.089
17.1473 11.461
17.1624 11.916
17.1776 12.341
17.1928 13.176
17.2080 14.370
17.2231 15.463
17.2383 16.682
17.2535 17.672
17.2687 18.585
17.2838 19.045
17.2990 18.222
17.3142 17.056
17.3294 16.427
17.3445 16.174
17.3597 15.956
17.3749 15.924
17.3901 15.545
17.4052 14.374
17.4204 13.279
17.4356 12.513
17.4508 11.913
17.4659 11.552
17.4811 11.229
17.4963 11.069
17.5115 10.891
17.5266 10.671
17.5418 10.508
17.5570 10.136
17.5722 10.106
17.5873 10.294
17.6025 10.222
17.6177 10.096
17.6329 10.058
17.6480 10.232
17.6632 10.332
17.6784 10.403
17.6936 10.462
17.7087 10.479
17.7239 10.578
17.7391 10.473
17.7543 10.506
17.7694 10.833
17.7846 10.929
17.7998 10.865
17.8150 10.934
17.8301 11.101
17.8453 11.149
17.8605 10.942
17.8757 10.829
17.8908 11.024
17.9060 10.986
17.9212 10.653
17.9364 10.842
17.9515 10.845
17.9667 10.511
17.9819 10.400
17.9971 10.261
18.0122 10.250
18.0274 10.407
18.0426 10.342
18.0578 10.378
18.0729 10.218
18.0881 10.174
18.1033 10.236
18.1185 10.224
18.1336 9.894
18.1488 9.976
18.1640 10.006
18.1792 10.054
18.1943 9.997
18.2095 10.056
18.2247 10.147
18.2399 10.109
18.2550 10.089
18.2702 9.993
18.2854 10.089
18.3006 10.000
18.3157 9.810
18.3309 9.687
18.3461 9.600
18.3613 9.794
18.3764 9.970
18.3916 9.962
18.4068 9.988
18.4220 9.810
18.4371 9.709
18.4523 9.890
18.4675 9.950
18.4827 9.936
18.4978 9.569
18.5130 9.546
18.5282 9.926
18.5434 10.001
18.5585 9.818
18.5737 9.570
18.5889 9.563
18.6041 9.671
18.6192 9.557
18.6344 9.727
18.6496 9.742
18.6648 9.825
18.6799 9.899
18.6951 10.028
18.7103 9.975
18.7255 9.882
18.7406 9.686
18.7558 9.678
18.7710 9.879
18.7862 9.823
18.8013 9.742
18.8165 9.830
18.8317 9.959
18.8469 9.877
18.8620 10.029
18.8772 10.039
18.8924 9.768
18.9076 9.924
18.9227 10.080
18.9379 9.982
18.9531 10.252
18.9683 10.422
18.9834 10.212
18.9986 10.398
19.0138 10.396
19.0290 10.252
19.0441 10.318
19.0593 10.184
19.0745 10.096
19.0897 10.191
19.1048 10.468
19.1200 10.463
19.1352 10.390
19.1504 10.534
19.1655 10.569
19.1807 10.631
19.1959 10.869
19.2111 10.796
19.2262 10.948
19.2414 11.022
19.2566 11.023
19.2718 11.151
19.2869 11.152
19.3021 11.134
19.3173 11.108
19.3325 11.101
19.3476 10.983
19.3628 10.890
19.3780 11.126
19.3932 11.362
19.4083 11.272
19.4235 11.324
19.4387 11.570
19.4539 11.546
19.4690 11.589
19.4842 11.426
19.4994 11.322
19.5146 11.545
19.5297 11.622
19.5449 11.482
19.5601 11.482
19.5753 11.657
19.5904 11.648
19.6056 11.723
19.6208 11.733
19.6360 11.781
19.6511 11.779
19.6663 11.985
19.6815 11.910
19.6967 11.641
19.7118 11.584
19.7270 11.532
19.7422 11.770
19.7574 11.902
19.7725 12.034
19.7877 12.252
19.8029 11.997
19.8180 12.039
19.8332 12.267
19.8484 12.302
19.8636 12.583
19.8787 12.843
19.8939 12.958
19.9091 13.329
19.9243 13.478
19.9394 13.776
19.9546 14.295
19.9698 14.476
19.9850 14.701
20.0001 14.507
20.0153 14.377
20.0305 14.207
20.0457 14.015
20.0608 13.968
20.0760 14.046
20.0912 13.889
20.1064 13.386
20.1215 13.150
20.1367 13.086
20.1519 13.060
20.1671 13.070
20.1822 12.847
20.1974 12.649
20.2126 12.577
20.2278 12.603
20.2429 12.548
20.2581 12.390
20.2733 11.922
20.2885 11.690
20.3036 11.687
20.3188 11.768
20.3340 11.640
20.3492 11.718
20.3643 11.454
20.3795 11.147
20.3947 10.857
20.4099 10.833
20.4250 10.977
20.4402 11.004
20.4554 11.000
20.4706 10.957
20.4857 10.783
20.5009 10.771
20.5161 10.743
20.5313 10.767
20.5464 10.632
20.5616 10.695
20.5768 10.601
20.5920 10.615
20.6071 10.619
20.6223 10.342
20.6375 10.455
20.6527 10.341
20.6678 10.447
20.6830 10.356
20.6982 10.435
20.7134 10.398
20.7285 10.401
20.7437 10.586
20.7589 10.611
20.7741 10.406
20.7892 10.599
20.8044 10.610
20.8196 10.436
20.8348 10.122
20.8499 10.298
20.8651 10.243
20.8803 10.388
20.8955 10.237
20.9106 10.595
20.9258 10.444
20.9410 10.433
20.9562 10.572
20.9713 10.663
20.9865 10.410
21.0017 10.272
21.0169 10.566
21.0320 10.322
21.0472 10.412
21.0624 9.964
21.0776 10.328
21.0927 10.175
21.1079 10.104
21.1231 10.397
21.1383 10.364
21.1534 10.254
21.1686 9.751
21.1838 9.922
21.1990 9.914
21.2141 9.604
21.2293 9.392
21.2445 10.074
21.2597 9.687
21.2748 9.698
21.2900 9.642
21.3052 9.429
21.3204 9.641
21.3355 9.448
21.3507 9.828
21.3659 9.409
21.3811 9.567
21.3962 9.551
21.4114 9.593
21.4266 9.734
21.4418 9.370
21.4569 9.576
21.4721 9.363
21.4873 9.219
21.5025 9.553
21.5176 9.510
21.5328 9.557
21.5480 9.152
21.5632 9.090
21.5783 9.265
21.5935 9.271
21.6087 9.184
21.6239 9.220
21.6390 9.083
21.6542 9.278
21.6694 9.238
21.6846 9.224
21.6997 8.957
21.7149 9.096
21.7301 9.120
21.7453 9.175
21.7604 8.919
21.7756 8.931
21.7908 9.065
21.8060 9.057
21.8211 9.096
21.8363 9.032
21.8515 9.016
21.8667 8.935
21.8818 9.099
21.8970 9.041
21.9122 8.969
21.9274 8.950
21.9425 8.849
21.9577 8.771
21.9729 8.985
21.9881 8.934
22.0032 8.692
22.0184 8.808
22.0336 8.814
22.0488 8.911
22.0639 8.815
22.0791 8.730
22.0943 8.805
22.1095 8.872
22.1246 8.555
22.1398 8.424
22.1550 8.629
22.1702 8.870
22.1853 8.697
22.2005 8.650
22.2157 8.682
22.2309 8.769
22.2460 8.735
22.2612 8.735
22.2764 8.712
22.2916 8.707
22.3067 8.597
22.3219 8.419
22.3371 8.458
22.3523 8.416
22.3674 8.515
22.3826 8.539
22.3978 8.478
22.4130 8.571
22.4281 8.847
22.4433 8.462
22.4585 8.231
22.4737 8.498
22.4888 8.336
22.5040 8.418
22.5192 8.575
22.5344 8.561
22.5495 8.507
22.5647 8.486
22.5799 8.316
22.5951 8.155
22.6102 8.716
22.6254 8.450
22.6406 8.439
22.6558 8.109
22.6709 8.365
22.6861 8.360
22.7013 8.474
22.7165 8.281
22.7316 6.613
