'Id: "" Comment: "" Operator: "Lab Manager" Anode: "Mo" Scantype: "Still (Eiger2R_500K (1D mode))" TimePerStep: "300" X: "11.8" Y: "9.4" Z: "11.284" 
7.2532 18.796
7.2684 18.917
7.2836 18.670
7.2987 19.386
7.3139 18.855
7.3291 18.675
7.3443 19.114
7.3594 19.544
7.3746 19.663
7.3898 19.523
7.4050 19.293
7.4201 18.964
7.4353 19.724
7.4505 19.445
7.4657 19.678
7.4808 19.782
7.4960 19.573
7.5112 19.820
7.5264 19.980
7.5415 19.679
7.5567 19.566
7.5719 20.115
7.5871 20.019
7.6022 19.855
7.6174 19.802
7.6326 20.059
7.6478 20.291
7.6629 20.142
7.6781 20.089
7.6933 20.374
7.7085 20.609
7.7236 20.745
7.7388 20.994
7.7540 20.650
7.7692 20.536
7.7843 20.862
7.7995 20.742
7.8147 20.666
7.8299 20.693
7.8450 20.986
7.8602 21.068
7.8754 21.109
7.8905 20.843
7.9057 20.436
7.9209 20.556
7.9361 20.961
7.9512 20.808
7.9664 20.700
7.9816 20.886
7.9968 21.174
8.0119 21.278
8.0271 20.759
8.0423 20.563
8.0575 21.173
8.0726 21.193
8.0878 21.511
8.1030 21.746
8.1182 21.629
8.1333 21.471
8.1485 21.806
8.1637 21.772
8.1789 21.493
8.1940 21.565
8.2092 21.655
8.2244 21.817
8.2396 21.660
8.2547 21.586
8.2699 21.605
8.2851 21.426
8.3003 21.298
8.3154 21.669
8.3306 21.570
8.3458 21.779
8.3610 22.074
8.3761 22.241
8.3913 22.081
8.4065 22.132
8.4217 22.213
8.4368 22.278
8.4520 22.111
8.4672 21.748
8.4824 22.171
8.4975 22.612
8.5127 22.080
8.5279 22.032
8.5431 22.448
8.5582 22.311
8.5734 22.360
8.5886 22.263
8.6038 22.491
8.6189 22.552
8.6341 22.627
8.6493 22.666
8.6645 22.019
8.6796 22.417
8.6948 22.636
8.7100 22.413
8.7252 22.492
8.7403 22.149
8.7555 22.234
8.7707 22.746
8.7859 22.557
8.8010 22.804
8.8162 22.291
8.8314 22.630
8.8466 23.128
8.8617 22.362
8.8769 22.667
8.8921 22.544
8.9073 22.689
8.9224 22.460
8.9376 22.360
8.9528 22.274
8.9680 22.639
8.9831 22.705
8.9983 22.141
9.0135 22.488
9.0287 22.690
9.0438 22.585
9.0590 22.566
9.0742 22.845
9.0894 22.620
9.1045 22.596
9.1197 22.591
9.1349 22.925
9.1501 22.778
9.1652 22.947
9.1804 23.114
9.1956 23.226
9.2108 22.959
9.2259 22.673
9.2411 22.542
9.2563 22.731
9.2715 23.065
9.2866 22.754
9.3018 22.798
9.3170 23.237
9.3322 23.246
9.3473 23.210
9.3625 23.388
9.3777 23.553
9.3929 23.193
9.4080 22.910
9.4232 23.164
9.4384 23.296
9.4536 23.206
9.4687 23.204
9.4839 23.304
9.4991 23.538
9.5143 23.282
9.5294 23.126
9.5446 23.071
9.5598 23.375
9.5750 23.240
9.5901 23.017
9.6053 23.085
9.6205 23.285
9.6357 23.341
9.6508 23.275
9.6660 23.595
9.6812 23.438
9.6964 23.611
9.7115 24.307
9.7267 24.223
9.7419 24.060
9.7571 24.136
9.7722 23.845
9.7874 23.571
9.8026 23.680
9.8178 23.676
9.8329 23.353
9.8481 23.288
9.8633 23.489
9.8785 23.431
9.8936 23.372
9.9088 23.274
9.9240 23.168
9.9392 23.307
9.9543 23.450
9.9695 23.576
9.9847 23.470
9.9999 23.510
10.0150 23.507
10.0302 23.389
10.0454 23.245
10.0606 22.988
10.0757 23.067
10.0909 23.202
10.1061 23.536
10.1213 23.676
10.1364 23.275
10.1516 23.361
10.1668 23.513
10.1820 23.560
10.1971 23.403
10.2123 23.323
10.2275 23.364
10.2427 23.382
10.2578 23.318
10.2730 22.796
10.2882 22.807
10.3034 23.047
10.3185 22.909
10.3337 22.882
10.3489 22.668
10.3641 22.848
10.3792 22.956
10.3944 23.147
10.4096 23.091
10.4248 22.601
10.4399 22.537
10.4551 22.847
10.4703 22.971
10.4855 22.590
10.5006 22.678
10.5158 23.090
10.5310 22.797
10.5462 22.476
10.5613 22.348
10.5765 22.330
10.5917 22.116
10.6069 22.096
10.6220 22.476
10.6372 22.637
10.6524 22.521
10.6676 22.682
10.6827 22.607
10.6979 22.563
10.7131 22.676
10.7283 22.802
10.7434 22.619
10.7586 22.369
10.7738 22.384
10.7890 22.325
10.8041 22.479
10.8193 22.584
10.8345 22.446
10.8497 22.255
10.8648 22.392
10.8800 22.271
10.8952 22.399
10.9104 22.566
10.9255 22.361
10.9407 22.214
10.9559 21.712
10.9711 21.776
10.9862 21.946
11.0014 22.048
11.0166 22.639
11.0318 22.550
11.0469 22.261
11.0621 21.594
11.0773 21.837
11.0925 21.559
11.1076 21.530
11.1228 21.866
11.1380 22.033
11.1532 21.588
11.1683 21.919
11.1835 21.737
11.1987 21.744
11.2139 21.834
11.2290 22.018
11.2442 21.827
11.2594 21.719
11.2746 21.743
11.2897 21.768
11.3049 21.760
11.3201 21.759
11.3353 21.637
11.3504 21.295
11.3656 21.138
11.3808 21.092
11.3960 21.161
11.4111 21.414
11.4263 21.318
11.4415 21.385
11.4567 21.387
11.4718 21.160
11.4870 20.957
11.5022 21.070
11.5174 21.023
11.5325 21.107
11.5477 21.011
11.5629 21.095
11.5781 21.057
11.5932 20.816
11.6084 20.955
11.6236 20.808
11.6388 20.691
11.6539 20.632
11.6691 20.551
11.6843 20.404
11.6995 20.450
11.7146 20.402
11.7298 20.201
11.7450 20.317
11.7602 20.429
11.7753 20.114
11.7905 20.301
11.8057 20.298
11.8209 19.883
11.8360 20.161
11.8512 20.310
11.8664 19.804
11.8816 19.746
11.8967 20.018
11.9119 20.145
11.9271 19.828
11.9423 19.539
11.9574 19.216
11.9726 19.121
11.9878 19.301
12.0030 19.250
12.0181 19.208
12.0333 19.378
12.0485 19.284
12.0637 18.932
12.0788 18.783
12.0940 18.669
12.1092 18.452
12.1244 18.405
12.1395 18.883
12.1547 18.870
12.1699 18.392
12.1851 18.481
12.2002 18.457
12.2154 18.339
12.2306 18.074
12.2458 17.789
12.2609 18.088
12.2761 18.021
12.2913 17.802
12.3065 17.648
12.3216 17.403
12.3368 17.362
12.3520 17.320
12.3672 17.370
12.3823 17.416
12.3975 17.321
12.4127 17.084
12.4279 16.931
12.4430 16.769
12.4582 17.113
12.4734 17.084
12.4886 16.597
12.5037 16.699
12.5189 16.435
12.5341 16.258
12.5493 16.097
12.5644 16.171
12.5796 16.489
12.5948 16.192
12.6100 16.204
12.6251 16.155
12.6403 15.922
12.6555 15.992
12.6707 15.952
12.6858 15.775
12.7010 15.627
12.7162 15.464
12.7314 15.606
12.7465 15.382
12.7617 15.288
12.7769 15.299
12.7921 15.308
12.8072 15.221
12.8224 15.192
12.8376 15.066
12.8528 14.865
12.8679 14.906
12.8831 14.895
12.8983 14.890
12.9135 14.756
12.9286 14.668
12.9438 14.687
12.9590 14.367
12.9742 14.034
12.9893 14.185
13.0045 14.338
13.0197 14.047
13.0349 14.035
13.0500 14.140
13.0652 14.022
13.0804 13.852
13.0956 13.758
13.1107 13.657
13.1259 13.600
13.1411 13.567
13.1563 13.556
13.1714 13.724
13.1866 13.757
13.2018 13.651
13.2170 13.439
13.2321 13.379
13.2473 13.254
13.2625 13.325
13.2777 13.384
13.2928 13.037
13.3080 13.136
13.3232 13.065
13.3384 13.049
13.3535 13.387
13.3687 13.397
13.3839 13.110
13.3991 12.851
13.4142 12.997
13.4294 12.994
13.4446 12.641
13.4598 12.448
13.4749 12.674
13.4901 12.826
13.5053 12.521
13.5205 12.369
13.5356 12.535
13.5508 12.508
13.5660 12.386
13.5812 12.101
13.5963 12.140
13.6115 12.079
13.6267 11.828
13.6419 11.935
13.6570 12.130
13.6722 12.271
13.6874 12.276
13.7026 12.326
13.7177 12.021
13.7329 12.159
13.7481 12.242
13.7633 12.027
13.7784 12.228
13.7936 12.152
13.8088 12.247
13.8239 12.216
13.8391 12.315
13.8543 12.404
13.8695 12.358
13.8846 12.165
13.8998 12.028
13.9150 12.148
13.9302 11.854
13.9453 11.948
13.9605 12.068
13.9757 12.096
13.9909 11.713
14.0060 11.703
14.0212 11.913
14.0364 11.722
14.0516 11.611
14.0667 11.566
14.0819 11.517
14.0971 11.591
14.1123 11.410
14.1274 11.185
14.1426 11.165
14.1578 11.376
14.1730 11.362
14.1881 11.285
14.2033 11.173
14.2185 11.471
14.2337 11.542
14.2488 11.799
14.2640 11.822
14.2792 11.688
14.2944 11.817
14.3095 11.797
14.3247 12.148
14.3399 12.469
14.3551 12.614
14.3702 12.716
14.3854 13.222
14.4006 13.597
14.4158 13.876
14.4309 13.639
14.4461 13.618
14.4613 13.101
14.4765 12.906
14.4916 12.513
14.5068 12.303
14.5220 11.953
14.5372 12.077
14.5523 11.686
14.5675 11.434
14.5827 11.059
14.5979 11.100
14.6130 11.116
14.6282 10.813
14.6434 10.883
14.6586 11.388
14.6737 10.782
14.6889 10.607
14.7041 10.770
14.7193 10.701
14.7344 10.995
14.7496 10.797
14.7648 10.718
14.7800 10.644
14.7951 10.693
14.8103 10.527
14.8255 10.656
14.8407 10.497
14.8558 10.480
14.8710 10.644
14.8862 10.215
14.9014 10.330
14.9165 10.967
14.9317 10.747
14.9469 10.677
14.9621 10.666
14.9772 10.101
14.9924 9.961
15.0076 10.100
15.0228 10.065
15.0379 10.449
15.0531 10.442
15.0683 10.533
15.0835 10.441
15.0986 10.378
15.1138 10.239
15.1290 10.254
15.1442 10.249
15.1593 10.245
15.1745 10.148
15.1897 10.014
15.2049 9.731
15.2200 10.160
15.2352 10.369
15.2504 10.364
15.2656 10.054
15.2807 9.942
15.2959 9.953
15.3111 10.037
15.3263 9.990
15.3414 9.662
15.3566 10.199
15.3718 10.197
15.3870 10.266
15.4021 10.469
15.4173 10.200
15.4325 10.530
15.4477 9.935
15.4628 10.149
15.4780 9.908
15.4932 10.303
15.5084 10.311
15.5235 9.841
15.5387 9.990
15.5539 9.867
15.5691 10.056
15.5842 10.052
15.5994 9.828
15.6146 9.605
15.6298 9.975
15.6449 9.827
15.6601 9.866
15.6753 9.902
15.6905 9.569
15.7056 9.823
15.7208 9.571
15.7360 9.813
15.7512 9.725
15.7663 9.608
15.7815 10.018
15.7967 9.794
15.8119 9.816
15.8270 9.914
15.8422 9.675
15.8574 10.074
15.8726 9.596
15.8877 9.737
15.9029 9.311
15.9181 9.626
15.9333 9.525
15.9484 9.780
15.9636 9.675
15.9788 9.669
15.9940 9.554
16.0091 9.629
16.0243 9.509
16.0395 9.691
16.0547 9.819
16.0698 10.028
16.0850 9.761
16.1002 9.749
16.1154 9.596
16.1305 9.723
16.1457 9.684
16.1609 9.794
16.1761 9.737
16.1912 9.670
16.2064 9.462
16.2216 9.734
16.2368 9.893
16.2519 9.756
16.2671 9.696
16.2823 9.830
16.2975 9.631
16.3126 9.937
16.3278 9.879
16.3430 9.603
16.3582 9.603
16.3733 9.980
16.3885 9.996
16.4037 9.897
16.4189 9.740
16.4340 9.692
16.4492 9.780
16.4644 9.996
16.4796 9.681
16.4947 9.771
16.5099 9.884
16.5251 9.752
16.5403 9.701
16.5554 9.616
16.5706 9.691
16.5858 9.619
16.6010 9.687
16.6161 9.740
16.6313 9.618
16.6465 9.571
16.6617 9.690
16.6768 9.851
16.6920 9.838
16.7072 9.796
16.7224 9.818
16.7375 9.923
16.7527 9.903
16.7679 9.973
16.7831 10.057
16.7982 9.817
16.8134 9.695
16.8286 9.649
16.8438 9.615
16.8589 9.735
16.8741 9.806
16.8893 9.828
16.9045 9.742
16.9196 9.507
16.9348 9.538
16.9500 9.742
16.9652 9.907
16.9803 10.013
16.9955 9.873
17.0107 9.805
17.0259 9.978
17.0410 9.915
17.0562 10.050
17.0714 10.193
17.0866 10.199
17.1017 10.427
17.1169 10.538
17.1321 10.939
17.1473 11.431
17.1624 11.745
17.1776 12.223
17.1928 12.972
17.2080 13.982
17.2231 15.016
17.2383 16.261
17.2535 17.628
17.2687 18.388
17.2838 18.493
17.2990 18.076
17.3142 17.144
17.3294 16.368
17.3445 16.224
17.3597 16.110
17.3749 15.659
17.3901 14.957
17.4052 14.254
17.4204 13.225
17.4356 12.270
17.4508 12.119
17.4659 11.678
17.4811 11.174
17.4963 11.111
17.5115 11.124
17.5266 10.980
17.5418 10.812
17.5570 10.858
17.5722 10.679
17.5873 10.811
17.6025 11.128
17.6177 11.195
17.6329 11.341
17.6480 11.350
17.6632 11.590
17.6784 11.842
17.6936 11.874
17.7087 12.161
17.7239 12.124
17.7391 11.851
17.7543 11.822
17.7694 11.508
17.7846 11.192
17.7998 11.282
17.8150 11.229
17.8301 11.183
17.8453 10.972
17.8605 10.904
17.8757 10.791
17.8908 10.661
17.9060 10.573
17.9212 10.449
17.9364 10.189
17.9515 9.968
17.9667 10.188
17.9819 10.473
17.9971 10.524
18.0122 10.466
18.0274 10.429
18.0426 10.210
18.0578 9.954
18.0729 9.969
18.0881 9.846
18.1033 9.900
18.1185 9.995
18.1336 10.159
18.1488 10.185
18.1640 10.261
18.1792 10.204
18.1943 10.095
18.2095 9.994
18.2247 9.958
18.2399 9.969
18.2550 9.879
18.2702 9.801
18.2854 9.630
18.3006 9.588
18.3157 9.963
18.3309 10.084
18.3461 9.844
18.3613 9.692
18.3764 9.800
18.3916 10.074
18.4068 9.971
18.4220 9.832
18.4371 9.862
18.4523 9.913
18.4675 9.721
18.4827 9.811
18.4978 9.785
18.5130 9.662
18.5282 9.620
18.5434 9.712
18.5585 9.724
18.5737 9.492
18.5889 9.560
18.6041 9.548
18.6192 9.674
18.6344 9.831
18.6496 9.712
18.6648 9.902
18.6799 10.104
18.6951 9.763
18.7103 9.700
18.7255 9.745
18.7406 9.873
18.7558 9.909
18.7710 9.758
18.7862 9.891
18.8013 10.009
18.8165 9.907
18.8317 9.951
18.8469 10.023
18.8620 10.020
18.8772 10.053
18.8924 10.052
18.9076 9.820
18.9227 9.888
18.9379 10.026
18.9531 10.270
18.9683 10.326
18.9834 10.121
18.9986 9.903
19.0138 9.867
19.0290 10.077
19.0441 10.274
19.0593 10.354
19.0745 10.293
19.0897 10.287
19.1048 10.268
19.1200 10.240
19.1352 10.346
19.1504 10.427
19.1655 10.440
19.1807 10.401
19.1959 10.641
19.2111 10.506
19.2262 10.525
19.2414 10.642
19.2566 10.579
19.2718 10.692
19.2869 10.833
19.3021 11.116
19.3173 11.066
19.3325 10.817
19.3476 10.739
19.3628 11.015
19.3780 11.277
19.3932 11.423
19.4083 11.108
19.4235 11.078
19.4387 11.120
19.4539 11.129
19.4690 11.175
19.4842 11.234
19.4994 11.507
19.5146 11.471
19.5297 11.383
19.5449 11.726
19.5601 11.411
19.5753 11.216
19.5904 11.620
19.6056 11.656
19.6208 11.847
19.6360 11.725
19.6511 11.737
19.6663 11.785
19.6815 11.558
19.6967 11.690
19.7118 11.698
19.7270 11.424
19.7422 11.721
19.7574 11.770
19.7725 11.463
19.7877 11.555
19.8029 11.817
19.8180 11.773
19.8332 11.761
19.8484 12.033
19.8636 12.607
19.8787 12.754
19.8939 12.845
19.9091 13.150
19.9243 13.266
19.9394 13.547
19.9546 14.010
19.9698 14.141
19.9850 14.243
20.0001 14.328
20.0153 13.928
20.0305 13.959
20.0457 13.996
20.0608 13.855
20.0760 13.823
20.0912 13.668
20.1064 13.448
20.1215 13.456
20.1367 13.094
20.1519 12.794
20.1671 12.994
20.1822 12.731
20.1974 12.563
20.2126 12.711
20.2278 12.658
20.2429 12.494
20.2581 12.314
20.2733 12.236
20.2885 11.877
20.3036 11.632
20.3188 11.902
20.3340 11.824
20.3492 11.967
20.3643 11.965
20.3795 11.808
20.3947 11.626
20.4099 11.625
20.4250 11.610
20.4402 11.890
20.4554 12.372
20.4706 12.486
20.4857 12.275
20.5009 12.226
20.5161 12.001
20.5313 11.664
20.5464 11.545
20.5616 11.447
20.5768 11.435
20.5920 11.323
20.6071 11.378
20.6223 11.451
20.6375 11.371
20.6527 11.238
20.6678 10.539
20.6830 10.726
20.6982 10.834
20.7134 10.640
20.7285 10.714
20.7437 10.824
20.7589 10.562
20.7741 10.347
20.7892 10.533
20.8044 10.725
20.8196 10.282
20.8348 10.495
20.8499 10.238
20.8651 10.534
20.8803 10.240
20.8955 10.420
20.9106 10.295
20.9258 10.269
20.9410 10.038
20.9562 10.132
20.9713 10.116
20.9865 9.852
21.0017 10.072
21.0169 9.957
21.0320 9.966
21.0472 10.086
21.0624 9.962
21.0776 9.763
21.0927 9.822
21.1079 9.907
21.1231 9.924
21.1383 10.051
21.1534 9.859
21.1686 9.917
21.1838 9.957
21.1990 9.686
21.2141 9.759
21.2293 9.468
21.2445 9.415
21.2597 9.471
21.2748 9.413
21.2900 9.978
21.3052 9.460
21.3204 9.479
21.3355 9.367
21.3507 9.182
21.3659 9.524
21.3811 9.785
21.3962 9.527
21.4114 9.523
21.4266 9.544
21.4418 9.196
21.4569 9.443
21.4721 9.186
21.4873 9.152
21.5025 8.984
21.5176 9.375
21.5328 9.279
21.5480 9.465
21.5632 9.597
21.5783 9.346
21.5935 9.236
21.6087 9.368
21.6239 9.195
21.6390 9.283
21.6542 9.094
21.6694 9.100
21.6846 9.105
21.6997 9.115
21.7149 9.023
21.7301 9.157
21.7453 8.833
21.7604 8.955
21.7756 9.167
21.7908 9.220
21.8060 9.029
21.8211 9.065
21.8363 9.050
21.8515 9.136
21.8667 9.055
21.8818 9.011
21.8970 9.215
21.9122 9.066
21.9274 9.025
21.9425 9.085
21.9577 9.144
21.9729 9.155
21.9881 9.150
22.0032 8.985
22.0184 8.876
22.0336 8.716
22.0488 8.584
22.0639 8.696
22.0791 8.706
22.0943 8.744
22.1095 8.878
22.1246 8.721
22.1398 8.576
22.1550 8.597
22.1702 8.599
22.1853 8.775
22.2005 8.493
22.2157 8.560
22.2309 8.548
22.2460 8.429
22.2612 8.423
22.2764 8.764
22.2916 8.515
22.3067 8.460
22.3219 8.460
22.3371 8.399
22.3523 8.284
22.3674 8.575
22.3826 8.652
22.3978 8.827
22.4130 8.496
22.4281 8.277
22.4433 8.525
22.4585 8.503
22.4737 8.418
22.4888 8.406
22.5040 8.445
22.5192 8.295
22.5344 8.619
22.5495 8.601
22.5647 8.605
22.5799 8.506
22.5951 8.529
22.6102 8.364
22.6254 8.462
22.6406 8.345
22.6558 8.405
22.6709 8.562
22.6861 8.261
22.7013 8.006
22.7165 8.019
22.7316 6.226
