'Id: "" Comment: "" Operator: "Lab Manager" Anode: "Mo" Scantype: "Still (Eiger2R_500K (1D mode))" TimePerStep: "300" X: "11.8" Y: "9.4" Z: "11.284" 
7.2532 18.620
7.2684 18.220
7.2836 18.624
7.2987 18.704
7.3139 18.852
7.3291 19.182
7.3443 19.100
7.3594 18.835
7.3746 18.888
7.3898 19.191
7.4050 19.242
7.4201 19.235
7.4353 19.068
7.4505 19.364
7.4657 19.525
7.4808 19.333
7.4960 19.322
7.5112 19.159
7.5264 19.589
7.5415 19.712
7.5567 19.638
7.5719 19.613
7.5871 19.602
7.6022 19.678
7.6174 19.989
7.6326 19.959
7.6478 19.629
7.6629 20.103
7.6781 20.303
7.6933 20.423
7.7085 20.583
7.7236 20.301
7.7388 20.286
7.7540 20.195
7.7692 20.302
7.7843 20.568
7.7995 20.519
7.8147 20.649
7.8299 20.724
7.8450 20.494
7.8602 20.563
7.8754 20.698
7.8905 21.035
7.9057 21.064
7.9209 20.858
7.9361 20.802
7.9512 20.740
7.9664 20.683
7.9816 20.991
7.9968 20.876
8.0119 21.116
8.0271 21.208
8.0423 21.406
8.0575 21.445
8.0726 21.342
8.0878 20.981
8.1030 20.874
8.1182 21.036
8.1333 21.212
8.1485 21.232
8.1637 21.370
8.1789 21.621
8.1940 21.666
8.2092 21.635
8.2244 21.401
8.2396 21.191
8.2547 21.331
8.2699 21.177
8.2851 21.473
8.3003 21.386
8.3154 21.830
8.3306 21.682
8.3458 21.699
8.3610 22.269
8.3761 21.471
8.3913 21.097
8.4065 21.866
8.4217 21.881
8.4368 21.996
8.4520 22.360
8.4672 21.939
8.4824 22.035
8.4975 21.642
8.5127 22.121
8.5279 21.622
8.5431 22.204
8.5582 21.919
8.5734 21.925
8.5886 22.159
8.6038 21.594
8.6189 22.037
8.6341 22.133
8.6493 22.731
8.6645 22.125
8.6796 22.034
8.6948 22.119
8.7100 22.375
8.7252 22.398
8.7403 22.313
8.7555 22.176
8.7707 22.296
8.7859 22.104
8.8010 22.194
8.8162 22.749
8.8314 22.319
8.8466 22.748
8.8617 22.098
8.8769 22.433
8.8921 22.570
8.9073 22.491
8.9224 22.304
8.9376 22.787
8.9528 22.837
8.9680 22.288
8.9831 22.454
8.9983 22.638
9.0135 22.842
9.0287 22.580
9.0438 22.365
9.0590 22.349
9.0742 22.377
9.0894 22.699
9.1045 22.364
9.1197 22.486
9.1349 22.960
9.1501 22.946
9.1652 22.626
9.1804 22.508
9.1956 22.325
9.2108 22.534
9.2259 22.738
9.2411 22.897
9.2563 22.763
9.2715 22.979
9.2866 22.983
9.3018 22.839
9.3170 22.611
9.3322 22.767
9.3473 22.975
9.3625 23.181
9.3777 23.031
9.3929 22.888
9.4080 23.002
9.4232 23.071
9.4384 22.808
9.4536 23.040
9.4687 23.347
9.4839 22.778
9.4991 22.779
9.5143 23.466
9.5294 23.443
9.5446 23.171
9.5598 23.222
9.5750 23.244
9.5901 23.096
9.6053 23.088
9.6205 23.459
9.6357 23.448
9.6508 23.487
9.6660 23.664
9.6812 23.888
9.6964 24.049
9.7115 23.880
9.7267 23.853
9.7419 24.012
9.7571 23.993
9.7722 23.655
9.7874 23.390
9.8026 23.526
9.8178 23.462
9.8329 23.426
9.8481 23.169
9.8633 22.900
9.8785 23.088
9.8936 23.023
9.9088 23.079
9.9240 23.131
9.9392 22.933
9.9543 23.020
9.9695 23.277
9.9847 23.117
9.9999 23.144
10.0150 23.213
10.0302 23.165
10.0454 23.260
10.0606 23.033
10.0757 23.319
10.0909 23.175
10.1061 22.917
10.1213 23.091
10.1364 23.600
10.1516 23.577
10.1668 23.429
10.1820 23.628
10.1971 23.596
10.2123 23.282
10.2275 22.999
10.2427 22.923
10.2578 22.828
10.2730 22.945
10.2882 22.704
10.3034 22.532
10.3185 22.816
10.3337 23.044
10.3489 22.838
10.3641 22.479
10.3792 22.340
10.3944 22.494
10.4096 22.556
10.4248 22.563
10.4399 22.627
10.4551 22.528
10.4703 22.545
10.4855 22.436
10.5006 22.644
10.5158 22.469
10.5310 22.306
10.5462 22.597
10.5613 22.477
10.5765 22.172
10.5917 22.172
10.6069 22.201
10.6220 22.746
10.6372 22.862
10.6524 23.013
10.6676 23.020
10.6827 22.912
10.6979 22.573
10.7131 22.098
10.7283 22.082
10.7434 22.144
10.7586 22.353
10.7738 22.375
10.7890 22.529
10.8041 21.954
10.8193 21.811
10.8345 21.997
10.8497 22.354
10.8648 22.267
10.8800 22.056
10.8952 22.221
10.9104 22.501
10.9255 22.258
10.9407 22.110
10.9559 22.067
10.9711 22.143
10.9862 21.894
11.0014 21.465
11.0166 21.866
11.0318 22.254
11.0469 22.025
11.0621 21.988
11.0773 21.558
11.0925 21.594
11.1076 21.693
11.1228 21.886
11.1380 21.728
11.1532 21.601
11.1683 21.480
11.1835 21.596
11.1987 22.116
11.2139 21.915
11.2290 21.516
11.2442 21.634
11.2594 21.511
11.2746 21.549
11.2897 21.358
11.3049 21.210
11.3201 21.135
11.3353 21.282
11.3504 21.472
11.3656 21.376
11.3808 21.221
11.3960 20.931
11.4111 21.058
11.4263 20.972
11.4415 21.075
11.4567 21.133
11.4718 21.253
11.4870 21.208
11.5022 21.175
11.5174 20.899
11.5325 21.004
11.5477 21.068
11.5629 20.731
11.5781 20.933
11.5932 20.807
11.6084 20.879
11.6236 20.530
11.6388 20.743
11.6539 20.633
11.6691 20.441
11.6843 20.231
11.6995 20.499
11.7146 20.509
11.7298 20.210
11.7450 20.048
11.7602 20.418
11.7753 20.329
11.7905 20.340
11.8057 20.344
11.8209 20.397
11.8360 20.022
11.8512 20.134
11.8664 20.089
11.8816 20.138
11.8967 19.763
11.9119 19.559
11.9271 19.757
11.9423 19.725
11.9574 19.430
11.9726 19.549
11.9878 19.180
12.0030 19.225
12.0181 19.168
12.0333 18.722
12.0485 19.261
12.0637 19.210
12.0788 18.925
12.0940 18.783
12.1092 18.498
12.1244 18.561
12.1395 18.489
12.1547 18.350
12.1699 18.294
12.1851 18.130
12.2002 18.034
12.2154 18.395
12.2306 18.590
12.2458 18.053
12.2609 17.733
12.2761 17.848
12.2913 17.770
12.3065 17.563
12.3216 17.361
12.3368 17.342
12.3520 17.240
12.3672 17.548
12.3823 17.605
12.3975 17.379
12.4127 17.187
12.4279 16.991
12.4430 17.056
12.4582 16.879
12.4734 16.747
12.4886 16.617
12.5037 16.364
12.5189 16.299
12.5341 16.455
12.5493 16.519
12.5644 16.281
12.5796 16.239
12.5948 16.255
12.6100 16.174
12.6251 15.662
12.6403 15.703
12.6555 15.639
12.6707 15.512
12.6858 15.635
12.7010 15.670
12.7162 15.476
12.7314 15.148
12.7465 15.204
12.7617 15.450
12.7769 15.451
12.7921 15.125
12.8072 14.770
12.8224 14.729
12.8376 14.947
12.8528 14.923
12.8679 14.731
12.8831 14.403
12.8983 14.573
12.9135 14.719
12.9286 14.541
12.9438 14.376
12.9590 14.445
12.9742 14.355
12.9893 14.248
13.0045 14.200
13.0197 14.202
13.0349 14.105
13.0500 13.938
13.0652 13.846
13.0804 13.639
13.0956 13.773
13.1107 13.718
13.1259 13.679
13.1411 13.850
13.1563 13.556
13.1714 13.693
13.1866 13.875
13.2018 13.657
13.2170 13.616
13.2321 13.424
13.2473 13.276
13.2625 13.330
13.2777 13.366
13.2928 13.295
13.3080 13.086
13.3232 12.910
13.3384 12.906
13.3535 12.913
13.3687 12.904
13.3839 12.893
13.3991 12.993
13.4142 12.853
13.4294 12.742
13.4446 12.714
13.4598 12.563
13.4749 12.804
13.4901 12.767
13.5053 12.484
13.5205 12.260
13.5356 12.041
13.5508 12.185
13.5660 12.641
13.5812 12.413
13.5963 12.005
13.6115 11.861
13.6267 11.869
13.6419 12.070
13.6570 12.184
13.6722 12.125
13.6874 11.830
13.7026 11.946
13.7177 12.271
13.7329 12.272
13.7481 11.953
13.7633 11.902
13.7784 12.264
13.7936 12.301
13.8088 12.063
13.8239 12.058
13.8391 12.166
13.8543 12.109
13.8695 11.852
13.8846 12.048
13.8998 11.969
13.9150 12.032
13.9302 12.216
13.9453 11.811
13.9605 11.608
13.9757 11.651
13.9909 11.604
14.0060 11.682
14.0212 11.687
14.0364 11.531
14.0516 11.310
14.0667 11.162
14.0819 11.564
14.0971 11.579
14.1123 11.631
14.1274 11.450
14.1426 11.460
14.1578 11.712
14.1730 11.654
14.1881 11.635
14.2033 11.466
14.2185 11.281
14.2337 11.491
14.2488 11.730
14.2640 11.838
14.2792 11.841
14.2944 11.630
14.3095 11.772
14.3247 11.908
14.3399 12.415
14.3551 12.593
14.3702 12.770
14.3854 13.234
14.4006 13.453
14.4158 13.369
14.4309 13.178
14.4461 13.160
14.4613 12.927
14.4765 12.494
14.4916 12.451
14.5068 12.245
14.5220 11.979
14.5372 11.646
14.5523 11.506
14.5675 11.232
14.5827 11.117
14.5979 11.061
14.6130 10.991
14.6282 10.606
14.6434 10.625
14.6586 10.944
14.6737 10.586
14.6889 10.657
14.7041 10.746
14.7193 10.396
14.7344 10.597
14.7496 10.386
14.7648 10.608
14.7800 10.881
14.7951 10.221
14.8103 10.374
14.8255 10.539
14.8407 10.427
14.8558 10.344
14.8710 10.608
14.8862 10.661
14.9014 10.396
14.9165 10.641
14.9317 10.758
14.9469 10.416
14.9621 10.526
14.9772 10.104
14.9924 10.064
15.0076 10.076
15.0228 10.373
15.0379 10.250
15.0531 10.318
15.0683 10.489
15.0835 10.110
15.0986 10.294
15.1138 10.338
15.1290 10.302
15.1442 10.294
15.1593 10.194
15.1745 9.991
15.1897 10.078
15.2049 10.149
15.2200 10.356
15.2352 10.072
15.2504 9.845
15.2656 10.414
15.2807 10.237
15.2959 9.984
15.3111 10.172
15.3263 10.346
15.3414 10.124
15.3566 10.258
15.3718 10.033
15.3870 10.214
15.4021 9.824
15.4173 10.508
15.4325 10.472
15.4477 10.175
15.4628 10.041
15.4780 10.278
15.4932 10.279
15.5084 10.042
15.5235 10.040
15.5387 10.051
15.5539 9.905
15.5691 9.908
15.5842 9.850
15.5994 9.928
15.6146 9.813
15.6298 9.897
15.6449 9.743
15.6601 9.832
15.6753 9.662
15.6905 9.900
15.7056 9.555
15.7208 9.789
15.7360 9.811
15.7512 9.501
15.7663 9.776
15.7815 9.332
15.7967 9.585
15.8119 9.887
15.8270 9.718
15.8422 9.595
15.8574 9.739
15.8726 9.724
15.8877 9.753
15.9029 9.509
15.9181 9.646
15.9333 9.758
15.9484 9.675
15.9636 9.574
15.9788 9.884
15.9940 9.739
16.0091 9.783
16.0243 9.644
16.0395 9.481
16.0547 9.591
16.0698 9.673
16.0850 9.670
16.1002 9.473
16.1154 9.455
16.1305 9.518
16.1457 9.602
16.1609 9.441
16.1761 9.521
16.1912 9.689
16.2064 9.865
16.2216 9.703
16.2368 9.655
16.2519 9.671
16.2671 9.573
16.2823 9.555
16.2975 9.635
16.3126 9.601
16.3278 9.795
16.3430 9.533
16.3582 9.694
16.3733 9.865
16.3885 9.744
16.4037 9.798
16.4189 9.850
16.4340 9.762
16.4492 9.757
16.4644 9.738
16.4796 9.649
16.4947 9.573
16.5099 9.594
16.5251 9.609
16.5403 9.292
16.5554 9.519
16.5706 9.589
16.5858 9.752
16.6010 9.556
16.6161 9.300
16.6313 9.316
16.6465 9.613
16.6617 9.782
16.6768 9.608
16.6920 9.757
16.7072 9.658
16.7224 9.692
16.7375 9.833
16.7527 9.657
16.7679 9.787
16.7831 9.909
16.7982 9.786
16.8134 9.670
16.8286 9.753
16.8438 9.770
16.8589 9.506
16.8741 9.571
16.8893 9.775
16.9045 9.751
16.9196 9.600
16.9348 9.647
16.9500 9.775
16.9652 9.776
16.9803 9.697
16.9955 9.618
17.0107 9.811
17.0259 9.841
17.0410 9.984
17.0562 10.161
17.0714 10.124
17.0866 10.360
17.1017 10.294
17.1169 10.357
17.1321 11.009
17.1473 11.381
17.1624 11.543
17.1776 11.998
17.1928 13.069
17.2080 14.009
17.2231 14.848
17.2383 16.176
17.2535 17.449
17.2687 18.320
17.2838 18.519
17.2990 17.569
17.3142 16.513
17.3294 16.154
17.3445 16.028
17.3597 16.057
17.3749 16.014
17.3901 15.295
17.4052 14.249
17.4204 13.048
17.4356 12.161
17.4508 11.951
17.4659 11.796
17.4811 11.469
17.4963 11.254
17.5115 11.199
17.5266 10.971
17.5418 10.933
17.5570 11.040
17.5722 10.897
17.5873 10.869
17.6025 11.044
17.6177 10.955
17.6329 11.012
17.6480 11.181
17.6632 11.442
17.6784 11.804
17.6936 12.131
17.7087 11.984
17.7239 11.661
17.7391 11.506
17.7543 11.278
17.7694 11.180
17.7846 11.168
17.7998 11.093
17.8150 10.856
17.8301 10.850
17.8453 10.645
17.8605 10.377
17.8757 10.428
17.8908 10.491
17.9060 10.563
17.9212 10.230
17.9364 10.072
17.9515 9.904
17.9667 9.895
17.9819 10.146
17.9971 10.053
18.0122 9.902
18.0274 10.089
18.0426 10.264
18.0578 10.334
18.0729 10.281
18.0881 10.023
18.1033 9.825
18.1185 9.989
18.1336 10.007
18.1488 9.968
18.1640 9.917
18.1792 9.834
18.1943 9.783
18.2095 9.744
18.2247 9.730
18.2399 9.952
18.2550 9.884
18.2702 9.648
18.2854 9.812
18.3006 9.995
18.3157 9.981
18.3309 9.851
18.3461 9.747
18.3613 9.629
18.3764 9.791
18.3916 9.731
18.4068 9.580
18.4220 9.706
18.4371 9.839
18.4523 9.761
18.4675 9.838
18.4827 9.951
18.4978 9.771
18.5130 9.919
18.5282 9.779
18.5434 9.864
18.5585 9.714
18.5737 9.488
18.5889 9.829
18.6041 10.055
18.6192 9.769
18.6344 9.625
18.6496 9.634
18.6648 9.825
18.6799 9.794
18.6951 9.680
18.7103 9.763
18.7255 10.033
18.7406 10.012
18.7558 9.640
18.7710 9.535
18.7862 9.749
18.8013 9.739
18.8165 9.566
18.8317 9.651
18.8469 9.892
18.8620 10.105
18.8772 10.151
18.8924 9.961
18.9076 9.778
18.9227 10.065
18.9379 10.082
18.9531 10.108
18.9683 10.148
18.9834 10.048
18.9986 10.128
19.0138 10.231
19.0290 10.275
19.0441 10.112
19.0593 10.327
19.0745 10.430
19.0897 10.300
19.1048 10.300
19.1200 10.343
19.1352 10.311
19.1504 10.471
19.1655 10.450
19.1807 10.528
19.1959 10.702
19.2111 10.636
19.2262 10.664
19.2414 10.712
19.2566 10.784
19.2718 10.814
19.2869 10.929
19.3021 10.949
19.3173 10.900
19.3325 10.952
19.3476 10.974
19.3628 11.208
19.3780 11.404
19.3932 11.260
19.4083 11.156
19.4235 11.107
19.4387 11.122
19.4539 11.366
19.4690 11.238
19.4842 11.147
19.4994 11.210
19.5146 11.391
19.5297 11.397
19.5449 11.215
19.5601 11.453
19.5753 11.769
19.5904 11.700
19.6056 11.642
19.6208 11.662
19.6360 11.556
19.6511 11.574
19.6663 11.781
19.6815 11.714
19.6967 11.662
19.7118 11.730
19.7270 11.542
19.7422 11.507
19.7574 11.618
19.7725 11.806
19.7877 12.003
19.8029 12.089
19.8180 12.015
19.8332 11.903
19.8484 12.204
19.8636 12.451
19.8787 12.722
19.8939 13.112
19.9091 13.151
19.9243 13.131
19.9394 13.614
19.9546 14.130
19.9698 14.608
19.9850 14.629
20.0001 14.333
20.0153 14.159
20.0305 13.847
20.0457 13.695
20.0608 13.854
20.0760 13.942
20.0912 13.757
20.1064 13.526
20.1215 13.381
20.1367 13.214
20.1519 12.987
20.1671 12.985
20.1822 12.993
20.1974 12.649
20.2126 12.386
20.2278 12.345
20.2429 12.313
20.2581 12.168
20.2733 12.016
20.2885 11.980
20.3036 11.917
20.3188 11.966
20.3340 12.162
20.3492 12.167
20.3643 11.892
20.3795 11.942
20.3947 11.780
20.4099 11.509
20.4250 11.680
20.4402 12.025
20.4554 12.074
20.4706 11.848
20.4857 11.979
20.5009 11.842
20.5161 11.708
20.5313 11.766
20.5464 11.652
20.5616 11.923
20.5768 11.625
20.5920 11.236
20.6071 11.318
20.6223 11.082
20.6375 11.116
20.6527 10.987
20.6678 10.816
20.6830 10.875
20.6982 10.915
20.7134 10.783
20.7285 10.248
20.7437 10.420
20.7589 10.290
20.7741 10.378
20.7892 10.814
20.8044 10.361
20.8196 10.376
20.8348 10.389
20.8499 10.080
20.8651 10.184
20.8803 10.226
20.8955 10.247
20.9106 10.173
20.9258 10.128
20.9410 10.130
20.9562 10.329
20.9713 10.166
20.9865 10.112
21.0017 10.375
21.0169 10.155
21.0320 10.054
21.0472 9.996
21.0624 10.088
21.0776 9.982
21.0927 10.047
21.1079 9.814
21.1231 10.048
21.1383 9.770
21.1534 9.728
21.1686 9.836
21.1838 9.930
21.1990 10.015
21.2141 9.628
21.2293 9.683
21.2445 9.605
21.2597 9.755
21.2748 9.484
21.2900 9.439
21.3052 9.306
21.3204 9.440
21.3355 9.597
21.3507 9.481
21.3659 9.506
21.3811 9.501
21.3962 9.438
21.4114 9.490
21.4266 9.390
21.4418 9.704
21.4569 9.701
21.4721 9.227
21.4873 9.676
21.5025 9.626
21.5176 9.464
21.5328 8.964
21.5480 9.234
21.5632 9.177
21.5783 9.131
21.5935 9.144
21.6087 9.154
21.6239 9.171
21.6390 9.197
21.6542 9.107
21.6694 9.000
21.6846 8.983
21.6997 9.126
21.7149 9.034
21.7301 9.075
21.7453 9.115
21.7604 9.175
21.7756 9.288
21.7908 8.963
21.8060 8.697
21.8211 9.019
21.8363 9.361
21.8515 9.080
21.8667 8.910
21.8818 9.257
21.8970 9.322
21.9122 9.289
21.9274 9.046
21.9425 8.922
21.9577 8.944
21.9729 8.976
21.9881 8.993
22.0032 8.860
22.0184 8.781
22.0336 8.881
22.0488 8.717
22.0639 8.718
22.0791 8.884
22.0943 8.931
22.1095 8.908
22.1246 8.795
22.1398 8.927
22.1550 8.921
22.1702 8.593
22.1853 8.326
22.2005 8.463
22.2157 8.455
22.2309 8.643
22.2460 8.551
22.2612 8.496
22.2764 8.734
22.2916 8.514
22.3067 8.583
22.3219 8.701
22.3371 8.743
22.3523 8.422
22.3674 8.495
22.3826 8.610
22.3978 8.717
22.4130 8.541
22.4281 8.261
22.4433 8.486
22.4585 8.277
22.4737 8.252
22.4888 8.563
22.5040 8.544
22.5192 8.253
22.5344 8.192
22.5495 8.133
22.5647 8.083
22.5799 8.124
22.5951 8.455
22.6102 8.395
22.6254 8.333
22.6406 8.182
22.6558 8.296
22.6709 8.150
22.6861 8.177
22.7013 8.390
22.7165 7.983
22.7316 6.331
