'Id: "" Comment: "" Operator: "Lab Manager" Anode: "Mo" Scantype: "Still (Eiger2R_500K (1D mode))" TimePerStep: "300" X: "11.8" Y: "9.4" Z: "11.284" 
7.2532 18.854
7.2684 18.669
7.2836 18.369
7.2987 18.798
7.3139 19.237
7.3291 18.847
7.3443 19.170
7.3594 19.078
7.3746 19.355
7.3898 19.013
7.4050 19.447
7.4201 19.109
7.4353 19.206
7.4505 19.605
7.4657 19.563
7.4808 19.930
7.4960 19.886
7.5112 19.641
7.5264 19.778
7.5415 19.841
7.5567 19.466
7.5719 20.249
7.5871 20.622
7.6022 20.306
7.6174 20.375
7.6326 19.963
7.6478 20.211
7.6629 20.291
7.6781 20.305
7.6933 20.215
7.7085 20.346
7.7236 20.486
7.7388 20.493
7.7540 20.220
7.7692 20.550
7.7843 20.470
7.7995 20.367
7.8147 20.771
7.8299 20.808
7.8450 20.670
7.8602 20.818
7.8754 20.943
7.8905 20.930
7.9057 20.925
7.9209 20.902
7.9361 21.016
7.9512 20.871
7.9664 21.018
7.9816 21.305
7.9968 21.041
8.0119 21.174
8.0271 21.198
8.0423 21.162
8.0575 20.956
8.0726 20.976
8.0878 20.975
8.1030 21.157
8.1182 21.221
8.1333 21.546
8.1485 21.521
8.1637 21.312
8.1789 21.702
8.1940 22.045
8.2092 21.788
8.2244 21.529
8.2396 21.304
8.2547 21.617
8.2699 21.989
8.2851 21.628
8.3003 21.619
8.3154 21.917
8.3306 21.625
8.3458 21.403
8.3610 21.492
8.3761 21.376
8.3913 21.562
8.4065 21.601
8.4217 21.774
8.4368 22.069
8.4520 21.984
8.4672 22.058
8.4824 22.016
8.4975 22.108
8.5127 21.742
8.5279 22.107
8.5431 22.407
8.5582 22.238
8.5734 21.910
8.5886 22.689
8.6038 22.452
8.6189 22.521
8.6341 22.084
8.6493 22.380
8.6645 22.289
8.6796 22.869
8.6948 22.316
8.7100 22.186
8.7252 22.366
8.7403 22.678
8.7555 22.407
8.7707 22.608
8.7859 22.614
8.8010 22.770
8.8162 22.740
8.8314 22.963
8.8466 22.510
8.8617 22.585
8.8769 22.478
8.8921 22.706
8.9073 22.810
8.9224 22.677
8.9376 23.075
8.9528 23.000
8.9680 23.079
8.9831 22.907
8.9983 23.103
9.0135 22.994
9.0287 22.721
9.0438 22.785
9.0590 23.203
9.0742 23.038
9.0894 22.793
9.1045 23.138
9.1197 22.660
9.1349 22.660
9.1501 23.159
9.1652 23.342
9.1804 23.122
9.1956 23.138
9.2108 22.794
9.2259 22.881
9.2411 22.941
9.2563 22.916
9.2715 22.821
9.2866 22.962
9.3018 23.142
9.3170 23.242
9.3322 23.001
9.3473 23.001
9.3625 23.052
9.3777 22.823
9.3929 23.139
9.4080 23.248
9.4232 22.895
9.4384 23.001
9.4536 23.345
9.4687 23.340
9.4839 23.228
9.4991 23.246
9.5143 23.096
9.5294 23.139
9.5446 23.053
9.5598 23.274
9.5750 23.121
9.5901 23.358
9.6053 23.462
9.6205 23.483
9.6357 23.747
9.6508 23.688
9.6660 23.649
9.6812 23.853
9.6964 23.653
9.7115 23.795
9.7267 24.004
9.7419 23.808
9.7571 23.794
9.7722 23.964
9.7874 23.806
9.8026 23.574
9.8178 23.639
9.8329 23.601
9.8481 23.422
9.8633 23.380
9.8785 23.345
9.8936 23.066
9.9088 22.758
9.9240 22.756
9.9392 23.078
9.9543 23.349
9.9695 23.238
9.9847 23.031
9.9999 23.100
10.0150 23.124
10.0302 22.985
10.0454 23.331
10.0606 23.613
10.0757 23.627
10.0909 23.713
10.1061 23.578
10.1213 23.405
10.1364 23.237
10.1516 23.298
10.1668 23.403
10.1820 23.595
10.1971 23.321
10.2123 23.115
10.2275 22.855
10.2427 22.937
10.2578 23.094
10.2730 22.947
10.2882 22.812
10.3034 23.028
10.3185 23.122
10.3337 22.992
10.3489 22.995
10.3641 22.894
10.3792 22.888
10.3944 22.720
10.4096 22.952
10.4248 22.749
10.4399 22.422
10.4551 22.532
10.4703 22.938
10.4855 23.114
10.5006 22.852
10.5158 22.483
10.5310 22.317
10.5462 22.621
10.5613 22.728
10.5765 22.706
10.5917 22.290
10.6069 22.592
10.6220 22.705
10.6372 22.395
10.6524 22.389
10.6676 22.537
10.6827 22.223
10.6979 22.197
10.7131 22.706
10.7283 22.469
10.7434 22.424
10.7586 22.645
10.7738 22.280
10.7890 22.110
10.8041 22.482
10.8193 22.505
10.8345 22.532
10.8497 22.824
10.8648 22.592
10.8800 22.472
10.8952 22.585
10.9104 22.276
10.9255 22.257
10.9407 22.025
10.9559 21.869
10.9711 21.987
10.9862 22.022
11.0014 21.852
11.0166 22.112
11.0318 22.317
11.0469 21.792
11.0621 21.722
11.0773 22.044
11.0925 21.674
11.1076 21.571
11.1228 21.723
11.1380 21.946
11.1532 22.324
11.1683 22.380
11.1835 21.642
11.1987 21.318
11.2139 21.635
11.2290 21.845
11.2442 21.732
11.2594 21.621
11.2746 21.566
11.2897 21.828
11.3049 21.805
11.3201 22.017
11.3353 21.646
11.3504 21.414
11.3656 21.307
11.3808 21.705
11.3960 21.556
11.4111 21.568
11.4263 21.548
11.4415 21.638
11.4567 21.346
11.4718 21.164
11.4870 21.162
11.5022 20.901
11.5174 21.190
11.5325 20.860
11.5477 20.609
11.5629 21.077
11.5781 20.994
11.5932 20.751
11.6084 20.858
11.6236 20.752
11.6388 20.719
11.6539 20.569
11.6691 20.696
11.6843 20.747
11.6995 20.466
11.7146 20.556
11.7298 20.508
11.7450 20.710
11.7602 20.130
11.7753 20.224
11.7905 20.103
11.8057 20.107
11.8209 20.113
11.8360 20.293
11.8512 20.161
11.8664 19.938
11.8816 20.052
11.8967 20.143
11.9119 19.851
11.9271 19.517
11.9423 19.493
11.9574 19.378
11.9726 19.523
11.9878 19.346
12.0030 19.470
12.0181 19.390
12.0333 18.989
12.0485 19.099
12.0637 19.081
12.0788 19.038
12.0940 18.405
12.1092 18.647
12.1244 18.627
12.1395 18.534
12.1547 18.801
12.1699 18.719
12.1851 18.639
12.2002 18.148
12.2154 18.058
12.2306 18.352
12.2458 18.467
12.2609 18.333
12.2761 18.175
12.2913 17.663
12.3065 17.757
12.3216 17.818
12.3368 17.686
12.3520 17.661
12.3672 17.348
12.3823 17.309
12.3975 17.352
12.4127 17.390
12.4279 17.451
12.4430 17.022
12.4582 16.752
12.4734 16.470
12.4886 16.499
12.5037 16.718
12.5189 16.931
12.5341 16.687
12.5493 16.251
12.5644 16.434
12.5796 16.524
12.5948 16.401
12.6100 16.151
12.6251 16.071
12.6403 15.945
12.6555 15.979
12.6707 16.063
12.6858 15.915
12.7010 15.793
12.7162 15.720
12.7314 15.339
12.7465 15.322
12.7617 15.392
12.7769 15.323
12.7921 15.288
12.8072 15.135
12.8224 15.201
12.8376 15.184
12.8528 14.864
12.8679 14.831
12.8831 15.061
12.8983 14.970
12.9135 14.735
12.9286 14.557
12.9438 14.391
12.9590 14.382
12.9742 14.320
12.9893 14.257
13.0045 14.365
13.0197 14.431
13.0349 14.359
13.0500 14.095
13.0652 14.036
13.0804 14.067
13.0956 13.973
13.1107 13.969
13.1259 13.936
13.1411 13.857
13.1563 13.747
13.1714 13.645
13.1866 13.657
13.2018 13.442
13.2170 13.316
13.2321 13.475
13.2473 13.355
13.2625 13.280
13.2777 13.395
13.2928 13.262
13.3080 13.087
13.3232 13.188
13.3384 13.241
13.3535 13.408
13.3687 13.395
13.3839 13.137
13.3991 13.079
13.4142 13.022
13.4294 12.944
13.4446 12.657
13.4598 12.546
13.4749 12.618
13.4901 12.703
13.5053 12.722
13.5205 12.625
13.5356 12.774
13.5508 12.822
13.5660 12.698
13.5812 12.449
13.5963 12.431
13.6115 12.288
13.6267 12.313
13.6419 12.463
13.6570 12.295
13.6722 12.188
13.6874 12.180
13.7026 12.281
13.7177 12.302
13.7329 12.279
13.7481 12.373
13.7633 12.233
13.7784 12.029
13.7936 12.085
13.8088 11.948
13.8239 12.141
13.8391 12.458
13.8543 12.296
13.8695 12.363
13.8846 12.398
13.8998 12.759
13.9150 12.670
13.9302 12.113
13.9453 12.177
13.9605 11.900
13.9757 11.572
13.9909 11.826
14.0060 11.642
14.0212 11.613
14.0364 11.462
14.0516 11.461
14.0667 11.367
14.0819 11.582
14.0971 11.851
14.1123 11.552
14.1274 11.234
14.1426 11.091
14.1578 11.289
14.1730 11.432
14.1881 11.341
14.2033 11.390
14.2185 11.389
14.2337 11.364
14.2488 11.764
14.2640 11.848
14.2792 12.182
14.2944 12.094
14.3095 12.406
14.3247 12.567
14.3399 12.798
14.3551 12.766
14.3702 12.973
14.3854 13.271
14.4006 13.495
14.4158 13.634
14.4309 13.183
14.4461 13.098
14.4613 12.636
14.4765 12.579
14.4916 12.326
14.5068 12.097
14.5220 11.922
14.5372 11.602
14.5523 10.951
14.5675 11.207
14.5827 11.024
14.5979 10.922
14.6130 10.881
14.6282 11.031
14.6434 10.965
14.6586 11.093
14.6737 11.059
14.6889 10.783
14.7041 10.622
14.7193 10.838
14.7344 10.568
14.7496 10.609
14.7648 10.754
14.7800 10.426
14.7951 10.546
14.8103 10.825
14.8255 10.721
14.8407 10.265
14.8558 10.797
14.8710 10.675
14.8862 10.648
14.9014 10.328
14.9165 10.833
14.9317 10.967
14.9469 10.653
14.9621 10.612
14.9772 10.591
14.9924 10.201
15.0076 10.404
15.0228 10.356
15.0379 10.408
15.0531 10.572
15.0683 10.494
15.0835 10.124
15.0986 10.187
15.1138 10.578
15.1290 10.271
15.1442 10.320
15.1593 10.225
15.1745 10.196
15.1897 10.049
15.2049 10.298
15.2200 10.331
15.2352 10.238
15.2504 10.200
15.2656 10.094
15.2807 10.283
15.2959 10.423
15.3111 10.320
15.3263 9.941
15.3414 9.877
15.3566 10.285
15.3718 10.468
15.3870 10.410
15.4021 10.577
15.4173 10.002
15.4325 10.118
15.4477 10.146
15.4628 9.961
15.4780 10.275
15.4932 10.413
15.5084 10.095
15.5235 10.149
15.5387 9.966
15.5539 10.312
15.5691 10.147
15.5842 10.339
15.5994 10.339
15.6146 9.807
15.6298 10.128
15.6449 10.052
15.6601 9.973
15.6753 9.863
15.6905 9.932
15.7056 9.884
15.7208 9.973
15.7360 9.814
15.7512 9.907
15.7663 9.877
15.7815 9.977
15.7967 9.807
15.8119 9.596
15.8270 9.468
15.8422 9.366
15.8574 9.550
15.8726 9.639
15.8877 9.573
15.9029 9.851
15.9181 9.778
15.9333 9.596
15.9484 9.731
15.9636 9.712
15.9788 10.053
15.9940 9.816
16.0091 9.652
16.0243 9.541
16.0395 9.753
16.0547 9.686
16.0698 9.719
16.0850 9.543
16.1002 9.468
16.1154 9.599
16.1305 9.722
16.1457 9.670
16.1609 9.727
16.1761 9.708
16.1912 9.886
16.2064 9.885
16.2216 9.965
16.2368 9.802
16.2519 9.976
16.2671 9.937
16.2823 9.724
16.2975 9.913
16.3126 10.004
16.3278 10.048
16.3430 10.017
16.3582 9.855
16.3733 9.842
16.3885 9.735
16.4037 9.944
16.4189 10.053
16.4340 9.899
16.4492 9.857
16.4644 9.973
16.4796 9.822
16.4947 9.697
16.5099 9.588
16.5251 9.722
16.5403 9.581
16.5554 9.629
16.5706 9.750
16.5858 9.708
16.6010 9.609
16.6161 9.649
16.6313 9.710
16.6465 9.934
16.6617 9.794
16.6768 9.787
16.6920 9.887
16.7072 10.010
16.7224 10.066
16.7375 10.037
16.7527 9.898
16.7679 9.762
16.7831 9.916
16.7982 10.000
16.8134 9.943
16.8286 9.897
16.8438 10.061
16.8589 10.145
16.8741 10.175
16.8893 9.890
16.9045 9.745
16.9196 9.844
16.9348 9.775
16.9500 9.595
16.9652 9.775
16.9803 9.913
16.9955 9.787
17.0107 9.802
17.0259 9.914
17.0410 9.836
17.0562 10.223
17.0714 10.408
17.0866 10.288
17.1017 10.477
17.1169 10.775
17.1321 11.020
17.1473 11.363
17.1624 11.770
17.1776 12.241
17.1928 12.971
17.2080 14.024
17.2231 15.040
17.2383 16.145
17.2535 17.401
17.2687 18.397
17.2838 18.482
17.2990 17.738
17.3142 16.912
17.3294 16.371
17.3445 16.014
17.3597 15.656
17.3749 15.467
17.3901 14.920
17.4052 13.796
17.4204 12.894
17.4356 12.427
17.4508 12.002
17.4659 11.512
17.4811 11.274
17.4963 11.356
17.5115 11.224
17.5266 11.161
17.5418 11.057
17.5570 10.863
17.5722 11.062
17.5873 11.065
17.6025 11.064
17.6177 11.264
17.6329 11.269
17.6480 11.186
17.6632 11.403
17.6784 11.576
17.6936 11.721
17.7087 11.699
17.7239 11.449
17.7391 11.541
17.7543 11.330
17.7694 11.072
17.7846 10.979
17.7998 10.859
17.8150 10.925
17.8301 10.574
17.8453 10.350
17.8605 10.327
17.8757 10.330
17.8908 10.434
17.9060 10.305
17.9212 10.302
17.9364 10.193
17.9515 9.961
17.9667 10.135
17.9819 10.249
17.9971 9.889
18.0122 9.881
18.0274 10.283
18.0426 10.305
18.0578 10.266
18.0729 10.059
18.0881 9.827
18.1033 9.877
18.1185 9.840
18.1336 9.783
18.1488 9.823
18.1640 10.030
18.1792 10.245
18.1943 10.191
18.2095 9.964
18.2247 9.840
18.2399 9.723
18.2550 9.816
18.2702 9.815
18.2854 9.761
18.3006 9.786
18.3157 9.661
18.3309 9.675
18.3461 9.888
18.3613 9.802
18.3764 9.781
18.3916 9.778
18.4068 9.914
18.4220 9.870
18.4371 9.855
18.4523 9.794
18.4675 9.955
18.4827 9.796
18.4978 9.674
18.5130 9.671
18.5282 9.716
18.5434 9.899
18.5585 9.835
18.5737 9.684
18.5889 9.791
18.6041 9.990
18.6192 9.930
18.6344 9.868
18.6496 9.954
18.6648 9.897
18.6799 9.810
18.6951 9.718
18.7103 9.881
18.7255 9.944
18.7406 9.955
18.7558 9.752
18.7710 9.708
18.7862 9.818
18.8013 9.863
18.8165 9.556
18.8317 9.593
18.8469 9.950
18.8620 10.000
18.8772 9.995
18.8924 9.882
18.9076 9.918
18.9227 10.079
18.9379 9.861
18.9531 9.823
18.9683 10.062
18.9834 10.180
18.9986 10.349
19.0138 10.242
19.0290 10.125
19.0441 10.096
19.0593 10.190
19.0745 10.300
19.0897 10.303
19.1048 10.252
19.1200 10.457
19.1352 10.642
19.1504 10.716
19.1655 10.700
19.1807 10.644
19.1959 10.633
19.2111 10.679
19.2262 10.800
19.2414 10.764
19.2566 10.751
19.2718 10.738
19.2869 10.876
19.3021 10.760
19.3173 10.892
19.3325 10.969
19.3476 11.045
19.3628 11.052
19.3780 11.132
19.3932 11.218
19.4083 11.319
19.4235 11.392
19.4387 11.340
19.4539 11.263
19.4690 11.116
19.4842 11.209
19.4994 11.460
19.5146 11.535
19.5297 11.546
19.5449 11.593
19.5601 11.498
19.5753 11.585
19.5904 11.621
19.6056 11.558
19.6208 11.616
19.6360 11.896
19.6511 11.912
19.6663 11.502
19.6815 11.472
19.6967 11.616
19.7118 11.663
19.7270 11.625
19.7422 11.737
19.7574 11.780
19.7725 11.855
19.7877 12.012
19.8029 11.988
19.8180 11.930
19.8332 11.937
19.8484 12.006
19.8636 12.426
19.8787 12.687
19.8939 12.686
19.9091 13.139
19.9243 13.484
19.9394 13.695
19.9546 14.079
19.9698 14.282
19.9850 14.357
20.0001 14.335
20.0153 14.156
20.0305 13.924
20.0457 13.562
20.0608 13.626
20.0760 13.748
20.0912 13.595
20.1064 13.363
20.1215 13.309
20.1367 13.157
20.1519 13.006
20.1671 12.975
20.1822 12.688
20.1974 12.559
20.2126 12.550
20.2278 12.543
20.2429 12.680
20.2581 12.490
20.2733 12.156
20.2885 11.924
20.3036 11.910
20.3188 11.898
20.3340 12.007
20.3492 12.181
20.3643 12.111
20.3795 12.037
20.3947 12.088
20.4099 12.006
20.4250 11.874
20.4402 12.042
20.4554 11.956
20.4706 12.152
20.4857 12.086
20.5009 11.944
20.5161 11.709
20.5313 11.495
20.5464 11.747
20.5616 11.584
20.5768 11.570
20.5920 11.541
20.6071 11.162
20.6223 11.144
20.6375 10.651
20.6527 10.871
20.6678 10.666
20.6830 10.671
20.6982 10.580
20.7134 10.623
20.7285 10.520
20.7437 10.420
20.7589 10.394
20.7741 10.354
20.7892 10.187
20.8044 10.457
20.8196 10.372
20.8348 10.294
20.8499 10.248
20.8651 10.175
20.8803 10.182
20.8955 10.073
20.9106 10.072
20.9258 9.876
20.9410 10.184
20.9562 9.873
20.9713 10.403
20.9865 9.997
21.0017 9.915
21.0169 9.776
21.0320 10.092
21.0472 9.991
21.0624 10.051
21.0776 10.126
21.0927 9.974
21.1079 10.103
21.1231 9.926
21.1383 9.615
21.1534 9.853
21.1686 9.816
21.1838 9.995
21.1990 9.767
21.2141 9.741
21.2293 9.956
21.2445 9.675
21.2597 9.728
21.2748 9.872
21.2900 9.444
21.3052 9.718
21.3204 9.974
21.3355 9.457
21.3507 9.778
21.3659 9.579
21.3811 9.726
21.3962 9.797
21.4114 9.513
21.4266 9.583
21.4418 9.511
21.4569 9.723
21.4721 9.405
21.4873 9.336
21.5025 9.097
21.5176 9.361
21.5328 9.189
21.5480 9.468
21.5632 9.589
21.5783 9.454
21.5935 9.203
21.6087 9.141
21.6239 9.178
21.6390 9.298
21.6542 9.234
21.6694 8.889
21.6846 9.207
21.6997 8.999
21.7149 8.949
21.7301 9.188
21.7453 8.895
21.7604 8.893
21.7756 9.236
21.7908 9.256
21.8060 9.206
21.8211 9.278
21.8363 9.115
21.8515 8.946
21.8667 9.138
21.8818 9.006
21.8970 8.920
21.9122 9.083
21.9274 9.075
21.9425 9.008
21.9577 9.064
21.9729 9.025
21.9881 8.972
22.0032 9.056
22.0184 8.927
22.0336 8.717
22.0488 8.611
22.0639 8.679
22.0791 8.769
22.0943 8.774
22.1095 8.889
22.1246 8.863
22.1398 8.593
22.1550 8.558
22.1702 8.576
22.1853 8.619
22.2005 8.473
22.2157 8.618
22.2309 8.712
22.2460 8.662
22.2612 8.757
22.2764 8.797
22.2916 8.702
22.3067 8.654
22.3219 8.689
22.3371 8.708
22.3523 8.561
22.3674 8.639
22.3826 8.566
22.3978 8.440
22.4130 8.582
22.4281 8.645
22.4433 8.685
22.4585 8.648
22.4737 8.821
22.4888 8.511
22.5040 8.324
22.5192 8.636
22.5344 8.468
22.5495 8.494
22.5647 8.291
22.5799 8.488
22.5951 8.376
22.6102 8.139
22.6254 8.417
22.6406 8.575
22.6558 8.464
22.6709 8.503
22.6861 8.362
22.7013 8.204
22.7165 7.982
22.7316 6.138
