'Id: "" Comment: "" Operator: "Lab Manager" Anode: "Mo" Scantype: "Still (Eiger2R_500K (1D mode))" TimePerStep: "300" X: "11.8" Y: "9.4" Z: "11.284" 
7.2532 18.435
7.2684 18.462
7.2836 18.642
7.2987 18.973
7.3139 19.122
7.3291 18.458
7.3443 19.088
7.3594 19.152
7.3746 19.373
7.3898 19.397
7.4050 19.210
7.4201 19.244
7.4353 19.584
7.4505 19.506
7.4657 19.310
7.4808 19.670
7.4960 19.527
7.5112 19.456
7.5264 19.625
7.5415 19.951
7.5567 19.671
7.5719 19.841
7.5871 19.917
7.6022 19.844
7.6174 19.868
7.6326 20.313
7.6478 19.856
7.6629 20.042
7.6781 20.251
7.6933 19.843
7.7085 20.231
7.7236 20.427
7.7388 20.105
7.7540 20.379
7.7692 20.510
7.7843 20.513
7.7995 20.844
7.8147 20.670
7.8299 20.536
7.8450 20.491
7.8602 20.473
7.8754 20.726
7.8905 20.601
7.9057 20.683
7.9209 20.688
7.9361 20.749
7.9512 20.918
7.9664 20.804
7.9816 20.490
7.9968 20.778
8.0119 20.655
8.0271 20.846
8.0423 20.966
8.0575 20.964
8.0726 21.090
8.0878 21.142
8.1030 21.319
8.1182 21.461
8.1333 21.105
8.1485 20.904
8.1637 21.710
8.1789 21.799
8.1940 21.423
8.2092 21.117
8.2244 21.169
8.2396 21.460
8.2547 21.580
8.2699 21.370
8.2851 22.147
8.3003 21.650
8.3154 21.376
8.3306 21.476
8.3458 21.100
8.3610 21.263
8.3761 21.803
8.3913 21.365
8.4065 21.740
8.4217 21.587
8.4368 21.827
8.4520 21.825
8.4672 21.858
8.4824 21.223
8.4975 22.183
8.5127 22.076
8.5279 22.121
8.5431 22.138
8.5582 22.126
8.5734 22.454
8.5886 22.076
8.6038 22.119
8.6189 22.057
8.6341 22.007
8.6493 22.028
8.6645 22.264
8.6796 21.970
8.6948 22.006
8.7100 22.063
8.7252 22.264
8.7403 22.216
8.7555 22.035
8.7707 21.949
8.7859 21.520
8.8010 22.431
8.8162 22.247
8.8314 21.944
8.8466 22.662
8.8617 22.538
8.8769 23.087
8.8921 22.422
8.9073 22.312
8.9224 22.713
8.9376 22.648
8.9528 22.499
8.9680 22.213
8.9831 22.505
8.9983 22.671
9.0135 22.528
9.0287 22.579
9.0438 22.720
9.0590 22.892
9.0742 22.675
9.0894 22.843
9.1045 22.693
9.1197 22.410
9.1349 22.855
9.1501 22.885
9.1652 22.737
9.1804 23.027
9.1956 22.862
9.2108 22.491
9.2259 22.746
9.2411 22.672
9.2563 22.764
9.2715 22.732
9.2866 22.960
9.3018 23.384
9.3170 23.158
9.3322 22.680
9.3473 22.799
9.3625 22.967
9.3777 22.830
9.3929 22.872
9.4080 22.837
9.4232 23.042
9.4384 22.983
9.4536 23.166
9.4687 23.032
9.4839 22.743
9.4991 23.058
9.5143 23.357
9.5294 23.479
9.5446 23.192
9.5598 23.136
9.5750 23.300
9.5901 23.333
9.6053 23.086
9.6205 23.203
9.6357 23.576
9.6508 23.552
9.6660 23.591
9.6812 23.530
9.6964 23.483
9.7115 23.860
9.7267 23.943
9.7419 24.154
9.7571 24.228
9.7722 24.273
9.7874 24.115
9.8026 23.639
9.8178 23.387
9.8329 23.312
9.8481 23.347
9.8633 23.525
9.8785 23.351
9.8936 23.162
9.9088 23.019
9.9240 22.992
9.9392 23.092
9.9543 23.198
9.9695 23.116
9.9847 23.272
9.9999 23.662
10.0150 23.427
10.0302 23.052
10.0454 22.768
10.0606 22.771
10.0757 23.091
10.0909 23.082
10.1061 23.163
10.1213 23.139
10.1364 23.408
10.1516 23.415
10.1668 23.330
10.1820 23.341
10.1971 22.965
10.2123 22.846
10.2275 23.153
10.2427 23.187
10.2578 22.745
10.2730 22.563
10.2882 22.757
10.3034 23.215
10.3185 23.068
10.3337 22.684
10.3489 22.682
10.3641 22.615
10.3792 22.779
10.3944 22.753
10.4096 22.654
10.4248 22.708
10.4399 22.626
10.4551 22.599
10.4703 22.892
10.4855 22.700
10.5006 22.927
10.5158 22.558
10.5310 22.489
10.5462 22.588
10.5613 22.601
10.5765 22.591
10.5917 22.172
10.6069 22.510
10.6220 22.625
10.6372 22.618
10.6524 22.619
10.6676 22.521
10.6827 22.325
10.6979 22.655
10.7131 22.661
10.7283 22.533
10.7434 22.419
10.7586 22.554
10.7738 22.531
10.7890 22.400
10.8041 22.408
10.8193 22.068
10.8345 22.180
10.8497 22.429
10.8648 22.215
10.8800 21.870
10.8952 21.859
10.9104 22.158
10.9255 22.255
10.9407 21.964
10.9559 22.044
10.9711 21.778
10.9862 22.051
11.0014 22.186
11.0166 22.393
11.0318 22.262
11.0469 21.924
11.0621 21.808
11.0773 21.970
11.0925 21.963
11.1076 21.875
11.1228 21.708
11.1380 21.924
11.1532 21.721
11.1683 21.764
11.1835 21.424
11.1987 21.756
11.2139 21.335
11.2290 21.353
11.2442 21.591
11.2594 21.666
11.2746 21.388
11.2897 21.209
11.3049 21.618
11.3201 21.364
11.3353 21.266
11.3504 21.274
11.3656 21.128
11.3808 21.636
11.3960 21.560
11.4111 21.470
11.4263 21.212
11.4415 21.220
11.4567 21.358
11.4718 21.397
11.4870 20.725
11.5022 20.610
11.5174 20.876
11.5325 20.680
11.5477 20.998
11.5629 21.153
11.5781 20.613
11.5932 20.789
11.6084 21.002
11.6236 21.066
11.6388 20.594
11.6539 20.661
11.6691 20.573
11.6843 20.586
11.6995 20.520
11.7146 20.519
11.7298 20.605
11.7450 20.526
11.7602 20.321
11.7753 20.450
11.7905 20.408
11.8057 20.114
11.8209 20.091
11.8360 20.083
11.8512 20.106
11.8664 20.011
11.8816 19.887
11.8967 19.722
11.9119 19.779
11.9271 19.547
11.9423 19.297
11.9574 19.333
11.9726 19.164
11.9878 19.188
12.0030 19.251
12.0181 19.126
12.0333 19.195
12.0485 19.112
12.0637 19.001
12.0788 18.884
12.0940 18.798
12.1092 18.765
12.1244 18.860
12.1395 18.867
12.1547 18.623
12.1699 18.564
12.1851 18.484
12.2002 18.355
12.2154 18.325
12.2306 18.356
12.2458 17.974
12.2609 17.776
12.2761 17.789
12.2913 17.931
12.3065 17.940
12.3216 17.795
12.3368 17.660
12.3520 17.404
12.3672 17.305
12.3823 17.495
12.3975 17.456
12.4127 17.344
12.4279 17.054
12.4430 17.070
12.4582 17.012
12.4734 17.007
12.4886 16.688
12.5037 16.465
12.5189 16.460
12.5341 16.588
12.5493 16.347
12.5644 16.093
12.5796 16.275
12.5948 16.466
12.6100 16.216
12.6251 15.850
12.6403 15.794
12.6555 15.731
12.6707 15.779
12.6858 15.810
12.7010 15.738
12.7162 15.634
12.7314 15.456
12.7465 15.117
12.7617 15.198
12.7769 15.135
12.7921 15.015
12.8072 15.001
12.8224 14.996
12.8376 15.017
12.8528 14.988
12.8679 14.765
12.8831 14.735
12.8983 14.901
12.9135 14.680
12.9286 14.435
12.9438 14.580
12.9590 14.719
12.9742 14.541
12.9893 14.157
13.0045 14.023
13.0197 13.986
13.0349 13.979
13.0500 14.074
13.0652 14.074
13.0804 14.180
13.0956 14.222
13.1107 13.923
13.1259 13.811
13.1411 14.023
13.1563 13.890
13.1714 13.507
13.1866 13.345
13.2018 13.237
13.2170 13.151
13.2321 13.271
13.2473 13.400
13.2625 13.228
13.2777 13.189
13.2928 13.307
13.3080 13.228
13.3232 13.093
13.3384 12.977
13.3535 13.221
13.3687 13.296
13.3839 13.131
13.3991 13.151
13.4142 13.127
13.4294 13.076
13.4446 12.849
13.4598 12.628
13.4749 12.632
13.4901 12.735
13.5053 12.739
13.5205 12.828
13.5356 12.816
13.5508 12.309
13.5660 12.266
13.5812 12.406
13.5963 12.374
13.6115 12.347
13.6267 12.511
13.6419 12.359
13.6570 12.391
13.6722 12.257
13.6874 11.918
13.7026 12.116
13.7177 12.036
13.7329 12.167
13.7481 12.079
13.7633 12.077
13.7784 12.019
13.7936 12.217
13.8088 12.211
13.8239 12.271
13.8391 12.071
13.8543 12.157
13.8695 12.433
13.8846 12.392
13.8998 12.062
13.9150 12.091
13.9302 12.139
13.9453 12.040
13.9605 12.083
13.9757 11.731
13.9909 11.535
14.0060 11.595
14.0212 11.703
14.0364 11.469
14.0516 11.317
14.0667 11.382
14.0819 11.799
14.0971 11.869
14.1123 11.983
14.1274 11.644
14.1426 11.654
14.1578 11.451
14.1730 11.373
14.1881 12.027
14.2033 11.928
14.2185 11.815
14.2337 11.621
14.2488 11.569
14.2640 11.956
14.2792 11.640
14.2944 11.874
14.3095 11.740
14.3247 12.023
14.3399 12.310
14.3551 12.429
14.3702 12.901
14.3854 13.060
14.4006 12.950
14.4158 12.951
14.4309 12.614
14.4461 12.447
14.4613 12.345
14.4765 12.012
14.4916 12.115
14.5068 12.202
14.5220 11.762
14.5372 11.371
14.5523 11.232
14.5675 11.106
14.5827 11.215
14.5979 11.013
14.6130 10.667
14.6282 10.996
14.6434 11.053
14.6586 10.780
14.6737 10.328
14.6889 10.810
14.7041 10.778
14.7193 10.444
14.7344 10.448
14.7496 10.528
14.7648 10.891
14.7800 10.519
14.7951 10.519
14.8103 10.577
14.8255 10.528
14.8407 10.235
14.8558 10.483
14.8710 10.614
14.8862 10.024
14.9014 10.447
14.9165 10.891
14.9317 10.709
14.9469 10.529
14.9621 10.546
14.9772 10.219
14.9924 10.297
15.0076 10.337
15.0228 10.324
15.0379 10.183
15.0531 10.329
15.0683 10.469
15.0835 10.347
15.0986 10.285
15.1138 10.313
15.1290 10.194
15.1442 10.335
15.1593 9.728
15.1745 10.099
15.1897 10.061
15.2049 10.359
15.2200 10.249
15.2352 10.050
15.2504 10.057
15.2656 10.175
15.2807 10.074
15.2959 10.280
15.3111 10.072
15.3263 9.968
15.3414 10.134
15.3566 9.815
15.3718 10.175
15.3870 10.097
15.4021 10.052
15.4173 9.866
15.4325 9.992
15.4477 10.705
15.4628 10.339
15.4780 10.404
15.4932 10.297
15.5084 10.044
15.5235 9.759
15.5387 10.137
15.5539 10.066
15.5691 9.835
15.5842 9.844
15.5994 9.596
15.6146 9.792
15.6298 9.997
15.6449 9.886
15.6601 10.125
15.6753 9.882
15.6905 10.136
15.7056 9.975
15.7208 9.729
15.7360 9.599
15.7512 9.641
15.7663 9.608
15.7815 9.739
15.7967 9.697
15.8119 9.774
15.8270 9.814
15.8422 9.898
15.8574 9.644
15.8726 9.650
15.8877 9.638
15.9029 9.189
15.9181 9.410
15.9333 9.313
15.9484 9.536
15.9636 9.737
15.9788 9.733
15.9940 9.463
16.0091 9.444
16.0243 9.644
16.0395 9.772
16.0547 9.735
16.0698 9.624
16.0850 9.427
16.1002 9.706
16.1154 9.466
16.1305 9.454
16.1457 9.506
16.1609 9.530
16.1761 9.556
16.1912 9.445
16.2064 9.617
16.2216 9.612
16.2368 9.669
16.2519 9.693
16.2671 9.538
16.2823 9.807
16.2975 9.638
16.3126 9.820
16.3278 10.013
16.3430 9.795
16.3582 9.726
16.3733 9.749
16.3885 9.797
16.4037 9.644
16.4189 9.540
16.4340 9.625
16.4492 9.430
16.4644 9.588
16.4796 9.763
16.4947 9.650
16.5099 9.529
16.5251 9.441
16.5403 9.567
16.5554 9.465
16.5706 9.397
16.5858 9.362
16.6010 9.444
16.6161 9.384
16.6313 9.750
16.6465 10.035
16.6617 9.834
16.6768 9.797
16.6920 10.114
16.7072 9.968
16.7224 9.949
16.7375 10.177
16.7527 10.026
16.7679 9.815
16.7831 9.703
16.7982 9.729
16.8134 10.057
16.8286 10.025
16.8438 10.057
16.8589 9.948
16.8741 9.846
16.8893 9.755
16.9045 9.579
16.9196 9.445
16.9348 9.637
16.9500 9.753
16.9652 9.405
16.9803 9.628
16.9955 9.935
17.0107 9.913
17.0259 9.933
17.0410 10.114
17.0562 10.209
17.0714 10.083
17.0866 10.173
17.1017 10.483
17.1169 10.525
17.1321 10.764
17.1473 11.334
17.1624 11.504
17.1776 12.054
17.1928 12.892
17.2080 13.930
17.2231 15.089
17.2383 16.294
17.2535 17.658
17.2687 18.390
17.2838 18.559
17.2990 18.021
17.3142 17.112
17.3294 16.470
17.3445 16.235
17.3597 16.255
17.3749 15.786
17.3901 15.417
17.4052 14.800
17.4204 13.661
17.4356 12.736
17.4508 12.353
17.4659 12.200
17.4811 11.794
17.4963 11.541
17.5115 11.342
17.5266 11.124
17.5418 11.035
17.5570 11.105
17.5722 10.851
17.5873 10.863
17.6025 11.177
17.6177 11.276
17.6329 11.407
17.6480 11.463
17.6632 11.402
17.6784 11.399
17.6936 11.435
17.7087 11.299
17.7239 11.089
17.7391 11.130
17.7543 11.390
17.7694 11.067
17.7846 10.914
17.7998 10.759
17.8150 10.578
17.8301 10.488
17.8453 10.353
17.8605 10.275
17.8757 10.551
17.8908 10.448
17.9060 10.198
17.9212 10.417
17.9364 10.176
17.9515 10.053
17.9667 10.219
17.9819 10.282
17.9971 10.073
18.0122 10.082
18.0274 10.015
18.0426 10.033
18.0578 10.262
18.0729 10.211
18.0881 10.043
18.1033 10.127
18.1185 10.048
18.1336 9.790
18.1488 9.828
18.1640 9.850
18.1792 9.843
18.1943 10.009
18.2095 10.022
18.2247 10.103
18.2399 9.881
18.2550 9.891
18.2702 10.061
18.2854 9.952
18.3006 9.734
18.3157 9.685
18.3309 9.933
18.3461 10.053
18.3613 10.122
18.3764 10.005
18.3916 9.913
18.4068 9.829
18.4220 9.819
18.4371 9.712
18.4523 9.800
18.4675 9.788
18.4827 9.917
18.4978 9.960
18.5130 9.903
18.5282 9.822
18.5434 9.784
18.5585 9.654
18.5737 9.875
18.5889 9.786
18.6041 9.845
18.6192 9.909
18.6344 9.759
18.6496 9.693
18.6648 9.664
18.6799 9.782
18.6951 9.850
18.7103 9.785
18.7255 9.593
18.7406 9.483
18.7558 9.699
18.7710 9.898
18.7862 10.056
18.8013 10.009
18.8165 9.865
18.8317 9.929
18.8469 9.932
18.8620 10.016
18.8772 9.965
18.8924 9.873
18.9076 9.916
18.9227 10.168
18.9379 10.108
18.9531 10.104
18.9683 10.090
18.9834 10.029
18.9986 10.120
19.0138 10.280
19.0290 10.141
19.0441 10.070
19.0593 10.083
19.0745 10.368
19.0897 10.359
19.1048 10.137
19.1200 10.379
19.1352 10.536
19.1504 10.330
19.1655 10.369
19.1807 10.456
19.1959 10.637
19.2111 10.871
19.2262 10.821
19.2414 10.897
19.2566 11.039
19.2718 10.970
19.2869 11.041
19.3021 11.077
19.3173 11.045
19.3325 11.001
19.3476 10.981
19.3628 11.180
19.3780 11.405
19.3932 11.327
19.4083 11.310
19.4235 11.326
19.4387 11.386
19.4539 11.572
19.4690 11.383
19.4842 11.216
19.4994 11.413
19.5146 11.540
19.5297 11.590
19.5449 11.605
19.5601 11.644
19.5753 11.776
19.5904 11.809
19.6056 11.673
19.6208 11.634
19.6360 11.809
19.6511 11.940
19.6663 12.061
19.6815 11.960
19.6967 11.766
19.7118 11.959
19.7270 12.212
19.7422 12.160
19.7574 11.968
19.7725 11.860
19.7877 11.926
19.8029 11.909
19.8180 12.106
19.8332 12.147
19.8484 12.256
19.8636 12.792
19.8787 12.947
19.8939 13.023
19.9091 13.120
19.9243 13.533
19.9394 13.912
19.9546 14.031
19.9698 14.450
19.9850 14.637
20.0001 14.631
20.0153 14.222
20.0305 13.895
20.0457 14.142
20.0608 14.028
20.0760 14.011
20.0912 14.091
20.1064 13.856
20.1215 13.722
20.1367 13.562
20.1519 13.159
20.1671 13.150
20.1822 13.088
20.1974 12.880
20.2126 12.726
20.2278 12.811
20.2429 12.929
20.2581 12.654
20.2733 12.231
20.2885 11.963
20.3036 12.021
20.3188 12.177
20.3340 12.049
20.3492 11.815
20.3643 12.017
20.3795 12.068
20.3947 12.003
20.4099 11.793
20.4250 11.808
20.4402 11.780
20.4554 11.870
20.4706 11.824
20.4857 11.863
20.5009 11.650
20.5161 11.825
20.5313 11.837
20.5464 11.240
20.5616 11.314
20.5768 11.253
20.5920 11.172
20.6071 11.044
20.6223 11.004
20.6375 11.038
20.6527 10.904
20.6678 10.367
20.6830 10.682
20.6982 10.692
20.7134 10.617
20.7285 10.511
20.7437 10.645
20.7589 10.457
20.7741 10.347
20.7892 10.242
20.8044 10.296
20.8196 10.472
20.8348 10.371
20.8499 10.300
20.8651 10.589
20.8803 10.227
20.8955 10.323
20.9106 10.197
20.9258 10.051
20.9410 9.995
20.9562 10.261
20.9713 10.138
20.9865 10.191
21.0017 10.030
21.0169 10.194
21.0320 10.101
21.0472 9.994
21.0624 10.134
21.0776 10.076
21.0927 10.085
21.1079 9.648
21.1231 9.844
21.1383 10.053
21.1534 10.073
21.1686 9.971
21.1838 9.807
21.1990 9.688
21.2141 9.745
21.2293 9.760
21.2445 9.625
21.2597 9.941
21.2748 9.576
21.2900 9.655
21.3052 9.365
21.3204 9.389
21.3355 9.419
21.3507 9.730
21.3659 9.701
21.3811 9.558
21.3962 9.478
21.4114 9.183
21.4266 9.620
21.4418 9.520
21.4569 9.583
21.4721 9.372
21.4873 9.446
21.5025 9.466
21.5176 9.374
21.5328 9.260
21.5480 9.353
21.5632 9.499
21.5783 9.342
21.5935 9.263
21.6087 9.172
21.6239 9.393
21.6390 9.077
21.6542 9.086
21.6694 9.180
21.6846 9.064
21.6997 9.168
21.7149 9.300
21.7301 9.205
21.7453 9.315
21.7604 9.332
21.7756 9.088
21.7908 9.082
21.8060 9.062
21.8211 9.118
21.8363 9.045
21.8515 9.154
21.8667 8.933
21.8818 8.901
21.8970 8.933
21.9122 8.897
21.9274 8.975
21.9425 9.141
21.9577 9.073
21.9729 9.081
21.9881 9.094
22.0032 9.067
22.0184 9.048
22.0336 8.826
22.0488 8.720
22.0639 8.761
22.0791 8.671
22.0943 8.725
22.1095 8.769
22.1246 8.694
22.1398 8.636
22.1550 8.598
22.1702 8.687
22.1853 8.718
22.2005 8.714
22.2157 8.522
22.2309 8.504
22.2460 8.635
22.2612 8.488
22.2764 8.358
22.2916 8.826
22.3067 8.699
22.3219 8.644
22.3371 8.369
22.3523 8.423
22.3674 8.482
22.3826 8.313
22.3978 8.556
22.4130 8.585
22.4281 8.230
22.4433 8.296
22.4585 8.435
22.4737 8.507
22.4888 8.303
22.5040 8.656
22.5192 8.760
22.5344 8.379
22.5495 8.467
22.5647 8.583
22.5799 8.078
22.5951 8.363
22.6102 8.566
22.6254 8.505
22.6406 8.301
22.6558 8.440
22.6709 8.478
22.6861 8.296
22.7013 8.183
22.7165 7.803
22.7316 6.531
