'Id: "" Comment: "" Operator: "Lab Manager" Anode: "Mo" Scantype: "Still (Eiger2R_500K (1D mode))" TimePerStep: "300" X: "11.8" Y: "9.4" Z: "11.284" 
7.2532 19.051
7.2684 18.654
7.2836 18.665
7.2987 19.056
7.3139 18.924
7.3291 18.864
7.3443 18.929
7.3594 18.866
7.3746 19.124
7.3898 19.247
7.4050 19.202
7.4201 19.525
7.4353 19.221
7.4505 19.131
7.4657 19.447
7.4808 19.224
7.4960 19.372
7.5112 19.651
7.5264 19.486
7.5415 20.036
7.5567 19.630
7.5719 19.814
7.5871 20.048
7.6022 19.895
7.6174 20.020
7.6326 20.065
7.6478 20.013
7.6629 20.109
7.6781 20.070
7.6933 19.937
7.7085 19.898
7.7236 20.505
7.7388 20.501
7.7540 20.290
7.7692 20.268
7.7843 20.151
7.7995 20.063
7.8147 20.148
7.8299 20.384
7.8450 20.659
7.8602 20.980
7.8754 20.861
7.8905 20.407
7.9057 20.269
7.9209 20.362
7.9361 20.517
7.9512 20.929
7.9664 21.156
7.9816 20.793
7.9968 20.758
8.0119 20.697
8.0271 20.786
8.0423 20.876
8.0575 20.940
8.0726 21.126
8.0878 20.801
8.1030 20.849
8.1182 21.201
8.1333 20.696
8.1485 20.892
8.1637 21.044
8.1789 21.528
8.1940 21.348
8.2092 21.133
8.2244 21.626
8.2396 21.314
8.2547 21.341
8.2699 21.349
8.2851 21.362
8.3003 21.557
8.3154 21.177
8.3306 21.921
8.3458 21.382
8.3610 21.516
8.3761 21.325
8.3913 21.494
8.4065 21.641
8.4217 22.107
8.4368 21.467
8.4520 22.052
8.4672 21.989
8.4824 21.977
8.4975 22.218
8.5127 21.650
8.5279 22.053
8.5431 21.957
8.5582 21.710
8.5734 21.905
8.5886 21.713
8.6038 21.789
8.6189 22.096
8.6341 21.889
8.6493 22.202
8.6645 22.005
8.6796 22.549
8.6948 22.073
8.7100 21.823
8.7252 21.486
8.7403 22.152
8.7555 22.143
8.7707 22.506
8.7859 22.276
8.8010 21.817
8.8162 21.898
8.8314 22.450
8.8466 22.457
8.8617 22.057
8.8769 22.051
8.8921 22.403
8.9073 22.454
8.9224 22.439
8.9376 22.664
8.9528 22.534
8.9680 22.100
8.9831 22.248
8.9983 22.604
9.0135 23.137
9.0287 22.920
9.0438 22.599
9.0590 22.748
9.0742 22.915
9.0894 22.471
9.1045 22.656
9.1197 22.494
9.1349 22.240
9.1501 22.636
9.1652 22.848
9.1804 22.755
9.1956 22.483
9.2108 22.385
9.2259 22.727
9.2411 22.633
9.2563 22.874
9.2715 22.629
9.2866 22.288
9.3018 22.750
9.3170 22.962
9.3322 22.836
9.3473 22.680
9.3625 22.790
9.3777 22.726
9.3929 22.687
9.4080 22.728
9.4232 22.997
9.4384 23.007
9.4536 22.813
9.4687 22.932
9.4839 23.125
9.4991 22.984
9.5143 22.784
9.5294 22.899
9.5446 22.916
9.5598 23.096
9.5750 23.276
9.5901 23.240
9.6053 23.376
9.6205 23.464
9.6357 23.156
9.6508 22.933
9.6660 23.250
9.6812 23.418
9.6964 23.279
9.7115 23.544
9.7267 23.879
9.7419 23.938
9.7571 24.113
9.7722 24.090
9.7874 23.508
9.8026 23.382
9.8178 23.540
9.8329 23.719
9.8481 23.479
9.8633 23.218
9.8785 23.331
9.8936 23.187
9.9088 23.115
9.9240 23.034
9.9392 23.082
9.9543 23.298
9.9695 23.261
9.9847 23.018
9.9999 23.090
10.0150 23.309
10.0302 23.218
10.0454 23.032
10.0606 23.032
10.0757 23.128
10.0909 23.118
10.1061 23.256
10.1213 23.700
10.1364 23.541
10.1516 23.418
10.1668 23.365
10.1820 23.468
10.1971 23.349
10.2123 23.270
10.2275 23.066
10.2427 22.852
10.2578 22.976
10.2730 23.108
10.2882 22.750
10.3034 22.656
10.3185 23.030
10.3337 23.112
10.3489 22.911
10.3641 23.039
10.3792 22.572
10.3944 22.538
10.4096 22.435
10.4248 22.606
10.4399 22.901
10.4551 22.533
10.4703 22.195
10.4855 22.462
10.5006 22.268
10.5158 22.297
10.5310 22.448
10.5462 22.488
10.5613 22.321
10.5765 22.534
10.5917 22.644
10.6069 22.515
10.6220 22.517
10.6372 22.444
10.6524 22.289
10.6676 22.280
10.6827 22.438
10.6979 22.423
10.7131 22.416
10.7283 22.370
10.7434 22.298
10.7586 22.442
10.7738 22.473
10.7890 22.143
10.8041 22.026
10.8193 22.140
10.8345 21.795
10.8497 22.148
10.8648 22.374
10.8800 22.345
10.8952 21.546
10.9104 21.883
10.9255 21.982
10.9407 22.082
10.9559 21.945
10.9711 21.662
10.9862 22.197
11.0014 22.307
11.0166 22.034
11.0318 22.097
11.0469 22.213
11.0621 22.248
11.0773 21.719
11.0925 21.570
11.1076 21.936
11.1228 21.710
11.1380 21.380
11.1532 21.596
11.1683 21.461
11.1835 21.687
11.1987 21.590
11.2139 21.528
11.2290 21.681
11.2442 21.618
11.2594 21.150
11.2746 21.039
11.2897 21.427
11.3049 21.711
11.3201 21.289
11.3353 21.395
11.3504 21.131
11.3656 21.336
11.3808 21.291
11.3960 21.473
11.4111 21.329
11.4263 21.342
11.4415 21.061
11.4567 21.381
11.4718 21.316
11.4870 21.285
11.5022 21.293
11.5174 20.753
11.5325 20.886
11.5477 20.944
11.5629 20.566
11.5781 20.267
11.5932 20.304
11.6084 20.254
11.6236 20.463
11.6388 20.747
11.6539 20.857
11.6691 20.476
11.6843 20.625
11.6995 20.582
11.7146 20.313
11.7298 20.161
11.7450 19.948
11.7602 20.350
11.7753 19.936
11.7905 20.075
11.8057 20.069
11.8209 20.155
11.8360 20.008
11.8512 19.735
11.8664 19.808
11.8816 19.810
11.8967 19.803
11.9119 19.420
11.9271 19.117
11.9423 19.524
11.9574 19.664
11.9726 19.330
11.9878 19.201
12.0030 19.351
12.0181 19.043
12.0333 19.116
12.0485 19.103
12.0637 18.814
12.0788 18.511
12.0940 18.808
12.1092 18.754
12.1244 18.549
12.1395 18.417
12.1547 18.363
12.1699 18.362
12.1851 18.252
12.2002 18.274
12.2154 18.077
12.2306 17.864
12.2458 18.196
12.2609 17.984
12.2761 17.725
12.2913 17.825
12.3065 18.000
12.3216 17.542
12.3368 17.470
12.3520 17.055
12.3672 16.999
12.3823 17.130
12.3975 16.785
12.4127 16.795
12.4279 16.818
12.4430 16.829
12.4582 16.605
12.4734 16.544
12.4886 16.689
12.5037 16.773
12.5189 16.704
12.5341 16.223
12.5493 16.033
12.5644 16.070
12.5796 16.156
12.5948 15.958
12.6100 15.832
12.6251 16.016
12.6403 15.831
12.6555 15.869
12.6707 15.889
12.6858 15.605
12.7010 15.437
12.7162 15.231
12.7314 15.425
12.7465 15.419
12.7617 14.948
12.7769 14.760
12.7921 15.073
12.8072 15.229
12.8224 14.990
12.8376 14.888
12.8528 14.811
12.8679 14.791
12.8831 14.650
12.8983 14.560
12.9135 14.666
12.9286 14.537
12.9438 14.506
12.9590 14.397
12.9742 14.126
12.9893 14.237
13.0045 14.287
13.0197 13.989
13.0349 13.856
13.0500 14.072
13.0652 14.087
13.0804 14.074
13.0956 14.083
13.1107 13.961
13.1259 13.851
13.1411 13.666
13.1563 13.493
13.1714 13.346
13.1866 13.400
13.2018 13.581
13.2170 13.538
13.2321 13.403
13.2473 13.206
13.2625 13.034
13.2777 13.216
13.2928 13.113
13.3080 12.914
13.3232 13.141
13.3384 13.183
13.3535 13.097
13.3687 12.901
13.3839 12.611
13.3991 12.674
13.4142 12.820
13.4294 12.642
13.4446 12.500
13.4598 12.518
13.4749 12.705
13.4901 12.897
13.5053 12.747
13.5205 12.467
13.5356 12.461
13.5508 12.416
13.5660 12.303
13.5812 12.225
13.5963 12.212
13.6115 12.124
13.6267 11.984
13.6419 12.144
13.6570 11.949
13.6722 11.794
13.6874 12.046
13.7026 11.942
13.7177 12.022
13.7329 12.092
13.7481 12.058
13.7633 11.910
13.7784 12.097
13.7936 12.141
13.8088 12.067
13.8239 12.345
13.8391 12.414
13.8543 12.052
13.8695 12.104
13.8846 12.039
13.8998 12.222
13.9150 12.112
13.9302 11.900
13.9453 11.627
13.9605 11.592
13.9757 11.855
13.9909 11.752
14.0060 11.606
14.0212 11.584
14.0364 11.662
14.0516 11.425
14.0667 11.506
14.0819 11.435
14.0971 11.281
14.1123 11.191
14.1274 11.356
14.1426 11.708
14.1578 11.316
14.1730 11.138
14.1881 11.495
14.2033 11.382
14.2185 11.576
14.2337 11.523
14.2488 11.630
14.2640 11.543
14.2792 11.703
14.2944 11.573
14.3095 11.762
14.3247 11.929
14.3399 12.247
14.3551 12.225
14.3702 12.676
14.3854 13.137
14.4006 13.244
14.4158 13.527
14.4309 13.561
14.4461 13.526
14.4613 12.622
14.4765 12.836
14.4916 12.662
14.5068 11.992
14.5220 12.123
14.5372 11.928
14.5523 12.006
14.5675 11.352
14.5827 11.556
14.5979 11.227
14.6130 10.784
14.6282 11.034
14.6434 10.955
14.6586 10.927
14.6737 10.928
14.6889 10.782
14.7041 10.650
14.7193 10.746
14.7344 10.772
14.7496 10.334
14.7648 10.806
14.7800 10.780
14.7951 10.809
14.8103 10.512
14.8255 10.134
14.8407 10.196
14.8558 10.253
14.8710 10.725
14.8862 10.474
14.9014 10.638
14.9165 10.771
14.9317 10.355
14.9469 10.415
14.9621 10.521
14.9772 10.305
14.9924 10.259
15.0076 10.408
15.0228 10.429
15.0379 10.615
15.0531 10.653
15.0683 10.154
15.0835 10.278
15.0986 10.460
15.1138 10.300
15.1290 10.068
15.1442 10.239
15.1593 10.403
15.1745 10.323
15.1897 10.000
15.2049 9.948
15.2200 10.074
15.2352 10.232
15.2504 10.363
15.2656 10.269
15.2807 10.011
15.2959 10.107
15.3111 10.142
15.3263 10.107
15.3414 10.246
15.3566 10.413
15.3718 9.969
15.3870 10.112
15.4021 10.137
15.4173 10.363
15.4325 10.490
15.4477 10.295
15.4628 9.848
15.4780 10.232
15.4932 10.063
15.5084 10.102
15.5235 10.247
15.5387 10.183
15.5539 9.922
15.5691 9.804
15.5842 9.901
15.5994 10.091
15.6146 10.035
15.6298 9.894
15.6449 9.911
15.6601 9.801
15.6753 9.682
15.6905 9.685
15.7056 9.679
15.7208 9.699
15.7360 9.824
15.7512 9.861
15.7663 9.680
15.7815 9.761
15.7967 9.622
15.8119 9.591
15.8270 9.897
15.8422 9.440
15.8574 9.689
15.8726 9.646
15.8877 9.736
15.9029 9.334
15.9181 9.604
15.9333 9.668
15.9484 9.612
15.9636 9.513
15.9788 9.464
15.9940 9.778
16.0091 9.504
16.0243 9.371
16.0395 9.269
16.0547 9.545
16.0698 9.936
16.0850 9.453
16.1002 9.165
16.1154 9.365
16.1305 9.528
16.1457 9.520
16.1609 9.429
16.1761 9.567
16.1912 9.706
16.2064 9.664
16.2216 9.712
16.2368 9.728
16.2519 9.757
16.2671 9.749
16.2823 9.528
16.2975 9.578
16.3126 9.792
16.3278 9.968
16.3430 9.563
16.3582 9.968
16.3733 9.981
16.3885 9.880
16.4037 9.762
16.4189 9.780
16.4340 9.863
16.4492 9.762
16.4644 9.715
16.4796 9.513
16.4947 9.650
16.5099 9.849
16.5251 9.858
16.5403 9.496
16.5554 9.480
16.5706 9.592
16.5858 9.440
16.6010 9.379
16.6161 9.493
16.6313 9.660
16.6465 9.766
16.6617 9.696
16.6768 9.532
16.6920 9.702
16.7072 9.706
16.7224 9.747
16.7375 10.073
16.7527 9.879
16.7679 9.647
16.7831 9.888
16.7982 9.779
16.8134 9.883
16.8286 9.793
16.8438 9.766
16.8589 9.875
16.8741 9.682
16.8893 9.427
16.9045 9.691
16.9196 9.691
16.9348 9.531
16.9500 9.552
16.9652 9.647
16.9803 9.679
16.9955 9.750
17.0107 9.659
17.0259 9.699
17.0410 10.062
17.0562 10.007
17.0714 10.073
17.0866 10.289
17.1017 10.472
17.1169 10.855
17.1321 10.737
17.1473 10.758
17.1624 11.451
17.1776 12.254
17.1928 13.124
17.2080 13.987
17.2231 14.754
17.2383 15.926
17.2535 17.184
17.2687 17.984
17.2838 18.089
17.2990 17.678
17.3142 16.866
17.3294 15.863
17.3445 15.550
17.3597 15.793
17.3749 15.876
17.3901 14.976
17.4052 13.846
17.4204 12.935
17.4356 12.173
17.4508 11.954
17.4659 11.627
17.4811 11.244
17.4963 11.102
17.5115 10.928
17.5266 10.632
17.5418 10.573
17.5570 10.678
17.5722 10.748
17.5873 10.767
17.6025 10.710
17.6177 10.942
17.6329 11.102
17.6480 11.059
17.6632 11.220
17.6784 11.405
17.6936 11.804
17.7087 11.860
17.7239 11.609
17.7391 11.606
17.7543 11.739
17.7694 11.468
17.7846 11.261
17.7998 11.433
17.8150 11.384
17.8301 11.144
17.8453 10.996
17.8605 10.841
17.8757 10.747
17.8908 10.532
17.9060 10.554
17.9212 10.476
17.9364 10.325
17.9515 10.159
17.9667 10.061
17.9819 10.156
17.9971 10.044
18.0122 10.177
18.0274 10.386
18.0426 10.228
18.0578 10.196
18.0729 10.094
18.0881 10.052
18.1033 10.076
18.1185 10.043
18.1336 9.998
18.1488 9.966
18.1640 9.948
18.1792 10.066
18.1943 10.059
18.2095 10.047
18.2247 9.918
18.2399 9.908
18.2550 9.883
18.2702 9.808
18.2854 9.917
18.3006 9.811
18.3157 9.973
18.3309 10.070
18.3461 9.994
18.3613 9.740
18.3764 9.677
18.3916 9.815
18.4068 9.699
18.4220 9.747
18.4371 9.872
18.4523 9.674
18.4675 9.704
18.4827 9.791
18.4978 9.638
18.5130 9.648
18.5282 9.798
18.5434 9.798
18.5585 9.908
18.5737 9.813
18.5889 9.805
18.6041 9.929
18.6192 9.658
18.6344 9.452
18.6496 9.688
18.6648 9.758
18.6799 9.706
18.6951 9.560
18.7103 9.584
18.7255 9.855
18.7406 9.864
18.7558 9.696
18.7710 9.706
18.7862 9.759
18.8013 9.468
18.8165 9.519
18.8317 9.790
18.8469 9.773
18.8620 9.739
18.8772 9.902
18.8924 9.957
18.9076 9.998
18.9227 9.926
18.9379 9.790
18.9531 9.874
18.9683 10.027
18.9834 9.984
18.9986 9.951
19.0138 10.210
19.0290 10.234
19.0441 9.992
19.0593 10.113
19.0745 10.144
19.0897 10.137
19.1048 10.078
19.1200 10.154
19.1352 10.243
19.1504 10.360
19.1655 10.426
19.1807 10.476
19.1959 10.659
19.2111 10.625
19.2262 10.749
19.2414 10.802
19.2566 10.667
19.2718 10.570
19.2869 10.793
19.3021 11.044
19.3173 11.016
19.3325 10.883
19.3476 10.939
19.3628 10.830
19.3780 10.884
19.3932 11.060
19.4083 11.073
19.4235 11.211
19.4387 11.085
19.4539 11.181
19.4690 11.320
19.4842 11.262
19.4994 11.296
19.5146 11.294
19.5297 11.210
19.5449 11.230
19.5601 11.384
19.5753 11.496
19.5904 11.466
19.6056 11.460
19.6208 11.523
19.6360 11.413
19.6511 11.481
19.6663 11.555
19.6815 11.614
19.6967 11.736
19.7118 11.644
19.7270 11.624
19.7422 11.670
19.7574 11.858
19.7725 11.794
19.7877 11.656
19.8029 11.653
19.8180 11.835
19.8332 11.819
19.8484 11.799
19.8636 12.262
19.8787 12.517
19.8939 12.568
19.9091 12.795
19.9243 13.333
19.9394 13.705
19.9546 13.658
19.9698 13.844
19.9850 14.118
20.0001 14.201
20.0153 14.308
20.0305 14.187
20.0457 13.977
20.0608 13.768
20.0760 13.589
20.0912 13.717
20.1064 13.663
20.1215 13.321
20.1367 13.168
20.1519 12.917
20.1671 12.810
20.1822 12.773
20.1974 12.514
20.2126 12.332
20.2278 12.755
20.2429 12.578
20.2581 12.101
20.2733 11.731
20.2885 11.488
20.3036 11.396
20.3188 11.411
20.3340 11.639
20.3492 11.641
20.3643 11.657
20.3795 11.544
20.3947 11.357
20.4099 11.570
20.4250 11.538
20.4402 11.488
20.4554 11.674
20.4706 11.756
20.4857 12.222
20.5009 12.127
20.5161 12.009
20.5313 11.920
20.5464 11.842
20.5616 11.684
20.5768 11.550
20.5920 11.781
20.6071 11.315
20.6223 11.024
20.6375 10.944
20.6527 11.066
20.6678 10.666
20.6830 10.405
20.6982 10.565
20.7134 10.705
20.7285 10.763
20.7437 10.780
20.7589 10.437
20.7741 10.272
20.7892 10.653
20.8044 10.357
20.8196 10.302
20.8348 10.450
20.8499 10.362
20.8651 10.454
20.8803 10.320
20.8955 10.206
20.9106 9.999
20.9258 9.884
20.9410 9.869
20.9562 9.990
20.9713 10.101
20.9865 9.907
21.0017 9.888
21.0169 9.839
21.0320 9.915
21.0472 9.830
21.0624 9.861
21.0776 9.621
21.0927 9.824
21.1079 9.963
21.1231 9.809
21.1383 9.775
21.1534 10.057
21.1686 9.859
21.1838 9.507
21.1990 9.569
21.2141 9.651
21.2293 9.582
21.2445 9.660
21.2597 9.530
21.2748 9.531
21.2900 9.806
21.3052 9.519
21.3204 9.494
21.3355 9.467
21.3507 9.454
21.3659 9.753
21.3811 9.472
21.3962 9.499
21.4114 9.328
21.4266 9.706
21.4418 9.390
21.4569 9.258
21.4721 9.254
21.4873 8.892
21.5025 9.347
21.5176 9.219
21.5328 9.121
21.5480 9.126
21.5632 9.023
21.5783 9.255
21.5935 9.306
21.6087 9.318
21.6239 9.018
21.6390 9.017
21.6542 8.972
21.6694 9.062
21.6846 9.052
21.6997 9.106
21.7149 8.971
21.7301 8.901
21.7453 8.725
21.7604 8.803
21.7756 9.042
21.7908 9.149
21.8060 8.945
21.8211 8.984
21.8363 9.044
21.8515 8.736
21.8667 8.806
21.8818 8.919
21.8970 8.974
21.9122 8.987
21.9274 8.958
21.9425 8.787
21.9577 8.677
21.9729 8.918
21.9881 9.128
22.0032 8.945
22.0184 8.765
22.0336 8.824
22.0488 8.725
22.0639 8.709
22.0791 8.701
22.0943 8.548
22.1095 8.642
22.1246 8.746
22.1398 8.696
22.1550 8.653
22.1702 8.773
22.1853 8.769
22.2005 8.553
22.2157 8.565
22.2309 8.561
22.2460 8.802
22.2612 8.705
22.2764 8.589
22.2916 8.617
22.3067 8.482
22.3219 8.433
22.3371 8.564
22.3523 8.522
22.3674 8.260
22.3826 8.517
22.3978 8.516
22.4130 8.199
22.4281 8.336
22.4433 8.443
22.4585 8.410
22.4737 8.766
22.4888 8.297
22.5040 8.227
22.5192 8.156
22.5344 8.309
22.5495 8.480
22.5647 8.651
22.5799 8.335
22.5951 8.349
22.6102 7.820
22.6254 8.588
22.6406 8.196
22.6558 8.281
22.6709 8.061
22.6861 8.237
22.7013 8.097
22.7165 7.889
22.7316 6.267
