'Id: "" Comment: "" Operator: "Lab Manager" Anode: "Mo" Scantype: "Still (Eiger2R_500K (1D mode))" TimePerStep: "300" X: "11.8" Y: "9.4" Z: "11.284" 
7.2532 18.845
7.2684 18.961
7.2836 18.731
7.2987 19.098
7.3139 18.866
7.3291 19.141
7.3443 19.313
7.3594 19.380
7.3746 19.068
7.3898 19.020
7.4050 19.256
7.4201 19.414
7.4353 19.662
7.4505 19.537
7.4657 19.783
7.4808 19.947
7.4960 19.788
7.5112 19.821
7.5264 19.668
7.5415 19.320
7.5567 19.560
7.5719 19.869
7.5871 20.060
7.6022 20.250
7.6174 20.163
7.6326 20.041
7.6478 19.958
7.6629 20.344
7.6781 20.223
7.6933 20.140
7.7085 20.295
7.7236 20.619
7.7388 20.871
7.7540 20.361
7.7692 20.332
7.7843 20.369
7.7995 20.556
7.8147 20.540
7.8299 20.586
7.8450 20.757
7.8602 21.063
7.8754 21.087
7.8905 20.900
7.9057 20.933
7.9209 21.014
7.9361 21.482
7.9512 21.301
7.9664 20.944
7.9816 21.343
7.9968 21.228
8.0119 21.238
8.0271 21.337
8.0423 21.434
8.0575 21.144
8.0726 20.869
8.0878 20.767
8.1030 20.861
8.1182 20.735
8.1333 21.195
8.1485 21.359
8.1637 21.730
8.1789 21.476
8.1940 21.299
8.2092 21.342
8.2244 21.330
8.2396 21.750
8.2547 21.905
8.2699 21.790
8.2851 22.043
8.3003 21.687
8.3154 22.082
8.3306 22.122
8.3458 22.098
8.3610 21.755
8.3761 22.332
8.3913 22.084
8.4065 22.035
8.4217 22.317
8.4368 21.970
8.4520 22.480
8.4672 21.724
8.4824 21.967
8.4975 21.902
8.5127 21.838
8.5279 22.152
8.5431 21.989
8.5582 22.237
8.5734 22.216
8.5886 22.407
8.6038 22.041
8.6189 22.183
8.6341 22.291
8.6493 22.845
8.6645 22.523
8.6796 22.526
8.6948 22.926
8.7100 23.337
8.7252 22.905
8.7403 22.895
8.7555 22.847
8.7707 22.397
8.7859 22.501
8.8010 22.271
8.8162 22.513
8.8314 22.758
8.8466 22.806
8.8617 22.654
8.8769 22.730
8.8921 22.442
8.9073 22.557
8.9224 22.508
8.9376 22.316
8.9528 22.755
8.9680 22.901
8.9831 22.724
8.9983 22.719
9.0135 22.631
9.0287 22.728
9.0438 22.640
9.0590 23.084
9.0742 23.037
9.0894 23.114
9.1045 23.114
9.1197 23.108
9.1349 22.573
9.1501 22.900
9.1652 22.732
9.1804 22.702
9.1956 22.701
9.2108 22.972
9.2259 23.044
9.2411 22.940
9.2563 23.046
9.2715 23.420
9.2866 22.955
9.3018 23.171
9.3170 23.451
9.3322 23.410
9.3473 23.404
9.3625 23.239
9.3777 23.218
9.3929 22.917
9.4080 23.259
9.4232 23.464
9.4384 23.380
9.4536 23.399
9.4687 23.428
9.4839 23.262
9.4991 23.303
9.5143 23.388
9.5294 23.143
9.5446 23.501
9.5598 23.336
9.5750 23.326
9.5901 23.282
9.6053 23.438
9.6205 23.653
9.6357 23.600
9.6508 23.703
9.6660 23.717
9.6812 23.728
9.6964 23.660
9.7115 24.341
9.7267 24.708
9.7419 24.473
9.7571 24.406
9.7722 24.178
9.7874 24.374
9.8026 24.036
9.8178 23.313
9.8329 23.229
9.8481 23.394
9.8633 23.398
9.8785 23.202
9.8936 23.178
9.9088 23.471
9.9240 23.350
9.9392 23.368
9.9543 23.669
9.9695 23.800
9.9847 23.314
9.9999 23.350
10.0150 23.697
10.0302 23.516
10.0454 23.627
10.0606 23.729
10.0757 23.530
10.0909 23.504
10.1061 23.521
10.1213 23.594
10.1364 23.652
10.1516 23.524
10.1668 23.215
10.1820 23.389
10.1971 23.785
10.2123 23.928
10.2275 24.137
10.2427 24.220
10.2578 23.557
10.2730 23.535
10.2882 23.711
10.3034 23.669
10.3185 23.482
10.3337 23.246
10.3489 23.072
10.3641 23.055
10.3792 22.869
10.3944 22.772
10.4096 22.756
10.4248 22.648
10.4399 22.785
10.4551 23.080
10.4703 23.141
10.4855 23.019
10.5006 22.634
10.5158 22.428
10.5310 22.671
10.5462 22.647
10.5613 22.462
10.5765 22.534
10.5917 22.483
10.6069 22.636
10.6220 23.100
10.6372 23.001
10.6524 22.772
10.6676 22.797
10.6827 22.512
10.6979 22.394
10.7131 22.401
10.7283 22.593
10.7434 22.800
10.7586 22.801
10.7738 23.187
10.7890 22.737
10.8041 22.160
10.8193 22.250
10.8345 22.241
10.8497 22.416
10.8648 22.245
10.8800 22.139
10.8952 22.663
10.9104 22.518
10.9255 22.438
10.9407 21.891
10.9559 22.203
10.9711 22.166
10.9862 22.055
11.0014 22.393
11.0166 22.358
11.0318 22.356
11.0469 22.357
11.0621 22.508
11.0773 21.668
11.0925 21.724
11.1076 22.146
11.1228 21.753
11.1380 21.601
11.1532 22.109
11.1683 21.932
11.1835 21.796
11.1987 21.840
11.2139 22.000
11.2290 22.289
11.2442 21.875
11.2594 22.099
11.2746 22.400
11.2897 22.089
11.3049 21.924
11.3201 21.635
11.3353 21.595
11.3504 21.771
11.3656 21.610
11.3808 21.449
11.3960 21.796
11.4111 21.547
11.4263 21.123
11.4415 21.213
11.4567 21.233
11.4718 21.406
11.4870 21.088
11.5022 20.915
11.5174 21.164
11.5325 21.185
11.5477 21.063
11.5629 20.841
11.5781 20.979
11.5932 20.753
11.6084 21.025
11.6236 21.219
11.6388 21.107
11.6539 20.926
11.6691 20.514
11.6843 20.660
11.6995 20.935
11.7146 20.559
11.7298 20.175
11.7450 20.551
11.7602 20.692
11.7753 20.341
11.7905 20.389
11.8057 20.586
11.8209 20.317
11.8360 20.483
11.8512 20.322
11.8664 19.813
11.8816 19.807
11.8967 19.584
11.9119 19.556
11.9271 19.605
11.9423 19.532
11.9574 19.809
11.9726 19.554
11.9878 19.291
12.0030 18.866
12.0181 18.944
12.0333 18.787
12.0485 19.042
12.0637 19.281
12.0788 18.935
12.0940 18.629
12.1092 18.644
12.1244 18.714
12.1395 18.608
12.1547 18.777
12.1699 18.897
12.1851 18.449
12.2002 18.425
12.2154 18.243
12.2306 17.918
12.2458 18.256
12.2609 18.376
12.2761 17.832
12.2913 17.540
12.3065 17.681
12.3216 17.860
12.3368 17.795
12.3520 17.607
12.3672 17.470
12.3823 17.343
12.3975 17.327
12.4127 17.211
12.4279 17.094
12.4430 16.946
12.4582 17.278
12.4734 17.271
12.4886 17.181
12.5037 17.038
12.5189 16.747
12.5341 16.497
12.5493 16.402
12.5644 16.520
12.5796 16.500
12.5948 16.641
12.6100 16.551
12.6251 16.155
12.6403 15.845
12.6555 15.676
12.6707 15.552
12.6858 15.363
12.7010 15.395
12.7162 15.633
12.7314 15.286
12.7465 15.332
12.7617 15.457
12.7769 15.521
12.7921 15.308
12.8072 14.943
12.8224 15.126
12.8376 15.380
12.8528 15.263
12.8679 15.159
12.8831 14.980
12.8983 14.815
12.9135 14.815
12.9286 14.719
12.9438 14.556
12.9590 14.710
12.9742 14.656
12.9893 14.430
13.0045 14.351
13.0197 14.424
13.0349 14.292
13.0500 14.010
13.0652 14.102
13.0804 14.128
13.0956 14.074
13.1107 13.976
13.1259 13.936
13.1411 13.931
13.1563 13.847
13.1714 13.869
13.1866 13.443
13.2018 13.249
13.2170 13.525
13.2321 13.477
13.2473 13.526
13.2625 13.605
13.2777 13.600
13.2928 13.574
13.3080 13.370
13.3232 13.068
13.3384 13.171
13.3535 13.329
13.3687 13.232
13.3839 13.294
13.3991 13.172
13.4142 13.008
13.4294 12.891
13.4446 12.995
13.4598 13.017
13.4749 12.819
13.4901 12.606
13.5053 12.568
13.5205 12.423
13.5356 12.227
13.5508 12.520
13.5660 12.648
13.5812 12.499
13.5963 12.459
13.6115 12.223
13.6267 12.233
13.6419 12.318
13.6570 12.359
13.6722 12.469
13.6874 12.370
13.7026 12.416
13.7177 12.393
13.7329 12.014
13.7481 12.336
13.7633 12.350
13.7784 12.064
13.7936 11.976
13.8088 12.180
13.8239 12.240
13.8391 12.462
13.8543 12.577
13.8695 12.639
13.8846 12.374
13.8998 12.449
13.9150 12.354
13.9302 12.308
13.9453 12.095
13.9605 11.632
13.9757 11.641
13.9909 11.516
14.0060 11.770
14.0212 11.737
14.0364 11.444
14.0516 11.637
14.0667 11.349
14.0819 11.696
14.0971 11.701
14.1123 11.646
14.1274 11.482
14.1426 11.184
14.1578 11.199
14.1730 11.535
14.1881 11.799
14.2033 11.581
14.2185 11.860
14.2337 11.936
14.2488 11.813
14.2640 11.721
14.2792 12.038
14.2944 12.155
14.3095 12.059
14.3247 12.179
14.3399 12.249
14.3551 12.617
14.3702 12.529
14.3854 12.746
14.4006 13.011
14.4158 12.690
14.4309 12.695
14.4461 12.550
14.4613 12.152
14.4765 12.131
14.4916 11.841
14.5068 12.015
14.5220 11.620
14.5372 11.670
14.5523 11.405
14.5675 11.361
14.5827 11.051
14.5979 11.448
14.6130 11.255
14.6282 11.125
14.6434 11.245
14.6586 11.061
14.6737 10.962
14.6889 10.978
14.7041 10.989
14.7193 11.001
14.7344 11.068
14.7496 11.164
14.7648 10.974
14.7800 10.799
14.7951 10.554
14.8103 10.652
14.8255 10.646
14.8407 10.939
14.8558 10.742
14.8710 10.665
14.8862 10.637
14.9014 10.850
14.9165 10.917
14.9317 10.874
14.9469 10.529
14.9621 10.637
14.9772 10.477
14.9924 10.437
15.0076 10.650
15.0228 10.381
15.0379 10.761
15.0531 10.792
15.0683 10.531
15.0835 10.486
15.0986 10.779
15.1138 10.470
15.1290 10.747
15.1442 10.481
15.1593 10.650
15.1745 10.231
15.1897 10.362
15.2049 10.476
15.2200 10.360
15.2352 10.193
15.2504 10.289
15.2656 10.509
15.2807 10.334
15.2959 10.330
15.3111 10.105
15.3263 10.137
15.3414 10.334
15.3566 10.380
15.3718 10.374
15.3870 10.182
15.4021 10.039
15.4173 10.324
15.4325 10.602
15.4477 10.641
15.4628 10.530
15.4780 10.389
15.4932 10.384
15.5084 10.593
15.5235 10.466
15.5387 10.664
15.5539 10.483
15.5691 10.214
15.5842 10.267
15.5994 10.136
15.6146 10.258
15.6298 10.099
15.6449 10.265
15.6601 10.061
15.6753 9.799
15.6905 10.150
15.7056 9.906
15.7208 10.092
15.7360 10.001
15.7512 9.664
15.7663 10.017
15.7815 9.664
15.7967 9.854
15.8119 9.925
15.8270 9.789
15.8422 9.907
15.8574 10.090
15.8726 9.792
15.8877 9.778
15.9029 9.541
15.9181 9.767
15.9333 9.612
15.9484 9.672
15.9636 9.823
15.9788 9.824
15.9940 9.683
16.0091 9.912
16.0243 10.042
16.0395 9.808
16.0547 9.572
16.0698 9.828
16.0850 9.937
16.1002 9.763
16.1154 9.813
16.1305 9.805
16.1457 9.829
16.1609 9.697
16.1761 9.797
16.1912 9.676
16.2064 9.974
16.2216 9.993
16.2368 9.912
16.2519 10.051
16.2671 10.067
16.2823 10.099
16.2975 10.014
16.3126 9.931
16.3278 10.137
16.3430 10.065
16.3582 9.994
16.3733 10.262
16.3885 10.096
16.4037 9.914
16.4189 9.794
16.4340 9.802
16.4492 9.684
16.4644 9.869
16.4796 9.842
16.4947 9.642
16.5099 9.866
16.5251 9.846
16.5403 9.706
16.5554 9.698
16.5706 9.630
16.5858 9.446
16.6010 9.513
16.6161 9.673
16.6313 9.695
16.6465 9.740
16.6617 9.723
16.6768 9.902
16.6920 10.042
16.7072 10.052
16.7224 10.114
16.7375 10.136
16.7527 9.944
16.7679 9.822
16.7831 9.915
16.7982 9.878
16.8134 9.865
16.8286 9.866
16.8438 9.737
16.8589 9.709
16.8741 9.988
16.8893 10.037
16.9045 9.936
16.9196 9.910
16.9348 9.867
16.9500 9.893
16.9652 9.923
16.9803 9.826
16.9955 9.675
17.0107 9.918
17.0259 10.248
17.0410 10.018
17.0562 10.072
17.0714 10.296
17.0866 10.475
17.1017 10.506
17.1169 10.649
17.1321 10.896
17.1473 11.260
17.1624 11.692
17.1776 12.350
17.1928 13.168
17.2080 13.804
17.2231 14.861
17.2383 16.095
17.2535 17.358
17.2687 18.307
17.2838 18.468
17.2990 17.966
17.3142 17.109
17.3294 16.489
17.3445 16.247
17.3597 16.098
17.3749 15.782
17.3901 15.043
17.4052 14.228
17.4204 13.224
17.4356 12.249
17.4508 11.985
17.4659 11.799
17.4811 11.724
17.4963 11.663
17.5115 11.361
17.5266 11.221
17.5418 11.165
17.5570 11.205
17.5722 11.443
17.5873 11.514
17.6025 11.429
17.6177 11.371
17.6329 11.068
17.6480 11.046
17.6632 11.020
17.6784 11.019
17.6936 11.315
17.7087 10.940
17.7239 10.679
17.7391 10.571
17.7543 10.355
17.7694 10.460
17.7846 10.364
17.7998 10.096
17.8150 10.145
17.8301 10.140
17.8453 10.079
17.8605 10.210
17.8757 10.361
17.8908 10.307
17.9060 10.400
17.9212 10.312
17.9364 10.082
17.9515 10.065
17.9667 10.030
17.9819 10.222
17.9971 10.386
18.0122 10.428
18.0274 10.384
18.0426 10.271
18.0578 10.176
18.0729 10.271
18.0881 10.133
18.1033 10.003
18.1185 9.817
18.1336 9.725
18.1488 9.674
18.1640 9.868
18.1792 9.907
18.1943 9.859
18.2095 9.950
18.2247 9.962
18.2399 9.936
18.2550 10.061
18.2702 9.938
18.2854 9.842
18.3006 9.944
18.3157 10.027
18.3309 10.043
18.3461 9.888
18.3613 9.548
18.3764 9.863
18.3916 9.916
18.4068 9.833
18.4220 9.780
18.4371 9.670
18.4523 9.800
18.4675 9.827
18.4827 9.739
18.4978 9.574
18.5130 9.675
18.5282 9.930
18.5434 9.986
18.5585 9.712
18.5737 9.613
18.5889 9.668
18.6041 9.644
18.6192 9.543
18.6344 9.769
18.6496 9.681
18.6648 9.821
18.6799 9.890
18.6951 9.648
18.7103 9.756
18.7255 9.791
18.7406 9.669
18.7558 9.749
18.7710 9.762
18.7862 9.754
18.8013 9.607
18.8165 9.580
18.8317 9.764
18.8469 9.996
18.8620 10.242
18.8772 10.194
18.8924 9.872
18.9076 9.802
18.9227 9.889
18.9379 9.823
18.9531 9.845
18.9683 9.935
18.9834 9.995
18.9986 10.056
19.0138 10.090
19.0290 10.013
19.0441 10.016
19.0593 10.102
19.0745 10.330
19.0897 10.256
19.1048 10.173
19.1200 10.005
19.1352 10.308
19.1504 10.351
19.1655 10.412
19.1807 10.448
19.1959 10.627
19.2111 10.763
19.2262 10.674
19.2414 10.608
19.2566 10.615
19.2718 10.853
19.2869 10.800
19.3021 10.797
19.3173 10.964
19.3325 11.179
19.3476 11.515
19.3628 11.205
19.3780 11.026
19.3932 11.141
19.4083 11.213
19.4235 11.311
19.4387 11.416
19.4539 11.399
19.4690 11.369
19.4842 11.597
19.4994 11.540
19.5146 11.470
19.5297 11.532
19.5449 11.413
19.5601 11.448
19.5753 11.575
19.5904 11.614
19.6056 11.632
19.6208 11.607
19.6360 11.602
19.6511 11.674
19.6663 11.730
19.6815 11.527
19.6967 11.414
19.7118 11.636
19.7270 11.667
19.7422 11.622
19.7574 11.719
19.7725 11.865
19.7877 11.856
19.8029 11.854
19.8180 11.882
19.8332 12.149
19.8484 12.362
19.8636 12.399
19.8787 12.353
19.8939 12.675
19.9091 13.254
19.9243 13.507
19.9394 13.749
19.9546 14.068
19.9698 14.538
19.9850 14.553
20.0001 14.279
20.0153 14.092
20.0305 14.107
20.0457 14.219
20.0608 13.931
20.0760 13.679
20.0912 13.574
20.1064 13.628
20.1215 13.589
20.1367 13.357
20.1519 13.050
20.1671 12.894
20.1822 12.949
20.1974 12.941
20.2126 12.884
20.2278 12.901
20.2429 12.519
20.2581 12.561
20.2733 12.380
20.2885 11.882
20.3036 11.796
20.3188 11.822
20.3340 11.821
20.3492 11.722
20.3643 11.470
20.3795 11.255
20.3947 11.293
20.4099 11.064
20.4250 10.893
20.4402 10.859
20.4554 10.868
20.4706 10.842
20.4857 10.642
20.5009 10.633
20.5161 10.544
20.5313 10.483
20.5464 10.487
20.5616 10.436
20.5768 10.450
20.5920 10.457
20.6071 10.819
20.6223 10.726
20.6375 10.642
20.6527 10.731
20.6678 10.873
20.6830 10.742
20.6982 10.674
20.7134 10.507
20.7285 10.586
20.7437 10.667
20.7589 10.487
20.7741 10.340
20.7892 10.258
20.8044 10.430
20.8196 10.249
20.8348 10.329
20.8499 10.297
20.8651 10.259
20.8803 10.317
20.8955 10.181
20.9106 10.281
20.9258 10.205
20.9410 9.982
20.9562 9.889
20.9713 10.130
20.9865 9.921
21.0017 9.932
21.0169 9.948
21.0320 9.991
21.0472 9.965
21.0624 9.995
21.0776 9.782
21.0927 9.896
21.1079 10.063
21.1231 9.809
21.1383 9.795
21.1534 9.680
21.1686 9.660
21.1838 9.970
21.1990 9.887
21.2141 9.566
21.2293 9.551
21.2445 9.663
21.2597 9.609
21.2748 9.660
21.2900 9.717
21.3052 9.491
21.3204 9.500
21.3355 9.567
21.3507 9.554
21.3659 9.281
21.3811 9.546
21.3962 9.510
21.4114 9.475
21.4266 9.572
21.4418 9.562
21.4569 9.784
21.4721 9.501
21.4873 9.502
21.5025 9.467
21.5176 9.705
21.5328 9.323
21.5480 9.390
21.5632 9.265
21.5783 9.108
21.5935 9.466
21.6087 9.250
21.6239 9.268
21.6390 9.408
21.6542 9.356
21.6694 9.359
21.6846 9.311
21.6997 9.086
21.7149 8.777
21.7301 8.807
21.7453 8.853
21.7604 9.129
21.7756 9.281
21.7908 9.022
21.8060 9.148
21.8211 9.027
21.8363 8.982
21.8515 9.108
21.8667 9.193
21.8818 9.224
21.8970 9.207
21.9122 8.940
21.9274 8.874
21.9425 8.934
21.9577 8.796
21.9729 8.730
21.9881 8.846
22.0032 9.043
22.0184 9.108
22.0336 8.989
22.0488 8.820
22.0639 8.829
22.0791 9.013
22.0943 8.984
22.1095 8.835
22.1246 8.641
22.1398 8.671
22.1550 8.719
22.1702 8.597
22.1853 8.753
22.2005 8.703
22.2157 8.674
22.2309 8.586
22.2460 8.526
22.2612 8.639
22.2764 8.765
22.2916 8.556
22.3067 8.704
22.3219 8.813
22.3371 8.806
22.3523 8.637
22.3674 8.718
22.3826 8.526
22.3978 8.778
22.4130 8.662
22.4281 8.377
22.4433 8.596
22.4585 8.500
22.4737 8.333
22.4888 8.560
22.5040 8.485
22.5192 8.551
22.5344 8.344
22.5495 8.571
22.5647 8.482
22.5799 8.590
22.5951 8.541
22.6102 8.140
22.6254 8.750
22.6406 8.628
22.6558 8.425
22.6709 8.264
22.6861 8.247
22.7013 8.342
22.7165 8.034
22.7316 6.605
