'Id: "" Comment: "" Operator: "Lab Manager" Anode: "Mo" Scantype: "Still (Eiger2R_500K (1D mode))" TimePerStep: "300" X: "11.8" Y: "9.4" Z: "11.284" 
7.2532 18.759
7.2684 19.003
7.2836 18.984
7.2987 19.034
7.3139 19.158
7.3291 19.207
7.3443 18.700
7.3594 19.124
7.3746 18.982
7.3898 19.108
7.4050 19.704
7.4201 19.298
7.4353 19.525
7.4505 19.794
7.4657 19.393
7.4808 19.425
7.4960 19.841
7.5112 19.705
7.5264 19.368
7.5415 19.471
7.5567 19.750
7.5719 19.845
7.5871 19.632
7.6022 19.653
7.6174 19.519
7.6326 20.030
7.6478 19.897
7.6629 20.042
7.6781 20.182
7.6933 20.225
7.7085 20.400
7.7236 20.213
7.7388 20.153
7.7540 20.052
7.7692 20.387
7.7843 20.571
7.7995 20.284
7.8147 20.404
7.8299 20.232
7.8450 20.475
7.8602 20.543
7.8754 20.485
7.8905 20.553
7.9057 20.445
7.9209 20.576
7.9361 20.908
7.9512 20.984
7.9664 20.760
7.9816 20.583
7.9968 20.798
8.0119 21.186
8.0271 21.258
8.0423 21.095
8.0575 20.924
8.0726 21.028
8.0878 20.962
8.1030 21.074
8.1182 21.077
8.1333 21.224
8.1485 21.051
8.1637 20.916
8.1789 21.469
8.1940 21.241
8.2092 21.621
8.2244 21.504
8.2396 21.024
8.2547 21.429
8.2699 21.646
8.2851 21.315
8.3003 21.692
8.3154 21.427
8.3306 21.078
8.3458 21.571
8.3610 21.675
8.3761 21.860
8.3913 21.890
8.4065 21.553
8.4217 21.369
8.4368 21.722
8.4520 22.366
8.4672 21.555
8.4824 21.648
8.4975 21.725
8.5127 21.862
8.5279 22.183
8.5431 22.010
8.5582 21.783
8.5734 22.398
8.5886 22.538
8.6038 21.686
8.6189 21.747
8.6341 22.195
8.6493 21.913
8.6645 22.167
8.6796 22.031
8.6948 22.423
8.7100 22.035
8.7252 22.345
8.7403 22.010
8.7555 21.763
8.7707 22.035
8.7859 22.266
8.8010 22.484
8.8162 22.549
8.8314 22.714
8.8466 22.077
8.8617 22.540
8.8769 22.083
8.8921 22.460
8.9073 22.526
8.9224 22.873
8.9376 22.621
8.9528 22.563
8.9680 22.487
8.9831 22.511
8.9983 22.579
9.0135 22.654
9.0287 22.798
9.0438 22.383
9.0590 22.938
9.0742 22.458
9.0894 22.456
9.1045 22.969
9.1197 22.898
9.1349 22.574
9.1501 22.514
9.1652 23.013
9.1804 22.696
9.1956 22.988
9.2108 22.703
9.2259 22.779
9.2411 22.691
9.2563 22.705
9.2715 22.623
9.2866 22.589
9.3018 22.969
9.3170 23.050
9.3322 22.986
9.3473 22.909
9.3625 22.578
9.3777 23.036
9.3929 23.097
9.4080 22.708
9.4232 22.884
9.4384 23.051
9.4536 23.132
9.4687 22.795
9.4839 22.814
9.4991 23.052
9.5143 23.111
9.5294 22.956
9.5446 22.909
9.5598 22.907
9.5750 22.816
9.5901 23.128
9.6053 23.606
9.6205 23.547
9.6357 23.162
9.6508 23.264
9.6660 23.267
9.6812 23.318
9.6964 23.898
9.7115 23.929
9.7267 23.886
9.7419 23.822
9.7571 23.965
9.7722 23.861
9.7874 23.680
9.8026 23.750
9.8178 23.797
9.8329 23.701
9.8481 23.553
9.8633 23.644
9.8785 23.249
9.8936 23.199
9.9088 23.006
9.9240 23.097
9.9392 23.401
9.9543 23.300
9.9695 22.996
9.9847 22.943
9.9999 23.260
10.0150 23.316
10.0302 23.052
10.0454 22.945
10.0606 23.350
10.0757 23.686
10.0909 23.676
10.1061 23.214
10.1213 23.197
10.1364 23.506
10.1516 23.360
10.1668 23.485
10.1820 23.803
10.1971 23.523
10.2123 23.220
10.2275 23.291
10.2427 23.286
10.2578 23.137
10.2730 22.832
10.2882 22.814
10.3034 23.073
10.3185 22.869
10.3337 22.993
10.3489 22.940
10.3641 22.459
10.3792 22.591
10.3944 22.873
10.4096 22.910
10.4248 22.837
10.4399 22.227
10.4551 22.226
10.4703 22.370
10.4855 22.546
10.5006 22.759
10.5158 22.891
10.5310 22.656
10.5462 22.858
10.5613 22.825
10.5765 22.828
10.5917 22.549
10.6069 22.284
10.6220 22.517
10.6372 22.815
10.6524 22.449
10.6676 22.411
10.6827 22.551
10.6979 22.545
10.7131 22.585
10.7283 22.714
10.7434 22.676
10.7586 22.286
10.7738 22.213
10.7890 22.057
10.8041 22.330
10.8193 22.207
10.8345 22.190
10.8497 22.157
10.8648 22.436
10.8800 22.511
10.8952 22.057
10.9104 22.023
10.9255 22.326
10.9407 22.280
10.9559 22.259
10.9711 21.748
10.9862 21.852
11.0014 22.006
11.0166 22.151
11.0318 21.983
11.0469 22.368
11.0621 21.860
11.0773 21.828
11.0925 22.356
11.1076 21.992
11.1228 21.644
11.1380 21.289
11.1532 21.457
11.1683 21.961
11.1835 21.863
11.1987 21.717
11.2139 21.653
11.2290 21.716
11.2442 21.584
11.2594 21.743
11.2746 21.916
11.2897 21.463
11.3049 21.477
11.3201 21.810
11.3353 21.666
11.3504 21.356
11.3656 21.306
11.3808 21.135
11.3960 21.420
11.4111 21.412
11.4263 21.248
11.4415 21.178
11.4567 21.149
11.4718 21.220
11.4870 21.109
11.5022 21.186
11.5174 21.379
11.5325 20.832
11.5477 20.906
11.5629 20.709
11.5781 20.633
11.5932 20.664
11.6084 20.598
11.6236 20.597
11.6388 20.655
11.6539 21.192
11.6691 20.863
11.6843 20.327
11.6995 20.324
11.7146 20.527
11.7298 20.565
11.7450 20.536
11.7602 20.551
11.7753 20.000
11.7905 19.812
11.8057 19.759
11.8209 20.090
11.8360 19.827
11.8512 19.647
11.8664 19.824
11.8816 19.881
11.8967 19.629
11.9119 19.351
11.9271 19.614
11.9423 19.857
11.9574 19.563
11.9726 19.287
11.9878 19.248
12.0030 19.141
12.0181 19.036
12.0333 18.898
12.0485 19.078
12.0637 18.976
12.0788 19.018
12.0940 18.786
12.1092 18.570
12.1244 18.414
12.1395 18.495
12.1547 18.494
12.1699 18.631
12.1851 18.630
12.2002 18.078
12.2154 18.140
12.2306 18.206
12.2458 17.999
12.2609 18.089
12.2761 17.984
12.2913 17.869
12.3065 17.637
12.3216 17.929
12.3368 17.842
12.3520 17.399
12.3672 17.251
12.3823 17.284
12.3975 17.243
12.4127 16.937
12.4279 16.775
12.4430 16.922
12.4582 16.828
12.4734 16.846
12.4886 16.841
12.5037 17.125
12.5189 16.880
12.5341 16.418
12.5493 16.582
12.5644 16.529
12.5796 16.585
12.5948 16.431
12.6100 15.960
12.6251 15.902
12.6403 15.931
12.6555 15.857
12.6707 15.928
12.6858 16.021
12.7010 15.709
12.7162 15.484
12.7314 15.207
12.7465 15.204
12.7617 15.258
12.7769 14.947
12.7921 14.786
12.8072 15.094
12.8224 15.149
12.8376 14.744
12.8528 14.830
12.8679 14.731
12.8831 14.511
12.8983 14.583
12.9135 14.475
12.9286 14.500
12.9438 14.414
12.9590 14.274
12.9742 14.120
12.9893 14.095
13.0045 14.194
13.0197 14.248
13.0349 14.257
13.0500 13.936
13.0652 13.821
13.0804 13.917
13.0956 13.810
13.1107 13.728
13.1259 13.544
13.1411 13.399
13.1563 13.350
13.1714 13.396
13.1866 13.423
13.2018 13.494
13.2170 13.393
13.2321 13.098
13.2473 13.104
13.2625 13.094
13.2777 13.022
13.2928 13.165
13.3080 13.178
13.3232 13.015
13.3384 13.023
13.3535 13.037
13.3687 12.988
13.3839 12.798
13.3991 12.716
13.4142 12.839
13.4294 13.001
13.4446 12.719
13.4598 12.777
13.4749 12.733
13.4901 12.465
13.5053 12.217
13.5205 12.391
13.5356 12.473
13.5508 12.359
13.5660 12.276
13.5812 12.316
13.5963 12.199
13.6115 12.200
13.6267 12.330
13.6419 12.440
13.6570 12.107
13.6722 11.997
13.6874 12.044
13.7026 11.907
13.7177 11.870
13.7329 11.914
13.7481 11.717
13.7633 12.033
13.7784 12.147
13.7936 12.261
13.8088 12.314
13.8239 12.205
13.8391 12.402
13.8543 12.385
13.8695 12.450
13.8846 12.367
13.8998 12.111
13.9150 12.128
13.9302 11.834
13.9453 11.986
13.9605 12.037
13.9757 11.816
13.9909 11.882
14.0060 11.701
14.0212 11.646
14.0364 11.678
14.0516 11.494
14.0667 11.507
14.0819 11.387
14.0971 11.598
14.1123 11.544
14.1274 11.471
14.1426 11.444
14.1578 11.596
14.1730 11.482
14.1881 11.597
14.2033 11.485
14.2185 11.661
14.2337 11.531
14.2488 11.625
14.2640 12.016
14.2792 11.745
14.2944 11.695
14.3095 12.147
14.3247 12.364
14.3399 12.415
14.3551 12.607
14.3702 12.771
14.3854 13.016
14.4006 13.201
14.4158 13.439
14.4309 13.382
14.4461 13.117
14.4613 12.690
14.4765 12.673
14.4916 12.486
14.5068 12.528
14.5220 11.814
14.5372 11.659
14.5523 11.565
14.5675 11.390
14.5827 11.261
14.5979 10.898
14.6130 10.951
14.6282 10.740
14.6434 11.137
14.6586 10.748
14.6737 10.718
14.6889 10.497
14.7041 10.562
14.7193 10.868
14.7344 10.656
14.7496 10.588
14.7648 10.681
14.7800 10.475
14.7951 10.638
14.8103 10.509
14.8255 10.413
14.8407 10.753
14.8558 10.528
14.8710 10.567
14.8862 10.664
14.9014 10.716
14.9165 10.666
14.9317 10.568
14.9469 10.011
14.9621 10.365
14.9772 10.239
14.9924 10.333
15.0076 10.284
15.0228 10.209
15.0379 10.368
15.0531 10.236
15.0683 10.616
15.0835 10.009
15.0986 10.494
15.1138 10.491
15.1290 9.895
15.1442 10.379
15.1593 10.075
15.1745 10.162
15.1897 10.638
15.2049 10.143
15.2200 9.945
15.2352 9.818
15.2504 10.198
15.2656 10.440
15.2807 10.224
15.2959 10.285
15.3111 10.207
15.3263 10.109
15.3414 10.234
15.3566 10.341
15.3718 10.030
15.3870 10.091
15.4021 10.055
15.4173 10.206
15.4325 10.406
15.4477 10.019
15.4628 10.201
15.4780 10.017
15.4932 10.156
15.5084 10.076
15.5235 10.027
15.5387 10.221
15.5539 10.193
15.5691 10.045
15.5842 9.686
15.5994 9.633
15.6146 9.673
15.6298 9.972
15.6449 10.026
15.6601 9.665
15.6753 9.685
15.6905 9.588
15.7056 9.699
15.7208 9.688
15.7360 10.004
15.7512 9.679
15.7663 9.585
15.7815 9.476
15.7967 9.615
15.8119 9.609
15.8270 9.600
15.8422 9.621
15.8574 9.627
15.8726 9.847
15.8877 9.730
15.9029 9.657
15.9181 9.649
15.9333 9.330
15.9484 9.369
15.9636 9.398
15.9788 9.687
15.9940 9.764
16.0091 9.457
16.0243 9.502
16.0395 9.527
16.0547 9.583
16.0698 9.552
16.0850 9.540
16.1002 9.411
16.1154 9.771
16.1305 9.760
16.1457 9.456
16.1609 9.642
16.1761 9.593
16.1912 9.718
16.2064 9.728
16.2216 9.615
16.2368 9.835
16.2519 9.673
16.2671 9.590
16.2823 10.082
16.2975 9.914
16.3126 9.879
16.3278 9.909
16.3430 9.736
16.3582 9.632
16.3733 9.807
16.3885 9.972
16.4037 9.909
16.4189 9.781
16.4340 9.660
16.4492 9.683
16.4644 9.610
16.4796 9.417
16.4947 9.473
16.5099 9.893
16.5251 9.766
16.5403 9.715
16.5554 9.808
16.5706 9.616
16.5858 9.669
16.6010 9.700
16.6161 9.426
16.6313 9.456
16.6465 9.563
16.6617 9.416
16.6768 9.416
16.6920 9.656
16.7072 9.830
16.7224 10.145
16.7375 10.311
16.7527 9.951
16.7679 9.799
16.7831 9.971
16.7982 9.978
16.8134 9.811
16.8286 9.623
16.8438 9.655
16.8589 9.828
16.8741 9.820
16.8893 9.831
16.9045 9.850
16.9196 9.831
16.9348 9.736
16.9500 9.609
16.9652 9.839
16.9803 10.021
16.9955 9.856
17.0107 9.780
17.0259 9.884
17.0410 9.970
17.0562 10.157
17.0714 10.075
17.0866 10.075
17.1017 10.420
17.1169 10.426
17.1321 10.804
17.1473 11.335
17.1624 11.743
17.1776 12.319
17.1928 12.779
17.2080 13.738
17.2231 14.930
17.2383 16.259
17.2535 17.373
17.2687 18.183
17.2838 18.614
17.2990 17.889
17.3142 16.829
17.3294 16.245
17.3445 15.970
17.3597 15.996
17.3749 15.942
17.3901 15.249
17.4052 14.256
17.4204 13.248
17.4356 12.341
17.4508 11.762
17.4659 11.513
17.4811 11.459
17.4963 11.251
17.5115 10.989
17.5266 10.816
17.5418 10.682
17.5570 10.955
17.5722 11.163
17.5873 11.054
17.6025 11.082
17.6177 11.215
17.6329 11.244
17.6480 11.234
17.6632 11.492
17.6784 11.727
17.6936 11.997
17.7087 12.199
17.7239 12.099
17.7391 11.802
17.7543 11.369
17.7694 11.224
17.7846 11.202
17.7998 11.161
17.8150 11.078
17.8301 10.785
17.8453 10.559
17.8605 10.405
17.8757 10.275
17.8908 10.271
17.9060 10.160
17.9212 10.068
17.9364 10.150
17.9515 10.132
17.9667 10.109
17.9819 10.184
17.9971 10.172
18.0122 10.174
18.0274 10.061
18.0426 9.980
18.0578 9.975
18.0729 9.748
18.0881 9.959
18.1033 10.203
18.1185 9.965
18.1336 9.963
18.1488 9.956
18.1640 9.877
18.1792 9.916
18.1943 10.036
18.2095 10.060
18.2247 9.654
18.2399 9.581
18.2550 9.750
18.2702 9.840
18.2854 9.927
18.3006 10.015
18.3157 9.740
18.3309 9.784
18.3461 9.649
18.3613 9.575
18.3764 9.921
18.3916 9.924
18.4068 10.090
18.4220 10.108
18.4371 9.933
18.4523 9.845
18.4675 9.760
18.4827 9.777
18.4978 9.830
18.5130 9.734
18.5282 9.721
18.5434 9.757
18.5585 9.770
18.5737 9.759
18.5889 9.569
18.6041 9.779
18.6192 9.756
18.6344 9.557
18.6496 9.777
18.6648 9.834
18.6799 9.707
18.6951 9.680
18.7103 10.049
18.7255 10.008
18.7406 9.916
18.7558 9.773
18.7710 9.781
18.7862 9.792
18.8013 9.602
18.8165 9.540
18.8317 9.640
18.8469 9.967
18.8620 9.955
18.8772 10.119
18.8924 10.093
18.9076 9.980
18.9227 10.101
18.9379 10.068
18.9531 9.915
18.9683 10.069
18.9834 10.034
18.9986 9.776
19.0138 10.103
19.0290 10.395
19.0441 10.265
19.0593 10.154
19.0745 10.361
19.0897 10.373
19.1048 10.336
19.1200 10.667
19.1352 10.629
19.1504 10.479
19.1655 10.403
19.1807 10.419
19.1959 10.475
19.2111 10.733
19.2262 10.824
19.2414 10.776
19.2566 11.062
19.2718 11.015
19.2869 10.873
19.3021 10.947
19.3173 11.138
19.3325 11.137
19.3476 11.116
19.3628 11.174
19.3780 11.104
19.3932 11.155
19.4083 11.464
19.4235 11.365
19.4387 11.436
19.4539 11.271
19.4690 11.143
19.4842 11.267
19.4994 11.326
19.5146 11.507
19.5297 11.473
19.5449 11.418
19.5601 11.507
19.5753 11.579
19.5904 11.587
19.6056 11.455
19.6208 11.608
19.6360 11.786
19.6511 11.681
19.6663 11.431
19.6815 11.306
19.6967 11.535
19.7118 11.714
19.7270 11.795
19.7422 11.859
19.7574 11.876
19.7725 11.980
19.7877 11.917
19.8029 11.926
19.8180 12.007
19.8332 12.173
19.8484 12.293
19.8636 12.285
19.8787 12.401
19.8939 12.573
19.9091 13.226
19.9243 13.478
19.9394 13.523
19.9546 13.949
19.9698 14.322
19.9850 14.278
20.0001 14.258
20.0153 14.420
20.0305 14.126
20.0457 13.933
20.0608 13.588
20.0760 13.437
20.0912 13.661
20.1064 13.751
20.1215 13.393
20.1367 13.249
20.1519 13.136
20.1671 13.037
20.1822 12.896
20.1974 12.922
20.2126 12.657
20.2278 12.349
20.2429 12.357
20.2581 12.421
20.2733 12.380
20.2885 12.114
20.3036 12.084
20.3188 12.304
20.3340 11.894
20.3492 12.084
20.3643 12.081
20.3795 11.753
20.3947 11.763
20.4099 11.671
20.4250 11.901
20.4402 12.042
20.4554 12.139
20.4706 12.104
20.4857 12.062
20.5009 11.999
20.5161 11.868
20.5313 11.762
20.5464 11.771
20.5616 11.536
20.5768 11.481
20.5920 11.295
20.6071 11.156
20.6223 11.234
20.6375 11.043
20.6527 10.884
20.6678 10.804
20.6830 10.799
20.6982 10.805
20.7134 10.883
20.7285 10.696
20.7437 10.533
20.7589 10.317
20.7741 10.167
20.7892 10.412
20.8044 10.445
20.8196 10.078
20.8348 10.454
20.8499 10.312
20.8651 10.516
20.8803 10.097
20.8955 10.252
20.9106 10.315
20.9258 9.988
20.9410 10.210
20.9562 10.218
20.9713 10.036
20.9865 10.296
21.0017 10.291
21.0169 10.154
21.0320 10.369
21.0472 10.161
21.0624 9.914
21.0776 10.179
21.0927 10.111
21.1079 9.881
21.1231 9.885
21.1383 9.982
21.1534 9.924
21.1686 10.002
21.1838 9.615
21.1990 9.837
21.2141 9.751
21.2293 9.669
21.2445 9.764
21.2597 9.775
21.2748 9.428
21.2900 9.644
21.3052 9.662
21.3204 9.541
21.3355 9.617
21.3507 9.509
21.3659 9.572
21.3811 9.550
21.3962 9.639
21.4114 9.516
21.4266 9.321
21.4418 9.285
21.4569 9.066
21.4721 9.285
21.4873 9.213
21.5025 9.501
21.5176 9.415
21.5328 9.447
21.5480 9.132
21.5632 9.336
21.5783 9.121
21.5935 9.040
21.6087 9.275
21.6239 9.354
21.6390 9.232
21.6542 9.064
21.6694 8.995
21.6846 9.093
21.6997 9.340
21.7149 9.321
21.7301 9.158
21.7453 9.017
21.7604 8.947
21.7756 9.029
21.7908 9.112
21.8060 9.081
21.8211 9.051
21.8363 9.235
21.8515 9.174
21.8667 8.989
21.8818 9.061
21.8970 9.281
21.9122 9.041
21.9274 9.173
21.9425 8.980
21.9577 8.674
21.9729 8.892
21.9881 8.843
22.0032 8.846
22.0184 8.779
22.0336 8.785
22.0488 8.943
22.0639 8.784
22.0791 8.763
22.0943 8.826
22.1095 8.506
22.1246 8.578
22.1398 8.695
22.1550 8.590
22.1702 8.581
22.1853 8.659
22.2005 8.734
22.2157 8.534
22.2309 8.639
22.2460 8.560
22.2612 8.496
22.2764 8.481
22.2916 8.566
22.3067 8.427
22.3219 8.441
22.3371 8.734
22.3523 8.436
22.3674 8.551
22.3826 8.417
22.3978 8.572
22.4130 8.373
22.4281 8.623
22.4433 8.382
22.4585 8.511
22.4737 8.383
22.4888 8.403
22.5040 8.623
22.5192 8.701
22.5344 8.241
22.5495 8.400
22.5647 8.430
22.5799 8.504
22.5951 8.646
22.6102 8.508
22.6254 8.261
22.6406 8.267
22.6558 8.026
22.6709 8.454
22.6861 8.182
22.7013 8.199
22.7165 7.983
22.7316 6.400
