'Id: "" Comment: "" Operator: "Lab Manager" Anode: "Mo" Scantype: "Still (Eiger2R_500K (1D mode))" TimePerStep: "300" X: "11.8" Y: "9.4" Z: "11.284" 
7.2532 18.586
7.2684 19.032
7.2836 18.681
7.2987 19.090
7.3139 18.995
7.3291 19.128
7.3443 19.273
7.3594 19.386
7.3746 19.068
7.3898 19.473
7.4050 19.588
7.4201 19.361
7.4353 19.459
7.4505 19.422
7.4657 19.312
7.4808 19.849
7.4960 19.893
7.5112 19.942
7.5264 20.109
7.5415 19.791
7.5567 20.085
7.5719 20.158
7.5871 20.323
7.6022 20.059
7.6174 20.133
7.6326 19.811
7.6478 20.138
7.6629 20.472
7.6781 20.677
7.6933 20.482
7.7085 20.261
7.7236 20.367
7.7388 20.187
7.7540 20.293
7.7692 20.740
7.7843 20.530
7.7995 20.188
7.8147 20.324
7.8299 20.650
7.8450 20.771
7.8602 20.762
7.8754 20.802
7.8905 20.890
7.9057 20.921
7.9209 20.983
7.9361 21.177
7.9512 20.989
7.9664 21.040
7.9816 21.024
7.9968 20.709
8.0119 21.097
8.0271 21.433
8.0423 21.508
8.0575 21.521
8.0726 21.333
8.0878 21.333
8.1030 20.937
8.1182 21.482
8.1333 21.965
8.1485 21.858
8.1637 21.963
8.1789 21.624
8.1940 21.914
8.2092 21.717
8.2244 21.879
8.2396 21.855
8.2547 21.455
8.2699 21.648
8.2851 21.762
8.3003 21.675
8.3154 21.846
8.3306 21.743
8.3458 21.811
8.3610 21.833
8.3761 22.348
8.3913 21.936
8.4065 21.752
8.4217 22.659
8.4368 22.145
8.4520 22.114
8.4672 22.079
8.4824 21.866
8.4975 21.743
8.5127 21.656
8.5279 21.928
8.5431 22.423
8.5582 21.816
8.5734 21.989
8.5886 22.095
8.6038 21.676
8.6189 22.211
8.6341 22.348
8.6493 22.206
8.6645 22.281
8.6796 22.100
8.6948 22.551
8.7100 22.542
8.7252 22.322
8.7403 22.488
8.7555 22.323
8.7707 22.646
8.7859 22.319
8.8010 22.559
8.8162 22.531
8.8314 22.412
8.8466 22.388
8.8617 22.472
8.8769 22.646
8.8921 22.511
8.9073 22.515
8.9224 22.803
8.9376 23.049
8.9528 22.567
8.9680 22.535
8.9831 22.242
8.9983 22.765
9.0135 22.602
9.0287 22.999
9.0438 23.013
9.0590 22.796
9.0742 23.336
9.0894 22.712
9.1045 22.984
9.1197 22.862
9.1349 22.805
9.1501 23.054
9.1652 23.084
9.1804 23.197
9.1956 22.946
9.2108 22.805
9.2259 22.949
9.2411 22.888
9.2563 23.018
9.2715 23.224
9.2866 22.645
9.3018 22.700
9.3170 23.196
9.3322 23.401
9.3473 23.013
9.3625 23.271
9.3777 23.525
9.3929 23.340
9.4080 23.269
9.4232 23.277
9.4384 23.319
9.4536 23.421
9.4687 23.361
9.4839 23.147
9.4991 23.080
9.5143 23.145
9.5294 23.270
9.5446 23.518
9.5598 23.424
9.5750 23.268
9.5901 23.620
9.6053 23.433
9.6205 23.134
9.6357 23.372
9.6508 23.637
9.6660 23.673
9.6812 23.730
9.6964 23.662
9.7115 23.883
9.7267 24.123
9.7419 24.235
9.7571 24.260
9.7722 24.076
9.7874 23.882
9.8026 23.864
9.8178 23.707
9.8329 23.529
9.8481 23.842
9.8633 23.863
9.8785 24.000
9.8936 24.018
9.9088 23.622
9.9240 23.640
9.9392 23.851
9.9543 23.813
9.9695 23.475
9.9847 23.663
9.9999 23.677
10.0150 23.401
10.0302 23.472
10.0454 23.465
10.0606 23.127
10.0757 23.116
10.0909 23.355
10.1061 23.058
10.1213 23.197
10.1364 23.268
10.1516 22.767
10.1668 23.057
10.1820 23.385
10.1971 23.110
10.2123 23.129
10.2275 23.082
10.2427 22.987
10.2578 22.948
10.2730 22.846
10.2882 23.168
10.3034 23.186
10.3185 22.811
10.3337 22.810
10.3489 22.833
10.3641 23.039
10.3792 22.950
10.3944 22.995
10.4096 23.384
10.4248 23.193
10.4399 22.894
10.4551 22.773
10.4703 23.053
10.4855 22.969
10.5006 22.655
10.5158 22.511
10.5310 22.290
10.5462 22.503
10.5613 22.446
10.5765 22.830
10.5917 22.848
10.6069 22.504
10.6220 22.321
10.6372 22.457
10.6524 22.522
10.6676 22.998
10.6827 22.834
10.6979 22.336
10.7131 22.355
10.7283 22.426
10.7434 22.187
10.7586 22.347
10.7738 22.043
10.7890 22.387
10.8041 22.323
10.8193 22.557
10.8345 22.490
10.8497 22.002
10.8648 21.778
10.8800 22.188
10.8952 22.094
10.9104 22.102
10.9255 22.086
10.9407 22.093
10.9559 21.886
10.9711 21.785
10.9862 21.980
11.0014 22.327
11.0166 22.349
11.0318 22.243
11.0469 22.052
11.0621 21.677
11.0773 21.721
11.0925 21.615
11.1076 21.868
11.1228 21.730
11.1380 22.030
11.1532 21.941
11.1683 21.815
11.1835 21.931
11.1987 21.733
11.2139 21.630
11.2290 21.658
11.2442 21.527
11.2594 21.664
11.2746 21.702
11.2897 21.668
11.3049 21.627
11.3201 21.288
11.3353 21.891
11.3504 21.774
11.3656 21.624
11.3808 21.591
11.3960 21.221
11.4111 21.239
11.4263 21.507
11.4415 21.531
11.4567 21.134
11.4718 21.216
11.4870 21.411
11.5022 21.167
11.5174 21.172
11.5325 21.594
11.5477 21.348
11.5629 21.238
11.5781 21.068
11.5932 20.691
11.6084 20.794
11.6236 20.522
11.6388 20.478
11.6539 20.550
11.6691 20.412
11.6843 20.411
11.6995 20.435
11.7146 20.484
11.7298 20.416
11.7450 20.249
11.7602 20.364
11.7753 20.142
11.7905 20.420
11.8057 20.557
11.8209 20.447
11.8360 19.889
11.8512 19.840
11.8664 20.232
11.8816 20.303
11.8967 20.025
11.9119 19.513
11.9271 19.350
11.9423 19.606
11.9574 19.661
11.9726 19.368
11.9878 19.357
12.0030 19.142
12.0181 19.024
12.0333 19.190
12.0485 19.103
12.0637 19.050
12.0788 18.777
12.0940 18.541
12.1092 18.877
12.1244 19.078
12.1395 18.478
12.1547 18.551
12.1699 18.448
12.1851 18.310
12.2002 18.425
12.2154 18.329
12.2306 18.206
12.2458 17.994
12.2609 17.974
12.2761 18.023
12.2913 17.699
12.3065 17.620
12.3216 17.678
12.3368 17.669
12.3520 17.470
12.3672 17.110
12.3823 17.192
12.3975 17.205
12.4127 16.893
12.4279 16.934
12.4430 17.103
12.4582 16.828
12.4734 16.855
12.4886 16.937
12.5037 17.044
12.5189 16.905
12.5341 16.562
12.5493 16.551
12.5644 16.492
12.5796 16.251
12.5948 15.894
12.6100 15.890
12.6251 15.943
12.6403 15.909
12.6555 16.247
12.6707 15.997
12.6858 15.685
12.7010 15.777
12.7162 15.924
12.7314 15.937
12.7465 15.562
12.7617 15.406
12.7769 15.353
12.7921 15.081
12.8072 15.157
12.8224 15.328
12.8376 15.141
12.8528 15.113
12.8679 14.964
12.8831 14.958
12.8983 15.052
12.9135 14.856
12.9286 14.605
12.9438 14.614
12.9590 14.479
12.9742 14.509
12.9893 14.639
13.0045 14.577
13.0197 14.436
13.0349 14.223
13.0500 14.141
13.0652 14.071
13.0804 13.899
13.0956 14.043
13.1107 13.977
13.1259 13.914
13.1411 14.102
13.1563 13.760
13.1714 13.603
13.1866 13.671
13.2018 13.677
13.2170 13.781
13.2321 13.467
13.2473 13.242
13.2625 13.316
13.2777 13.284
13.2928 13.187
13.3080 13.114
13.3232 13.182
13.3384 13.192
13.3535 13.180
13.3687 13.143
13.3839 13.237
13.3991 13.070
13.4142 12.959
13.4294 13.076
13.4446 12.983
13.4598 12.963
13.4749 12.664
13.4901 12.614
13.5053 12.901
13.5205 12.706
13.5356 12.654
13.5508 12.443
13.5660 12.470
13.5812 12.600
13.5963 12.563
13.6115 12.504
13.6267 12.062
13.6419 12.169
13.6570 12.337
13.6722 12.268
13.6874 12.098
13.7026 11.952
13.7177 11.922
13.7329 12.058
13.7481 12.268
13.7633 12.196
13.7784 12.395
13.7936 12.274
13.8088 12.173
13.8239 12.295
13.8391 12.544
13.8543 12.433
13.8695 12.307
13.8846 12.287
13.8998 12.113
13.9150 12.020
13.9302 11.875
13.9453 12.030
13.9605 11.901
13.9757 11.974
13.9909 11.775
14.0060 11.514
14.0212 11.394
14.0364 11.623
14.0516 11.796
14.0667 11.588
14.0819 11.542
14.0971 11.389
14.1123 11.593
14.1274 11.492
14.1426 11.473
14.1578 11.640
14.1730 11.387
14.1881 11.006
14.2033 11.579
14.2185 11.572
14.2337 11.580
14.2488 11.516
14.2640 11.501
14.2792 11.946
14.2944 11.623
14.3095 11.740
14.3247 12.016
14.3399 12.316
14.3551 12.406
14.3702 12.616
14.3854 12.956
14.4006 13.073
14.4158 13.194
14.4309 12.829
14.4461 12.728
14.4613 12.957
14.4765 12.738
14.4916 12.221
14.5068 12.308
14.5220 12.273
14.5372 11.765
14.5523 11.414
14.5675 11.123
14.5827 11.084
14.5979 10.943
14.6130 10.733
14.6282 10.858
14.6434 10.797
14.6586 10.704
14.6737 10.967
14.6889 10.951
14.7041 10.937
14.7193 11.043
14.7344 10.837
14.7496 10.876
14.7648 11.079
14.7800 10.869
14.7951 10.922
14.8103 10.785
14.8255 11.163
14.8407 10.695
14.8558 11.066
14.8710 10.601
14.8862 11.100
14.9014 10.564
14.9165 10.961
14.9317 10.996
14.9469 10.698
14.9621 10.911
14.9772 10.285
14.9924 10.516
15.0076 10.374
15.0228 11.010
15.0379 10.513
15.0531 10.340
15.0683 10.472
15.0835 10.494
15.0986 10.526
15.1138 10.506
15.1290 10.217
15.1442 10.121
15.1593 10.307
15.1745 10.737
15.1897 10.725
15.2049 10.420
15.2200 10.228
15.2352 10.279
15.2504 10.172
15.2656 10.135
15.2807 10.092
15.2959 10.481
15.3111 10.125
15.3263 10.192
15.3414 10.266
15.3566 10.198
15.3718 10.204
15.3870 10.493
15.4021 10.424
15.4173 10.271
15.4325 10.449
15.4477 10.754
15.4628 10.448
15.4780 10.316
15.4932 10.288
15.5084 10.357
15.5235 10.103
15.5387 10.305
15.5539 10.405
15.5691 10.184
15.5842 10.293
15.5994 9.959
15.6146 10.120
15.6298 10.095
15.6449 10.017
15.6601 10.021
15.6753 10.098
15.6905 10.197
15.7056 9.760
15.7208 9.768
15.7360 9.938
15.7512 9.882
15.7663 9.922
15.7815 9.976
15.7967 9.834
15.8119 9.958
15.8270 9.974
15.8422 9.945
15.8574 9.945
15.8726 9.774
15.8877 9.736
15.9029 9.545
15.9181 9.945
15.9333 9.791
15.9484 9.522
15.9636 9.773
15.9788 9.889
15.9940 9.731
16.0091 9.974
16.0243 9.820
16.0395 9.613
16.0547 9.805
16.0698 9.887
16.0850 9.842
16.1002 9.952
16.1154 9.896
16.1305 9.777
16.1457 9.939
16.1609 9.717
16.1761 9.779
16.1912 9.669
16.2064 9.917
16.2216 9.918
16.2368 9.850
16.2519 9.573
16.2671 9.932
16.2823 9.953
16.2975 9.939
16.3126 10.143
16.3278 10.068
16.3430 9.915
16.3582 9.887
16.3733 10.031
16.3885 10.339
16.4037 10.469
16.4189 10.328
16.4340 9.824
16.4492 9.662
16.4644 9.870
16.4796 9.763
16.4947 9.795
16.5099 9.837
16.5251 9.714
16.5403 9.579
16.5554 9.541
16.5706 9.772
16.5858 9.929
16.6010 9.797
16.6161 9.721
16.6313 9.703
16.6465 9.643
16.6617 9.809
16.6768 10.100
16.6920 10.128
16.7072 10.106
16.7224 10.158
16.7375 10.204
16.7527 10.066
16.7679 10.136
16.7831 10.259
16.7982 10.117
16.8134 9.927
16.8286 10.037
16.8438 9.952
16.8589 9.904
16.8741 9.727
16.8893 9.664
16.9045 9.669
16.9196 9.869
16.9348 9.894
16.9500 9.625
16.9652 9.825
16.9803 10.083
16.9955 9.998
17.0107 9.901
17.0259 9.994
17.0410 10.243
17.0562 10.367
17.0714 10.290
17.0866 10.429
17.1017 10.666
17.1169 10.842
17.1321 11.122
17.1473 11.564
17.1624 11.998
17.1776 12.576
17.1928 13.435
17.2080 14.281
17.2231 15.020
17.2383 16.296
17.2535 17.782
17.2687 18.639
17.2838 18.969
17.2990 18.330
17.3142 17.216
17.3294 16.531
17.3445 16.185
17.3597 16.062
17.3749 15.882
17.3901 15.120
17.4052 14.078
17.4204 13.077
17.4356 12.325
17.4508 11.969
17.4659 11.518
17.4811 11.271
17.4963 11.214
17.5115 10.980
17.5266 10.708
17.5418 10.562
17.5570 10.504
17.5722 10.586
17.5873 10.795
17.6025 10.741
17.6177 10.520
17.6329 10.423
17.6480 10.518
17.6632 10.596
17.6784 10.710
17.6936 11.000
17.7087 10.962
17.7239 10.738
17.7391 10.846
17.7543 10.914
17.7694 10.763
17.7846 10.745
17.7998 10.528
17.8150 10.564
17.8301 11.024
17.8453 11.136
17.8605 11.055
17.8757 11.107
17.8908 10.958
17.9060 10.903
17.9212 10.685
17.9364 10.607
17.9515 10.494
17.9667 10.334
17.9819 10.533
17.9971 10.504
18.0122 10.305
18.0274 10.380
18.0426 10.439
18.0578 10.386
18.0729 10.183
18.0881 10.010
18.1033 10.083
18.1185 10.266
18.1336 9.998
18.1488 9.588
18.1640 9.824
18.1792 10.028
18.1943 9.776
18.2095 9.856
18.2247 10.050
18.2399 10.073
18.2550 10.026
18.2702 9.728
18.2854 9.804
18.3006 9.860
18.3157 9.894
18.3309 9.851
18.3461 9.700
18.3613 9.868
18.3764 9.739
18.3916 9.829
18.4068 9.894
18.4220 9.904
18.4371 9.810
18.4523 9.505
18.4675 9.765
18.4827 10.018
18.4978 9.842
18.5130 9.771
18.5282 9.788
18.5434 9.906
18.5585 9.923
18.5737 9.720
18.5889 9.756
18.6041 9.706
18.6192 9.710
18.6344 9.815
18.6496 9.894
18.6648 10.196
18.6799 10.009
18.6951 9.816
18.7103 9.852
18.7255 9.739
18.7406 9.787
18.7558 9.745
18.7710 9.908
18.7862 9.764
18.8013 9.481
18.8165 9.545
18.8317 9.663
18.8469 10.002
18.8620 10.170
18.8772 10.040
18.8924 9.891
18.9076 9.926
18.9227 10.134
18.9379 10.145
18.9531 9.979
18.9683 10.129
18.9834 10.071
18.9986 10.068
19.0138 10.192
19.0290 10.192
19.0441 10.327
19.0593 10.179
19.0745 10.168
19.0897 10.283
19.1048 10.404
19.1200 10.384
19.1352 10.356
19.1504 10.417
19.1655 10.646
19.1807 10.619
19.1959 10.516
19.2111 10.695
19.2262 10.793
19.2414 10.840
19.2566 10.833
19.2718 10.817
19.2869 11.051
19.3021 11.074
19.3173 10.961
19.3325 10.945
19.3476 10.915
19.3628 10.894
19.3780 11.217
19.3932 11.350
19.4083 11.115
19.4235 11.128
19.4387 11.339
19.4539 11.526
19.4690 11.360
19.4842 11.246
19.4994 11.320
19.5146 11.443
19.5297 11.506
19.5449 11.456
19.5601 11.527
19.5753 11.509
19.5904 11.587
19.6056 11.817
19.6208 11.774
19.6360 11.447
19.6511 11.249
19.6663 11.442
19.6815 11.690
19.6967 11.654
19.7118 11.733
19.7270 11.984
19.7422 11.969
19.7574 11.774
19.7725 11.638
19.7877 11.436
19.8029 11.722
19.8180 12.123
19.8332 12.119
19.8484 12.059
19.8636 12.254
19.8787 12.420
19.8939 12.639
19.9091 13.079
19.9243 13.764
19.9394 14.187
19.9546 13.985
19.9698 13.940
19.9850 14.526
20.0001 14.850
20.0153 14.403
20.0305 14.123
20.0457 14.175
20.0608 14.050
20.0760 13.971
20.0912 13.808
20.1064 13.608
20.1215 13.396
20.1367 13.201
20.1519 13.105
20.1671 13.151
20.1822 12.995
20.1974 12.897
20.2126 12.686
20.2278 12.604
20.2429 12.304
20.2581 12.220
20.2733 12.071
20.2885 11.684
20.3036 11.803
20.3188 12.006
20.3340 11.780
20.3492 11.853
20.3643 11.703
20.3795 11.318
20.3947 11.238
20.4099 11.224
20.4250 10.943
20.4402 10.811
20.4554 10.851
20.4706 11.073
20.4857 11.181
20.5009 10.901
20.5161 10.737
20.5313 10.621
20.5464 10.618
20.5616 10.986
20.5768 10.975
20.5920 10.846
20.6071 10.739
20.6223 10.652
20.6375 10.472
20.6527 10.661
20.6678 10.630
20.6830 10.421
20.6982 10.508
20.7134 10.646
20.7285 10.495
20.7437 10.652
20.7589 10.621
20.7741 10.503
20.7892 10.330
20.8044 10.348
20.8196 10.393
20.8348 10.413
20.8499 10.321
20.8651 10.007
20.8803 10.497
20.8955 10.401
20.9106 10.512
20.9258 10.440
20.9410 10.339
20.9562 10.225
20.9713 10.390
20.9865 10.418
21.0017 10.383
21.0169 10.503
21.0320 10.178
21.0472 10.166
21.0624 10.143
21.0776 10.265
21.0927 10.049
21.1079 9.706
21.1231 9.962
21.1383 9.798
21.1534 9.761
21.1686 10.134
21.1838 9.606
21.1990 9.841
21.2141 9.908
21.2293 9.683
21.2445 9.773
21.2597 9.549
21.2748 9.925
21.2900 9.759
21.3052 9.833
21.3204 9.372
21.3355 9.560
21.3507 9.393
21.3659 9.408
21.3811 9.479
21.3962 9.216
21.4114 9.398
21.4266 9.337
21.4418 9.789
21.4569 9.231
21.4721 9.290
21.4873 9.376
21.5025 9.604
21.5176 9.439
21.5328 9.412
21.5480 9.436
21.5632 9.108
21.5783 9.163
21.5935 8.966
21.6087 9.299
21.6239 9.178
21.6390 9.229
21.6542 9.022
21.6694 9.074
21.6846 8.966
21.6997 9.044
21.7149 9.178
21.7301 9.278
21.7453 9.248
21.7604 9.193
21.7756 9.032
21.7908 9.046
21.8060 9.063
21.8211 9.161
21.8363 9.180
21.8515 9.007
21.8667 9.140
21.8818 9.082
21.8970 8.856
21.9122 8.804
21.9274 8.975
21.9425 9.017
21.9577 8.952
21.9729 8.930
21.9881 8.930
22.0032 8.980
22.0184 8.906
22.0336 8.844
22.0488 8.781
22.0639 8.693
22.0791 8.719
22.0943 8.702
22.1095 8.764
22.1246 8.589
22.1398 8.636
22.1550 8.678
22.1702 8.492
22.1853 8.645
22.2005 8.679
22.2157 8.474
22.2309 8.641
22.2460 8.647
22.2612 8.582
22.2764 8.569
22.2916 8.488
22.3067 8.634
22.3219 8.495
22.3371 8.636
22.3523 8.585
22.3674 8.611
22.3826 8.416
22.3978 8.061
22.4130 8.323
22.4281 8.416
22.4433 8.596
22.4585 8.611
22.4737 8.294
22.4888 8.514
22.5040 8.511
22.5192 8.415
22.5344 8.304
22.5495 8.498
22.5647 8.474
22.5799 8.487
22.5951 8.569
22.6102 8.495
22.6254 8.322
22.6406 8.547
22.6558 8.322
22.6709 8.376
22.6861 8.574
22.7013 8.167
22.7165 8.092
22.7316 6.599
