'Id: "" Comment: "" Operator: "Lab Manager" Anode: "Mo" Scantype: "Still (Eiger2R_500K (1D mode))" TimePerStep: "300" X: "11.8" Y: "9.4" Z: "11.284" 
7.2532 18.764
7.2684 18.833
7.2836 19.352
7.2987 18.986
7.3139 18.568
7.3291 19.278
7.3443 18.690
7.3594 18.944
7.3746 19.152
7.3898 19.094
7.4050 19.119
7.4201 18.792
7.4353 19.014
7.4505 19.555
7.4657 19.273
7.4808 19.845
7.4960 19.632
7.5112 19.535
7.5264 19.731
7.5415 19.828
7.5567 19.392
7.5719 19.329
7.5871 19.629
7.6022 19.613
7.6174 19.673
7.6326 19.795
7.6478 19.832
7.6629 20.056
7.6781 19.966
7.6933 19.663
7.7085 19.887
7.7236 20.247
7.7388 20.113
7.7540 19.986
7.7692 20.068
7.7843 20.340
7.7995 20.310
7.8147 20.165
7.8299 20.176
7.8450 20.354
7.8602 20.428
7.8754 20.385
7.8905 20.618
7.9057 20.655
7.9209 20.526
7.9361 20.750
7.9512 21.062
7.9664 21.072
7.9816 20.909
7.9968 20.915
8.0119 20.969
8.0271 20.881
8.0423 21.093
8.0575 20.789
8.0726 21.101
8.0878 20.996
8.1030 20.587
8.1182 20.782
8.1333 21.437
8.1485 21.511
8.1637 21.744
8.1789 21.305
8.1940 21.180
8.2092 21.093
8.2244 21.228
8.2396 21.320
8.2547 21.103
8.2699 21.392
8.2851 21.380
8.3003 21.626
8.3154 21.033
8.3306 21.392
8.3458 21.783
8.3610 22.066
8.3761 21.428
8.3913 21.543
8.4065 21.420
8.4217 22.111
8.4368 21.875
8.4520 21.659
8.4672 22.096
8.4824 21.805
8.4975 22.037
8.5127 21.396
8.5279 21.322
8.5431 21.709
8.5582 21.658
8.5734 22.043
8.5886 22.186
8.6038 21.943
8.6189 22.230
8.6341 21.890
8.6493 22.109
8.6645 22.050
8.6796 22.102
8.6948 22.385
8.7100 22.283
8.7252 22.223
8.7403 22.016
8.7555 22.315
8.7707 22.028
8.7859 22.064
8.8010 22.533
8.8162 22.697
8.8314 22.577
8.8466 22.258
8.8617 21.926
8.8769 22.540
8.8921 22.392
8.9073 22.098
8.9224 22.762
8.9376 22.388
8.9528 22.327
8.9680 22.084
8.9831 22.562
8.9983 22.533
9.0135 22.358
9.0287 22.759
9.0438 22.626
9.0590 22.633
9.0742 22.687
9.0894 22.716
9.1045 22.779
9.1197 22.643
9.1349 23.077
9.1501 23.177
9.1652 23.021
9.1804 22.552
9.1956 22.660
9.2108 22.501
9.2259 22.826
9.2411 22.720
9.2563 22.354
9.2715 22.576
9.2866 22.497
9.3018 22.559
9.3170 23.006
9.3322 22.839
9.3473 22.653
9.3625 22.867
9.3777 22.751
9.3929 22.725
9.4080 22.490
9.4232 22.782
9.4384 22.894
9.4536 22.791
9.4687 23.006
9.4839 23.112
9.4991 23.122
9.5143 22.973
9.5294 23.091
9.5446 23.094
9.5598 23.134
9.5750 23.356
9.5901 23.492
9.6053 23.279
9.6205 23.093
9.6357 23.102
9.6508 23.147
9.6660 23.502
9.6812 23.618
9.6964 23.716
9.7115 23.796
9.7267 23.823
9.7419 23.837
9.7571 23.927
9.7722 23.833
9.7874 23.661
9.8026 23.688
9.8178 23.455
9.8329 23.117
9.8481 23.127
9.8633 23.383
9.8785 23.013
9.8936 22.805
9.9088 22.960
9.9240 23.083
9.9392 23.043
9.9543 22.858
9.9695 22.972
9.9847 23.309
9.9999 23.402
10.0150 23.162
10.0302 23.103
10.0454 23.395
10.0606 23.329
10.0757 23.312
10.0909 23.254
10.1061 23.078
10.1213 23.288
10.1364 23.231
10.1516 22.930
10.1668 23.090
10.1820 23.275
10.1971 23.188
10.2123 22.938
10.2275 23.021
10.2427 22.939
10.2578 22.794
10.2730 22.617
10.2882 22.501
10.3034 22.858
10.3185 22.984
10.3337 22.643
10.3489 22.737
10.3641 22.710
10.3792 22.687
10.3944 22.844
10.4096 22.614
10.4248 22.474
10.4399 22.429
10.4551 22.584
10.4703 22.502
10.4855 22.304
10.5006 22.128
10.5158 22.535
10.5310 22.659
10.5462 22.487
10.5613 22.294
10.5765 22.280
10.5917 22.364
10.6069 22.430
10.6220 22.268
10.6372 22.456
10.6524 22.629
10.6676 22.679
10.6827 22.802
10.6979 22.621
10.7131 22.295
10.7283 22.333
10.7434 22.155
10.7586 22.288
10.7738 21.887
10.7890 22.295
10.8041 22.368
10.8193 22.225
10.8345 22.330
10.8497 22.207
10.8648 21.856
10.8800 22.564
10.8952 22.524
10.9104 22.328
10.9255 22.376
10.9407 22.080
10.9559 22.066
10.9711 21.858
10.9862 21.875
11.0014 21.832
11.0166 22.015
11.0318 22.154
11.0469 22.329
11.0621 22.099
11.0773 21.972
11.0925 21.796
11.1076 21.677
11.1228 21.661
11.1380 22.099
11.1532 21.892
11.1683 21.577
11.1835 21.961
11.1987 21.780
11.2139 21.669
11.2290 21.790
11.2442 21.816
11.2594 21.669
11.2746 21.712
11.2897 21.086
11.3049 20.858
11.3201 21.194
11.3353 21.529
11.3504 21.394
11.3656 21.419
11.3808 21.237
11.3960 21.502
11.4111 21.412
11.4263 21.251
11.4415 21.010
11.4567 21.135
11.4718 20.983
11.4870 21.001
11.5022 21.118
11.5174 21.181
11.5325 21.059
11.5477 20.618
11.5629 20.765
11.5781 21.109
11.5932 21.000
11.6084 20.779
11.6236 20.813
11.6388 20.968
11.6539 20.640
11.6691 20.541
11.6843 20.566
11.6995 20.520
11.7146 20.711
11.7298 20.855
11.7450 20.581
11.7602 20.395
11.7753 20.605
11.7905 20.330
11.8057 20.325
11.8209 20.029
11.8360 19.808
11.8512 19.752
11.8664 19.801
11.8816 19.933
11.8967 19.669
11.9119 19.665
11.9271 19.737
11.9423 19.478
11.9574 19.491
11.9726 19.189
11.9878 18.824
12.0030 19.268
12.0181 19.365
12.0333 19.029
12.0485 18.703
12.0637 18.961
12.0788 19.072
12.0940 18.819
12.1092 18.717
12.1244 18.336
12.1395 18.284
12.1547 18.526
12.1699 18.367
12.1851 18.232
12.2002 18.356
12.2154 18.343
12.2306 18.310
12.2458 17.961
12.2609 17.958
12.2761 17.782
12.2913 17.608
12.3065 17.491
12.3216 17.546
12.3368 17.478
12.3520 17.568
12.3672 17.297
12.3823 17.126
12.3975 17.335
12.4127 17.281
12.4279 17.039
12.4430 16.861
12.4582 16.930
12.4734 16.770
12.4886 16.833
12.5037 16.638
12.5189 16.615
12.5341 16.363
12.5493 16.261
12.5644 16.198
12.5796 16.352
12.5948 16.317
12.6100 16.124
12.6251 16.031
12.6403 15.972
12.6555 16.007
12.6707 15.894
12.6858 15.959
12.7010 15.622
12.7162 15.419
12.7314 15.408
12.7465 15.405
12.7617 15.353
12.7769 15.275
12.7921 15.295
12.8072 15.005
12.8224 15.131
12.8376 15.172
12.8528 14.837
12.8679 14.845
12.8831 14.861
12.8983 14.627
12.9135 14.627
12.9286 14.535
12.9438 14.501
12.9590 14.719
12.9742 14.675
12.9893 14.447
13.0045 14.363
13.0197 14.220
13.0349 13.883
13.0500 13.874
13.0652 13.918
13.0804 13.821
13.0956 14.003
13.1107 13.841
13.1259 13.721
13.1411 13.802
13.1563 13.741
13.1714 13.775
13.1866 13.623
13.2018 13.403
13.2170 13.359
13.2321 13.383
13.2473 13.308
13.2625 13.156
13.2777 13.119
13.2928 13.246
13.3080 13.303
13.3232 13.133
13.3384 13.003
13.3535 13.289
13.3687 13.485
13.3839 13.274
13.3991 13.093
13.4142 13.056
13.4294 12.912
13.4446 12.689
13.4598 12.642
13.4749 12.655
13.4901 12.655
13.5053 12.944
13.5205 12.877
13.5356 12.515
13.5508 12.342
13.5660 12.525
13.5812 12.385
13.5963 12.294
13.6115 12.244
13.6267 12.347
13.6419 12.461
13.6570 12.231
13.6722 12.250
13.6874 12.414
13.7026 12.301
13.7177 12.432
13.7329 11.948
13.7481 12.029
13.7633 11.887
13.7784 12.035
13.7936 12.511
13.8088 12.374
13.8239 12.087
13.8391 12.367
13.8543 12.356
13.8695 12.377
13.8846 12.444
13.8998 12.377
13.9150 12.195
13.9302 12.277
13.9453 12.361
13.9605 11.984
13.9757 11.641
13.9909 11.715
14.0060 11.688
14.0212 11.631
14.0364 11.803
14.0516 11.811
14.0667 11.420
14.0819 11.314
14.0971 11.282
14.1123 11.570
14.1274 11.950
14.1426 11.772
14.1578 11.550
14.1730 11.680
14.1881 11.586
14.2033 11.518
14.2185 11.558
14.2337 11.548
14.2488 11.813
14.2640 11.955
14.2792 11.944
14.2944 11.718
14.3095 12.032
14.3247 11.980
14.3399 12.369
14.3551 12.413
14.3702 12.902
14.3854 12.916
14.4006 13.063
14.4158 13.088
14.4309 12.747
14.4461 12.450
14.4613 12.260
14.4765 12.439
14.4916 12.255
14.5068 12.256
14.5220 11.703
14.5372 11.726
14.5523 11.307
14.5675 11.150
14.5827 10.906
14.5979 11.120
14.6130 10.724
14.6282 10.696
14.6434 10.999
14.6586 10.835
14.6737 10.624
14.6889 10.564
14.7041 10.623
14.7193 10.741
14.7344 10.740
14.7496 10.769
14.7648 10.344
14.7800 10.649
14.7951 10.642
14.8103 10.487
14.8255 10.805
14.8407 10.244
14.8558 10.285
14.8710 10.600
14.8862 10.465
14.9014 10.423
14.9165 10.821
14.9317 10.482
14.9469 10.382
14.9621 10.358
14.9772 10.514
14.9924 9.942
15.0076 10.264
15.0228 10.156
15.0379 10.001
15.0531 10.549
15.0683 10.128
15.0835 10.311
15.0986 10.105
15.1138 10.370
15.1290 10.486
15.1442 9.852
15.1593 10.158
15.1745 10.194
15.1897 9.985
15.2049 10.139
15.2200 10.065
15.2352 10.218
15.2504 9.997
15.2656 10.282
15.2807 10.147
15.2959 10.248
15.3111 10.204
15.3263 9.941
15.3414 9.952
15.3566 10.002
15.3718 10.382
15.3870 10.006
15.4021 9.763
15.4173 10.068
15.4325 10.304
15.4477 10.012
15.4628 9.973
15.4780 9.847
15.4932 10.112
15.5084 10.189
15.5235 10.322
15.5387 9.934
15.5539 9.880
15.5691 9.770
15.5842 9.706
15.5994 9.476
15.6146 9.806
15.6298 9.366
15.6449 9.576
15.6601 9.760
15.6753 9.789
15.6905 9.873
15.7056 9.875
15.7208 9.984
15.7360 9.600
15.7512 9.410
15.7663 9.599
15.7815 9.938
15.7967 9.532
15.8119 9.675
15.8270 9.990
15.8422 9.487
15.8574 9.818
15.8726 9.634
15.8877 9.331
15.9029 9.365
15.9181 9.610
15.9333 9.349
15.9484 9.555
15.9636 9.406
15.9788 9.646
15.9940 9.802
16.0091 9.689
16.0243 9.700
16.0395 9.723
16.0547 9.551
16.0698 9.628
16.0850 9.543
16.1002 9.349
16.1154 9.516
16.1305 9.651
16.1457 9.479
16.1609 9.460
16.1761 9.299
16.1912 9.619
16.2064 9.749
16.2216 10.005
16.2368 9.875
16.2519 9.722
16.2671 9.573
16.2823 9.668
16.2975 9.635
16.3126 9.761
16.3278 9.793
16.3430 9.788
16.3582 9.776
16.3733 10.006
16.3885 9.597
16.4037 9.771
16.4189 9.610
16.4340 9.580
16.4492 9.644
16.4644 9.496
16.4796 9.635
16.4947 9.387
16.5099 9.350
16.5251 9.532
16.5403 9.379
16.5554 9.433
16.5706 9.680
16.5858 9.653
16.6010 9.457
16.6161 9.762
16.6313 9.499
16.6465 9.516
16.6617 9.877
16.6768 9.600
16.6920 9.741
16.7072 10.075
16.7224 10.120
16.7375 9.984
16.7527 9.644
16.7679 9.712
16.7831 9.864
16.7982 9.906
16.8134 9.835
16.8286 9.804
16.8438 9.790
16.8589 9.668
16.8741 9.682
16.8893 9.887
16.9045 9.725
16.9196 9.574
16.9348 9.605
16.9500 9.603
16.9652 9.836
16.9803 9.811
16.9955 9.883
17.0107 9.923
17.0259 9.758
17.0410 9.867
17.0562 10.013
17.0714 10.246
17.0866 10.384
17.1017 10.341
17.1169 10.458
17.1321 10.817
17.1473 11.224
17.1624 11.552
17.1776 12.268
17.1928 13.252
17.2080 14.060
17.2231 15.075
17.2383 16.376
17.2535 17.567
17.2687 18.330
17.2838 18.326
17.2990 17.755
17.3142 16.866
17.3294 16.311
17.3445 16.162
17.3597 15.891
17.3749 15.598
17.3901 15.043
17.4052 14.131
17.4204 13.396
17.4356 12.734
17.4508 12.094
17.4659 11.645
17.4811 11.350
17.4963 11.286
17.5115 11.354
17.5266 11.297
17.5418 11.037
17.5570 10.842
17.5722 10.939
17.5873 11.108
17.6025 11.103
17.6177 11.021
17.6329 10.967
17.6480 11.250
17.6632 11.415
17.6784 11.267
17.6936 11.085
17.7087 11.214
17.7239 11.116
17.7391 10.858
17.7543 11.023
17.7694 11.119
17.7846 10.961
17.7998 10.875
17.8150 10.699
17.8301 10.491
17.8453 10.376
17.8605 10.368
17.8757 10.306
17.8908 10.429
17.9060 10.509
17.9212 10.387
17.9364 10.266
17.9515 9.912
17.9667 9.893
17.9819 10.130
17.9971 10.175
18.0122 10.203
18.0274 10.039
18.0426 9.914
18.0578 10.099
18.0729 10.085
18.0881 10.096
18.1033 10.142
18.1185 10.040
18.1336 10.080
18.1488 10.066
18.1640 9.969
18.1792 9.908
18.1943 9.969
18.2095 10.040
18.2247 9.917
18.2399 9.958
18.2550 10.127
18.2702 10.126
18.2854 9.856
18.3006 9.622
18.3157 9.718
18.3309 9.920
18.3461 10.058
18.3613 9.819
18.3764 9.857
18.3916 9.748
18.4068 9.674
18.4220 9.501
18.4371 9.595
18.4523 9.612
18.4675 9.629
18.4827 9.719
18.4978 9.707
18.5130 9.658
18.5282 9.787
18.5434 9.852
18.5585 9.635
18.5737 9.810
18.5889 9.802
18.6041 9.799
18.6192 9.875
18.6344 9.939
18.6496 9.848
18.6648 9.779
18.6799 9.870
18.6951 9.812
18.7103 9.743
18.7255 9.680
18.7406 9.648
18.7558 9.818
18.7710 9.883
18.7862 9.676
18.8013 9.808
18.8165 9.796
18.8317 9.906
18.8469 9.808
18.8620 9.813
18.8772 9.948
18.8924 10.084
18.9076 10.094
18.9227 10.116
18.9379 10.044
18.9531 10.036
18.9683 10.038
18.9834 10.041
18.9986 10.129
19.0138 10.128
19.0290 10.123
19.0441 10.287
19.0593 10.245
19.0745 10.203
19.0897 10.419
19.1048 10.449
19.1200 10.210
19.1352 10.123
19.1504 10.332
19.1655 10.513
19.1807 10.516
19.1959 10.606
19.2111 10.768
19.2262 10.767
19.2414 10.754
19.2566 10.759
19.2718 10.624
19.2869 10.724
19.3021 10.878
19.3173 10.979
19.3325 11.036
19.3476 11.068
19.3628 11.054
19.3780 11.223
19.3932 11.261
19.4083 11.294
19.4235 11.258
19.4387 11.212
19.4539 11.232
19.4690 11.275
19.4842 11.323
19.4994 11.580
19.5146 11.755
19.5297 11.687
19.5449 11.788
19.5601 11.928
19.5753 11.756
19.5904 11.568
19.6056 11.753
19.6208 12.020
19.6360 11.862
19.6511 11.766
19.6663 11.786
19.6815 11.777
19.6967 12.028
19.7118 12.043
19.7270 12.009
19.7422 11.960
19.7574 11.924
19.7725 11.961
19.7877 11.867
19.8029 12.041
19.8180 12.106
19.8332 12.361
19.8484 12.523
19.8636 12.490
19.8787 12.774
19.8939 12.676
19.9091 12.975
19.9243 13.621
19.9394 13.894
19.9546 14.236
19.9698 14.570
19.9850 14.988
20.0001 14.695
20.0153 14.316
20.0305 14.134
20.0457 14.142
20.0608 14.096
20.0760 14.020
20.0912 13.799
20.1064 13.898
20.1215 13.674
20.1367 13.378
20.1519 13.388
20.1671 13.235
20.1822 12.828
20.1974 12.813
20.2126 12.842
20.2278 12.998
20.2429 12.726
20.2581 12.650
20.2733 12.637
20.2885 12.287
20.3036 12.305
20.3188 12.135
20.3340 11.955
20.3492 12.170
20.3643 12.209
20.3795 12.010
20.3947 11.985
20.4099 11.910
20.4250 11.948
20.4402 11.855
20.4554 11.819
20.4706 11.612
20.4857 11.560
20.5009 11.672
20.5161 11.605
20.5313 11.387
20.5464 11.392
20.5616 11.088
20.5768 11.038
20.5920 11.085
20.6071 11.031
20.6223 10.792
20.6375 10.821
20.6527 11.084
20.6678 10.970
20.6830 10.889
20.6982 10.874
20.7134 10.719
20.7285 10.606
20.7437 10.595
20.7589 10.523
20.7741 10.486
20.7892 10.368
20.8044 10.421
20.8196 10.508
20.8348 10.231
20.8499 10.302
20.8651 10.218
20.8803 10.233
20.8955 10.264
20.9106 10.287
20.9258 10.356
20.9410 10.231
20.9562 9.837
20.9713 10.058
20.9865 10.098
21.0017 10.218
21.0169 10.061
21.0320 10.094
21.0472 10.101
21.0624 10.411
21.0776 10.122
21.0927 9.798
21.1079 10.011
21.1231 9.908
21.1383 9.994
21.1534 9.812
21.1686 9.937
21.1838 10.115
21.1990 9.862
21.2141 9.927
21.2293 9.940
21.2445 9.654
21.2597 9.722
21.2748 9.813
21.2900 9.556
21.3052 9.655
21.3204 9.470
21.3355 9.455
21.3507 9.753
21.3659 9.835
21.3811 9.569
21.3962 9.591
21.4114 9.498
21.4266 9.482
21.4418 9.380
21.4569 9.568
21.4721 9.277
21.4873 9.480
21.5025 9.394
21.5176 9.368
21.5328 9.612
21.5480 9.358
21.5632 9.208
21.5783 9.330
21.5935 9.670
21.6087 9.214
21.6239 9.493
21.6390 9.427
21.6542 9.269
21.6694 9.302
21.6846 9.204
21.6997 9.003
21.7149 9.122
21.7301 9.068
21.7453 9.032
21.7604 9.116
21.7756 9.047
21.7908 8.952
21.8060 9.173
21.8211 9.241
21.8363 9.134
21.8515 9.224
21.8667 9.095
21.8818 9.052
21.8970 9.014
21.9122 8.916
21.9274 8.948
21.9425 9.012
21.9577 9.116
21.9729 9.158
21.9881 9.062
22.0032 8.870
22.0184 8.770
22.0336 8.760
22.0488 8.824
22.0639 8.651
22.0791 8.507
22.0943 8.639
22.1095 8.667
22.1246 8.807
22.1398 8.691
22.1550 8.323
22.1702 8.644
22.1853 8.843
22.2005 8.673
22.2157 8.546
22.2309 8.526
22.2460 8.399
22.2612 8.592
22.2764 8.647
22.2916 8.619
22.3067 8.575
22.3219 8.642
22.3371 8.682
22.3523 8.599
22.3674 8.542
22.3826 8.537
22.3978 8.447
22.4130 8.464
22.4281 8.734
22.4433 8.737
22.4585 8.733
22.4737 8.508
22.4888 8.537
22.5040 8.417
22.5192 8.415
22.5344 8.571
22.5495 8.244
22.5647 8.346
22.5799 8.422
22.5951 8.355
22.6102 8.070
22.6254 8.168
22.6406 8.355
22.6558 8.536
22.6709 8.281
22.6861 8.272
22.7013 8.287
22.7165 8.118
22.7316 6.661
