'Id: "" Comment: "" Operator: "Lab Manager" Anode: "Mo" Scantype: "Still (Eiger2R_500K (1D mode))" TimePerStep: "300" X: "11.8" Y: "9.4" Z: "11.284" 
7.2532 18.868
7.2684 19.215
7.2836 19.244
7.2987 19.681
7.3139 19.156
7.3291 19.680
7.3443 19.347
7.3594 19.848
7.3746 19.247
7.3898 19.511
7.4050 19.710
7.4201 19.571
7.4353 19.642
7.4505 19.834
7.4657 19.411
7.4808 19.685
7.4960 19.720
7.5112 19.858
7.5264 19.493
7.5415 19.464
7.5567 19.547
7.5719 19.875
7.5871 20.156
7.6022 20.029
7.6174 19.913
7.6326 20.197
7.6478 20.191
7.6629 20.085
7.6781 19.951
7.6933 20.130
7.7085 20.416
7.7236 20.651
7.7388 20.588
7.7540 20.583
7.7692 20.667
7.7843 20.633
7.7995 20.513
7.8147 20.358
7.8299 20.195
7.8450 20.301
7.8602 20.633
7.8754 20.654
7.8905 20.634
7.9057 20.970
7.9209 21.035
7.9361 20.965
7.9512 20.664
7.9664 20.857
7.9816 20.964
7.9968 20.712
8.0119 20.722
8.0271 20.937
8.0423 21.106
8.0575 20.994
8.0726 21.199
8.0878 21.094
8.1030 21.324
8.1182 21.376
8.1333 21.049
8.1485 21.251
8.1637 21.417
8.1789 22.054
8.1940 21.598
8.2092 21.800
8.2244 21.478
8.2396 21.754
8.2547 21.535
8.2699 21.340
8.2851 21.725
8.3003 21.797
8.3154 21.296
8.3306 21.425
8.3458 22.031
8.3610 21.914
8.3761 22.145
8.3913 21.802
8.4065 22.067
8.4217 22.279
8.4368 21.823
8.4520 22.413
8.4672 22.183
8.4824 21.979
8.4975 21.920
8.5127 22.205
8.5279 21.719
8.5431 22.014
8.5582 22.564
8.5734 22.100
8.5886 22.524
8.6038 21.984
8.6189 22.211
8.6341 22.643
8.6493 22.700
8.6645 22.663
8.6796 22.248
8.6948 21.906
8.7100 22.472
8.7252 22.052
8.7403 22.713
8.7555 22.306
8.7707 22.016
8.7859 22.614
8.8010 22.875
8.8162 22.280
8.8314 22.271
8.8466 22.522
8.8617 22.649
8.8769 22.926
8.8921 22.588
8.9073 22.798
8.9224 22.529
8.9376 22.510
8.9528 22.197
8.9680 22.254
8.9831 22.485
8.9983 22.934
9.0135 22.801
9.0287 22.868
9.0438 22.646
9.0590 23.129
9.0742 22.800
9.0894 22.925
9.1045 22.698
9.1197 22.680
9.1349 22.690
9.1501 22.860
9.1652 22.769
9.1804 23.175
9.1956 23.425
9.2108 22.899
9.2259 23.274
9.2411 23.058
9.2563 23.336
9.2715 22.887
9.2866 22.878
9.3018 22.916
9.3170 23.161
9.3322 23.297
9.3473 22.989
9.3625 22.969
9.3777 23.126
9.3929 22.709
9.4080 22.898
9.4232 23.243
9.4384 23.230
9.4536 23.282
9.4687 23.237
9.4839 23.097
9.4991 23.135
9.5143 23.305
9.5294 23.114
9.5446 23.021
9.5598 23.320
9.5750 23.449
9.5901 23.332
9.6053 23.526
9.6205 23.618
9.6357 23.827
9.6508 23.777
9.6660 23.561
9.6812 23.612
9.6964 23.615
9.7115 23.811
9.7267 24.074
9.7419 24.543
9.7571 24.406
9.7722 23.785
9.7874 23.741
9.8026 23.824
9.8178 23.826
9.8329 23.486
9.8481 23.407
9.8633 23.775
9.8785 23.931
9.8936 24.066
9.9088 24.077
9.9240 23.940
9.9392 23.906
9.9543 23.973
9.9695 23.885
9.9847 23.667
9.9999 23.412
10.0150 23.025
10.0302 23.102
10.0454 23.202
10.0606 23.093
10.0757 22.903
10.0909 22.784
10.1061 23.128
10.1213 23.187
10.1364 23.109
10.1516 22.920
10.1668 22.979
10.1820 22.942
10.1971 23.142
10.2123 22.891
10.2275 22.613
10.2427 22.935
10.2578 23.275
10.2730 23.220
10.2882 22.994
10.3034 22.660
10.3185 22.957
10.3337 23.243
10.3489 23.147
10.3641 23.242
10.3792 22.894
10.3944 23.259
10.4096 23.331
10.4248 23.105
10.4399 22.884
10.4551 23.165
10.4703 22.934
10.4855 22.850
10.5006 22.868
10.5158 23.110
10.5310 22.686
10.5462 22.359
10.5613 22.506
10.5765 22.921
10.5917 22.624
10.6069 22.723
10.6220 22.762
10.6372 22.638
10.6524 22.651
10.6676 22.608
10.6827 22.671
10.6979 22.369
10.7131 22.476
10.7283 22.492
10.7434 22.185
10.7586 22.577
10.7738 22.447
10.7890 22.431
10.8041 22.226
10.8193 22.239
10.8345 22.008
10.8497 22.290
10.8648 22.020
10.8800 22.008
10.8952 22.491
10.9104 22.077
10.9255 21.947
10.9407 22.153
10.9559 21.809
10.9711 21.909
10.9862 21.963
11.0014 21.914
11.0166 22.102
11.0318 22.041
11.0469 21.739
11.0621 21.967
11.0773 22.185
11.0925 22.139
11.1076 21.857
11.1228 22.068
11.1380 22.334
11.1532 21.601
11.1683 21.506
11.1835 21.541
11.1987 21.887
11.2139 21.455
11.2290 21.772
11.2442 22.070
11.2594 21.874
11.2746 21.687
11.2897 21.339
11.3049 21.534
11.3201 21.579
11.3353 21.564
11.3504 21.363
11.3656 21.376
11.3808 21.480
11.3960 21.644
11.4111 21.396
11.4263 21.498
11.4415 21.497
11.4567 21.413
11.4718 21.218
11.4870 21.036
11.5022 20.947
11.5174 21.237
11.5325 21.129
11.5477 21.045
11.5629 21.169
11.5781 20.836
11.5932 20.963
11.6084 21.465
11.6236 20.971
11.6388 20.724
11.6539 20.911
11.6691 20.792
11.6843 20.734
11.6995 20.539
11.7146 20.527
11.7298 20.477
11.7450 20.442
11.7602 20.545
11.7753 20.544
11.7905 20.542
11.8057 20.019
11.8209 19.774
11.8360 19.918
11.8512 19.924
11.8664 19.821
11.8816 19.614
11.8967 19.425
11.9119 19.499
11.9271 19.637
11.9423 19.542
11.9574 19.344
11.9726 19.443
11.9878 18.979
12.0030 19.208
12.0181 19.133
12.0333 18.707
12.0485 18.888
12.0637 18.953
12.0788 19.230
12.0940 19.174
12.1092 19.060
12.1244 18.969
12.1395 18.818
12.1547 18.662
12.1699 18.420
12.1851 18.185
12.2002 18.131
12.2154 18.311
12.2306 18.164
12.2458 18.012
12.2609 18.072
12.2761 17.883
12.2913 17.869
12.3065 17.621
12.3216 17.514
12.3368 17.598
12.3520 17.487
12.3672 17.427
12.3823 17.336
12.3975 17.344
12.4127 17.256
12.4279 17.230
12.4430 17.136
12.4582 16.841
12.4734 16.944
12.4886 17.011
12.5037 16.868
12.5189 16.602
12.5341 16.598
12.5493 16.438
12.5644 16.295
12.5796 16.227
12.5948 16.067
12.6100 16.221
12.6251 15.889
12.6403 15.785
12.6555 15.855
12.6707 15.802
12.6858 15.601
12.7010 15.372
12.7162 15.334
12.7314 15.505
12.7465 15.424
12.7617 15.361
12.7769 15.269
12.7921 15.096
12.8072 14.814
12.8224 14.812
12.8376 14.824
12.8528 14.618
12.8679 14.572
12.8831 14.711
12.8983 14.743
12.9135 14.748
12.9286 14.894
12.9438 14.825
12.9590 14.550
12.9742 14.503
12.9893 14.611
13.0045 14.598
13.0197 14.368
13.0349 14.243
13.0500 14.227
13.0652 14.187
13.0804 14.109
13.0956 13.852
13.1107 13.997
13.1259 14.088
13.1411 13.845
13.1563 13.670
13.1714 13.550
13.1866 13.706
13.2018 13.603
13.2170 13.471
13.2321 13.586
13.2473 13.473
13.2625 13.254
13.2777 13.317
13.2928 13.362
13.3080 13.160
13.3232 13.103
13.3384 13.121
13.3535 13.220
13.3687 13.372
13.3839 13.280
13.3991 13.001
13.4142 13.248
13.4294 13.256
13.4446 13.032
13.4598 13.085
13.4749 12.932
13.4901 12.892
13.5053 12.753
13.5205 12.475
13.5356 12.417
13.5508 12.652
13.5660 12.652
13.5812 12.555
13.5963 12.201
13.6115 12.168
13.6267 12.487
13.6419 12.330
13.6570 12.277
13.6722 12.153
13.6874 12.085
13.7026 12.245
13.7177 12.130
13.7329 12.205
13.7481 12.130
13.7633 11.816
13.7784 12.052
13.7936 12.328
13.8088 12.466
13.8239 12.331
13.8391 12.021
13.8543 12.458
13.8695 12.474
13.8846 12.364
13.8998 12.126
13.9150 11.737
13.9302 11.796
13.9453 11.932
13.9605 11.822
13.9757 11.735
13.9909 11.666
14.0060 11.624
14.0212 11.290
14.0364 11.380
14.0516 11.679
14.0667 11.404
14.0819 11.354
14.0971 11.420
14.1123 11.285
14.1274 11.451
14.1426 11.394
14.1578 11.465
14.1730 11.464
14.1881 11.187
14.2033 11.447
14.2185 11.245
14.2337 11.409
14.2488 11.240
14.2640 11.194
14.2792 11.233
14.2944 11.668
14.3095 11.778
14.3247 11.671
14.3399 11.561
14.3551 11.916
14.3702 12.092
14.3854 12.493
14.4006 12.568
14.4158 12.443
14.4309 12.410
14.4461 12.546
14.4613 12.635
14.4765 12.329
14.4916 12.118
14.5068 12.114
14.5220 11.640
14.5372 11.534
14.5523 11.497
14.5675 11.505
14.5827 11.450
14.5979 11.231
14.6130 11.251
14.6282 11.262
14.6434 11.030
14.6586 10.961
14.6737 10.882
14.6889 11.049
14.7041 11.430
14.7193 11.190
14.7344 11.331
14.7496 11.242
14.7648 11.015
14.7800 11.025
14.7951 11.051
14.8103 11.046
14.8255 10.919
14.8407 11.026
14.8558 11.093
14.8710 10.938
14.8862 10.724
14.9014 10.639
14.9165 11.023
14.9317 11.176
14.9469 10.772
14.9621 10.646
14.9772 10.395
14.9924 10.413
15.0076 10.292
15.0228 10.452
15.0379 10.710
15.0531 10.788
15.0683 10.867
15.0835 10.645
15.0986 10.000
15.1138 10.192
15.1290 10.362
15.1442 10.442
15.1593 10.286
15.1745 10.571
15.1897 10.328
15.2049 10.477
15.2200 10.020
15.2352 10.310
15.2504 10.108
15.2656 9.935
15.2807 10.382
15.2959 10.411
15.3111 10.599
15.3263 10.280
15.3414 10.396
15.3566 10.510
15.3718 10.265
15.3870 10.338
15.4021 10.146
15.4173 10.554
15.4325 10.553
15.4477 10.466
15.4628 10.468
15.4780 10.327
15.4932 10.287
15.5084 10.236
15.5235 10.580
15.5387 10.386
15.5539 10.290
15.5691 9.960
15.5842 10.409
15.5994 10.542
15.6146 10.439
15.6298 10.187
15.6449 10.141
15.6601 10.290
15.6753 10.228
15.6905 10.142
15.7056 10.194
15.7208 10.203
15.7360 9.922
15.7512 9.984
15.7663 9.832
15.7815 9.731
15.7967 10.045
15.8119 9.969
15.8270 10.229
15.8422 10.286
15.8574 10.125
15.8726 9.872
15.8877 10.016
15.9029 9.724
15.9181 9.537
15.9333 10.211
15.9484 10.000
15.9636 9.797
15.9788 9.915
15.9940 9.793
16.0091 9.957
16.0243 9.891
16.0395 9.761
16.0547 9.774
16.0698 9.950
16.0850 9.990
16.1002 9.976
16.1154 9.774
16.1305 9.708
16.1457 9.874
16.1609 9.611
16.1761 9.605
16.1912 9.777
16.2064 9.958
16.2216 9.940
16.2368 9.854
16.2519 10.081
16.2671 9.990
16.2823 9.869
16.2975 9.947
16.3126 9.962
16.3278 9.898
16.3430 10.152
16.3582 10.172
16.3733 10.166
16.3885 10.119
16.4037 10.246
16.4189 10.104
16.4340 9.848
16.4492 9.745
16.4644 9.881
16.4796 10.012
16.4947 9.888
16.5099 9.891
16.5251 9.946
16.5403 9.877
16.5554 9.826
16.5706 9.737
16.5858 9.712
16.6010 9.709
16.6161 9.958
16.6313 10.100
16.6465 10.065
16.6617 10.146
16.6768 10.163
16.6920 10.212
16.7072 10.225
16.7224 10.201
16.7375 10.132
16.7527 9.968
16.7679 10.029
16.7831 9.907
16.7982 9.902
16.8134 10.033
16.8286 10.053
16.8438 9.986
16.8589 10.016
16.8741 10.026
16.8893 9.856
16.9045 9.835
16.9196 9.928
16.9348 9.923
16.9500 9.983
16.9652 10.025
16.9803 9.876
16.9955 9.954
17.0107 10.101
17.0259 10.184
17.0410 10.197
17.0562 10.207
17.0714 10.517
17.0866 10.490
17.1017 10.680
17.1169 10.921
17.1321 11.152
17.1473 11.431
17.1624 11.942
17.1776 12.510
17.1928 12.946
17.2080 13.859
17.2231 14.955
17.2383 16.219
17.2535 17.768
17.2687 18.791
17.2838 18.854
17.2990 18.178
17.3142 17.154
17.3294 16.420
17.3445 16.155
17.3597 16.033
17.3749 15.897
17.3901 15.518
17.4052 14.664
17.4204 13.486
17.4356 12.321
17.4508 11.739
17.4659 11.506
17.4811 11.382
17.4963 11.194
17.5115 10.847
17.5266 10.620
17.5418 10.628
17.5570 10.768
17.5722 10.489
17.5873 10.371
17.6025 10.407
17.6177 10.175
17.6329 10.063
17.6480 10.144
17.6632 10.079
17.6784 10.025
17.6936 10.100
17.7087 9.950
17.7239 10.119
17.7391 10.559
17.7543 10.533
17.7694 10.521
17.7846 10.641
17.7998 10.676
17.8150 10.649
17.8301 10.825
17.8453 11.025
17.8605 11.025
17.8757 11.090
17.8908 10.968
17.9060 11.187
17.9212 11.299
17.9364 10.930
17.9515 10.700
17.9667 10.894
17.9819 11.013
17.9971 10.953
18.0122 10.617
18.0274 10.241
18.0426 10.298
18.0578 10.341
18.0729 10.256
18.0881 10.224
18.1033 9.977
18.1185 9.890
18.1336 10.041
18.1488 10.334
18.1640 10.206
18.1792 10.096
18.1943 10.033
18.2095 10.048
18.2247 10.083
18.2399 9.912
18.2550 9.853
18.2702 9.962
18.2854 9.961
18.3006 9.807
18.3157 9.762
18.3309 9.780
18.3461 9.760
18.3613 9.838
18.3764 9.945
18.3916 9.961
18.4068 9.737
18.4220 9.682
18.4371 9.712
18.4523 9.984
18.4675 10.156
18.4827 9.829
18.4978 9.735
18.5130 9.603
18.5282 9.691
18.5434 9.794
18.5585 9.699
18.5737 9.859
18.5889 10.097
18.6041 9.909
18.6192 9.701
18.6344 9.659
18.6496 9.833
18.6648 9.909
18.6799 9.859
18.6951 9.824
18.7103 9.816
18.7255 9.856
18.7406 9.894
18.7558 9.591
18.7710 9.802
18.7862 10.026
18.8013 9.774
18.8165 9.778
18.8317 9.856
18.8469 9.976
18.8620 10.067
18.8772 10.111
18.8924 9.943
18.9076 9.901
18.9227 9.981
18.9379 10.080
18.9531 10.192
18.9683 9.889
18.9834 9.905
18.9986 10.164
19.0138 10.319
19.0290 10.405
19.0441 10.328
19.0593 10.391
19.0745 10.170
19.0897 10.270
19.1048 10.701
19.1200 10.716
19.1352 10.722
19.1504 10.883
19.1655 10.722
19.1807 10.592
19.1959 10.544
19.2111 10.643
19.2262 10.763
19.2414 10.942
19.2566 10.953
19.2718 11.074
19.2869 11.065
19.3021 10.877
19.3173 10.920
19.3325 11.061
19.3476 11.209
19.3628 11.211
19.3780 11.123
19.3932 11.094
19.4083 11.178
19.4235 11.161
19.4387 10.965
19.4539 11.189
19.4690 11.418
19.4842 11.464
19.4994 11.441
19.5146 11.637
19.5297 11.586
19.5449 11.482
19.5601 11.849
19.5753 11.796
19.5904 11.661
19.6056 11.583
19.6208 11.565
19.6360 11.659
19.6511 11.843
19.6663 11.870
19.6815 11.709
19.6967 11.781
19.7118 11.769
19.7270 11.595
19.7422 11.748
19.7574 11.896
19.7725 11.770
19.7877 11.929
19.8029 12.073
19.8180 11.907
19.8332 12.284
19.8484 12.478
19.8636 12.342
19.8787 12.580
19.8939 13.014
19.9091 13.379
19.9243 13.690
19.9394 13.811
19.9546 13.983
19.9698 14.256
19.9850 14.502
20.0001 14.693
20.0153 14.405
20.0305 13.958
20.0457 13.674
20.0608 13.726
20.0760 13.896
20.0912 13.952
20.1064 14.001
20.1215 13.680
20.1367 12.965
20.1519 12.739
20.1671 12.685
20.1822 12.483
20.1974 12.454
20.2126 12.379
20.2278 12.380
20.2429 12.397
20.2581 12.091
20.2733 11.827
20.2885 11.736
20.3036 11.581
20.3188 11.663
20.3340 11.641
20.3492 11.371
20.3643 11.370
20.3795 11.360
20.3947 11.135
20.4099 11.111
20.4250 10.764
20.4402 10.709
20.4554 10.941
20.4706 10.854
20.4857 10.568
20.5009 10.576
20.5161 10.912
20.5313 10.689
20.5464 10.320
20.5616 10.294
20.5768 10.418
20.5920 10.274
20.6071 10.278
20.6223 10.433
20.6375 10.420
20.6527 10.647
20.6678 10.547
20.6830 10.328
20.6982 10.386
20.7134 10.278
20.7285 10.329
20.7437 10.530
20.7589 10.599
20.7741 10.236
20.7892 10.098
20.8044 10.407
20.8196 10.184
20.8348 10.228
20.8499 10.262
20.8651 10.177
20.8803 10.411
20.8955 10.515
20.9106 10.543
20.9258 10.327
20.9410 10.311
20.9562 10.531
20.9713 10.243
20.9865 10.246
21.0017 10.610
21.0169 10.465
21.0320 10.285
21.0472 10.297
21.0624 10.163
21.0776 10.068
21.0927 10.205
21.1079 10.322
21.1231 10.391
21.1383 9.855
21.1534 9.661
21.1686 9.908
21.1838 10.202
21.1990 9.840
21.2141 9.783
21.2293 10.015
21.2445 9.770
21.2597 9.622
21.2748 9.584
21.2900 9.693
21.3052 9.642
21.3204 9.598
21.3355 9.568
21.3507 9.374
21.3659 9.469
21.3811 9.347
21.3962 9.455
21.4114 9.497
21.4266 9.317
21.4418 9.718
21.4569 9.669
21.4721 9.577
21.4873 9.036
21.5025 9.219
21.5176 9.349
21.5328 9.396
21.5480 9.457
21.5632 9.413
21.5783 9.376
21.5935 9.385
21.6087 9.632
21.6239 9.013
21.6390 9.068
21.6542 9.230
21.6694 9.164
21.6846 9.361
21.6997 9.262
21.7149 9.196
21.7301 9.018
21.7453 9.043
21.7604 9.007
21.7756 9.032
21.7908 8.880
21.8060 8.929
21.8211 9.012
21.8363 9.061
21.8515 9.332
21.8667 9.327
21.8818 9.136
21.8970 9.001
21.9122 8.849
21.9274 8.862
21.9425 8.778
21.9577 8.945
21.9729 9.004
21.9881 9.007
22.0032 9.053
22.0184 8.724
22.0336 8.526
22.0488 8.727
22.0639 8.595
22.0791 8.698
22.0943 8.859
22.1095 8.939
22.1246 8.895
22.1398 8.801
22.1550 8.641
22.1702 8.668
22.1853 8.641
22.2005 8.615
22.2157 8.547
22.2309 8.484
22.2460 8.515
22.2612 8.621
22.2764 8.734
22.2916 8.741
22.3067 8.487
22.3219 8.652
22.3371 8.624
22.3523 8.734
22.3674 8.760
22.3826 8.362
22.3978 8.572
22.4130 8.577
22.4281 8.456
22.4433 8.517
22.4585 8.635
22.4737 8.261
22.4888 8.654
22.5040 8.232
22.5192 8.317
22.5344 8.683
22.5495 8.842
22.5647 8.618
22.5799 8.335
22.5951 8.278
22.6102 8.718
22.6254 8.570
22.6406 8.548
22.6558 8.434
22.6709 8.447
22.6861 8.426
22.7013 8.055
22.7165 7.850
22.7316 6.297
