'Id: "" Comment: "" Operator: "Lab Manager" Anode: "Mo" Scantype: "Still (Eiger2R_500K (1D mode))" TimePerStep: "300" X: "11.8" Y: "9.4" Z: "11.284" 
7.2532 19.002
7.2684 18.892
7.2836 18.773
7.2987 19.085
7.3139 19.181
7.3291 19.225
7.3443 19.045
7.3594 19.252
7.3746 19.423
7.3898 19.283
7.4050 19.360
7.4201 19.162
7.4353 19.105
7.4505 19.227
7.4657 19.947
7.4808 19.840
7.4960 19.470
7.5112 19.923
7.5264 19.577
7.5415 19.611
7.5567 19.820
7.5719 19.714
7.5871 19.994
7.6022 19.963
7.6174 20.065
7.6326 20.345
7.6478 20.261
7.6629 19.827
7.6781 19.913
7.6933 20.448
7.7085 20.253
7.7236 20.088
7.7388 20.104
7.7540 20.261
7.7692 20.446
7.7843 20.406
7.7995 20.349
7.8147 20.405
7.8299 20.557
7.8450 20.547
7.8602 20.779
7.8754 20.797
7.8905 20.622
7.9057 20.439
7.9209 20.673
7.9361 21.077
7.9512 21.109
7.9664 21.332
7.9816 21.192
7.9968 20.842
8.0119 21.167
8.0271 20.972
8.0423 20.728
8.0575 21.134
8.0726 20.751
8.0878 21.170
8.1030 21.110
8.1182 21.013
8.1333 20.975
8.1485 21.516
8.1637 21.715
8.1789 21.414
8.1940 21.228
8.2092 21.540
8.2244 21.061
8.2396 21.222
8.2547 21.689
8.2699 21.732
8.2851 21.872
8.3003 21.709
8.3154 22.143
8.3306 21.493
8.3458 21.283
8.3610 21.651
8.3761 21.791
8.3913 21.824
8.4065 21.941
8.4217 21.674
8.4368 22.166
8.4520 21.757
8.4672 22.010
8.4824 21.855
8.4975 21.948
8.5127 22.224
8.5279 22.134
8.5431 22.100
8.5582 21.656
8.5734 21.769
8.5886 21.733
8.6038 21.733
8.6189 21.881
8.6341 22.582
8.6493 22.349
8.6645 22.380
8.6796 22.071
8.6948 22.148
8.7100 22.516
8.7252 22.627
8.7403 22.424
8.7555 22.017
8.7707 22.123
8.7859 22.095
8.8010 22.845
8.8162 22.330
8.8314 22.821
8.8466 22.889
8.8617 22.562
8.8769 22.456
8.8921 22.217
8.9073 22.277
8.9224 22.945
8.9376 22.680
8.9528 22.729
8.9680 22.828
8.9831 22.271
8.9983 22.111
9.0135 22.660
9.0287 22.581
9.0438 22.482
9.0590 21.959
9.0742 22.096
9.0894 22.352
9.1045 22.308
9.1197 22.508
9.1349 22.188
9.1501 22.507
9.1652 22.691
9.1804 22.621
9.1956 22.540
9.2108 23.006
9.2259 22.984
9.2411 23.151
9.2563 22.717
9.2715 22.763
9.2866 23.144
9.3018 23.066
9.3170 23.056
9.3322 23.196
9.3473 23.007
9.3625 22.900
9.3777 23.008
9.3929 22.857
9.4080 22.994
9.4232 22.903
9.4384 23.198
9.4536 23.246
9.4687 23.077
9.4839 22.990
9.4991 22.885
9.5143 22.805
9.5294 23.341
9.5446 23.333
9.5598 23.258
9.5750 23.223
9.5901 23.104
9.6053 23.247
9.6205 23.388
9.6357 23.489
9.6508 23.439
9.6660 23.353
9.6812 23.574
9.6964 23.607
9.7115 23.917
9.7267 24.030
9.7419 23.508
9.7571 23.660
9.7722 24.101
9.7874 24.008
9.8026 23.668
9.8178 23.323
9.8329 23.294
9.8481 23.265
9.8633 23.262
9.8785 23.319
9.8936 23.313
9.9088 22.979
9.9240 22.961
9.9392 22.910
9.9543 22.821
9.9695 23.186
9.9847 23.184
9.9999 23.276
10.0150 23.310
10.0302 23.284
10.0454 23.301
10.0606 23.106
10.0757 23.327
10.0909 23.314
10.1061 23.065
10.1213 23.064
10.1364 23.478
10.1516 23.667
10.1668 23.516
10.1820 23.399
10.1971 23.446
10.2123 23.333
10.2275 23.526
10.2427 23.407
10.2578 22.959
10.2730 23.038
10.2882 22.934
10.3034 22.739
10.3185 22.606
10.3337 22.789
10.3489 22.816
10.3641 23.011
10.3792 22.688
10.3944 22.616
10.4096 22.486
10.4248 22.740
10.4399 22.757
10.4551 22.759
10.4703 22.705
10.4855 22.591
10.5006 22.696
10.5158 22.526
10.5310 22.558
10.5462 22.414
10.5613 22.220
10.5765 22.325
10.5917 22.252
10.6069 22.584
10.6220 22.565
10.6372 22.411
10.6524 22.665
10.6676 22.643
10.6827 22.404
10.6979 22.212
10.7131 22.290
10.7283 22.464
10.7434 22.335
10.7586 22.334
10.7738 22.304
10.7890 22.314
10.8041 22.459
10.8193 22.368
10.8345 22.431
10.8497 22.427
10.8648 22.340
10.8800 22.174
10.8952 22.405
10.9104 22.619
10.9255 22.156
10.9407 22.027
10.9559 22.344
10.9711 22.192
10.9862 21.849
11.0014 22.078
11.0166 22.042
11.0318 22.292
11.0469 21.961
11.0621 21.822
11.0773 22.027
11.0925 22.288
11.1076 22.204
11.1228 21.921
11.1380 21.667
11.1532 21.434
11.1683 21.744
11.1835 21.869
11.1987 21.611
11.2139 22.014
11.2290 21.804
11.2442 21.534
11.2594 21.680
11.2746 21.811
11.2897 21.742
11.3049 21.729
11.3201 21.504
11.3353 21.242
11.3504 21.529
11.3656 21.703
11.3808 21.526
11.3960 21.356
11.4111 21.501
11.4263 21.684
11.4415 21.188
11.4567 20.861
11.4718 20.962
11.4870 21.049
11.5022 20.942
11.5174 20.914
11.5325 20.863
11.5477 21.027
11.5629 20.880
11.5781 20.583
11.5932 20.734
11.6084 20.666
11.6236 20.970
11.6388 20.617
11.6539 20.514
11.6691 20.485
11.6843 20.211
11.6995 20.316
11.7146 20.613
11.7298 20.522
11.7450 20.554
11.7602 20.683
11.7753 20.492
11.7905 20.222
11.8057 20.202
11.8209 20.004
11.8360 19.981
11.8512 19.738
11.8664 19.946
11.8816 20.254
11.8967 19.750
11.9119 19.775
11.9271 19.259
11.9423 19.379
11.9574 19.462
11.9726 19.091
11.9878 19.070
12.0030 19.327
12.0181 19.213
12.0333 19.017
12.0485 19.051
12.0637 18.937
12.0788 18.833
12.0940 18.824
12.1092 18.540
12.1244 18.580
12.1395 18.522
12.1547 18.441
12.1699 18.504
12.1851 18.245
12.2002 18.295
12.2154 18.391
12.2306 18.122
12.2458 17.785
12.2609 17.759
12.2761 17.744
12.2913 17.597
12.3065 17.688
12.3216 17.937
12.3368 17.744
12.3520 17.456
12.3672 17.462
12.3823 17.504
12.3975 17.487
12.4127 17.439
12.4279 16.862
12.4430 16.581
12.4582 17.013
12.4734 16.856
12.4886 16.685
12.5037 16.725
12.5189 16.490
12.5341 16.592
12.5493 16.489
12.5644 16.330
12.5796 16.333
12.5948 16.079
12.6100 15.943
12.6251 16.003
12.6403 15.658
12.6555 15.338
12.6707 15.459
12.6858 15.651
12.7010 15.520
12.7162 15.391
12.7314 15.539
12.7465 15.666
12.7617 15.619
12.7769 15.173
12.7921 15.024
12.8072 15.198
12.8224 15.128
12.8376 15.033
12.8528 15.019
12.8679 15.015
12.8831 14.944
12.8983 14.645
12.9135 14.404
12.9286 14.326
12.9438 14.276
12.9590 14.336
12.9742 14.418
12.9893 14.395
13.0045 14.205
13.0197 14.021
13.0349 13.743
13.0500 13.837
13.0652 14.129
13.0804 13.889
13.0956 13.777
13.1107 13.862
13.1259 13.988
13.1411 13.881
13.1563 13.543
13.1714 13.384
13.1866 13.274
13.2018 13.284
13.2170 13.376
13.2321 13.392
13.2473 13.176
13.2625 13.244
13.2777 13.257
13.2928 13.038
13.3080 13.250
13.3232 13.181
13.3384 12.917
13.3535 13.014
13.3687 13.147
13.3839 13.180
13.3991 13.138
13.4142 12.956
13.4294 12.866
13.4446 12.701
13.4598 12.627
13.4749 12.758
13.4901 12.816
13.5053 12.535
13.5205 12.333
13.5356 12.551
13.5508 12.464
13.5660 12.282
13.5812 12.198
13.5963 12.377
13.6115 12.104
13.6267 12.103
13.6419 12.142
13.6570 11.986
13.6722 12.171
13.6874 12.021
13.7026 11.947
13.7177 11.959
13.7329 11.999
13.7481 11.974
13.7633 11.962
13.7784 11.995
13.7936 11.972
13.8088 12.124
13.8239 12.176
13.8391 12.225
13.8543 12.441
13.8695 12.387
13.8846 12.303
13.8998 12.146
13.9150 12.391
13.9302 12.052
13.9453 11.757
13.9605 11.846
13.9757 11.904
13.9909 11.597
14.0060 11.505
14.0212 11.628
14.0364 11.621
14.0516 11.535
14.0667 11.337
14.0819 11.396
14.0971 11.227
14.1123 11.378
14.1274 11.412
14.1426 11.425
14.1578 11.483
14.1730 11.409
14.1881 11.469
14.2033 11.411
14.2185 11.554
14.2337 11.906
14.2488 11.714
14.2640 11.625
14.2792 11.631
14.2944 12.029
14.3095 12.231
14.3247 11.983
14.3399 12.044
14.3551 12.387
14.3702 13.115
14.3854 13.000
14.4006 13.313
14.4158 13.882
14.4309 13.710
14.4461 13.593
14.4613 13.135
14.4765 12.429
14.4916 12.221
14.5068 12.204
14.5220 12.145
14.5372 11.752
14.5523 11.678
14.5675 11.425
14.5827 11.037
14.5979 11.149
14.6130 11.055
14.6282 11.123
14.6434 10.683
14.6586 10.757
14.6737 10.837
14.6889 10.747
14.7041 10.597
14.7193 10.669
14.7344 10.938
14.7496 10.768
14.7648 10.780
14.7800 10.808
14.7951 10.931
14.8103 10.396
14.8255 10.696
14.8407 10.348
14.8558 10.471
14.8710 10.355
14.8862 10.644
14.9014 10.649
14.9165 10.808
14.9317 10.798
14.9469 10.455
14.9621 10.431
14.9772 10.400
14.9924 10.295
15.0076 10.439
15.0228 10.658
15.0379 10.305
15.0531 10.292
15.0683 10.277
15.0835 10.578
15.0986 10.238
15.1138 10.580
15.1290 9.937
15.1442 10.281
15.1593 10.158
15.1745 10.483
15.1897 10.213
15.2049 10.122
15.2200 10.312
15.2352 10.242
15.2504 10.266
15.2656 10.316
15.2807 10.056
15.2959 9.970
15.3111 9.941
15.3263 10.186
15.3414 9.877
15.3566 10.462
15.3718 10.042
15.3870 10.150
15.4021 10.379
15.4173 10.198
15.4325 10.290
15.4477 10.207
15.4628 9.982
15.4780 9.923
15.4932 10.305
15.5084 10.035
15.5235 9.978
15.5387 9.938
15.5539 9.945
15.5691 9.957
15.5842 9.698
15.5994 9.751
15.6146 9.778
15.6298 9.649
15.6449 9.569
15.6601 9.876
15.6753 9.681
15.6905 9.586
15.7056 9.831
15.7208 9.639
15.7360 9.337
15.7512 9.481
15.7663 9.408
15.7815 9.552
15.7967 9.756
15.8119 10.002
15.8270 9.737
15.8422 9.939
15.8574 9.912
15.8726 9.919
15.8877 9.911
15.9029 9.675
15.9181 9.705
15.9333 9.749
15.9484 9.632
15.9636 9.586
15.9788 9.627
15.9940 9.732
16.0091 9.839
16.0243 9.611
16.0395 9.471
16.0547 9.513
16.0698 9.411
16.0850 9.486
16.1002 9.471
16.1154 9.561
16.1305 9.573
16.1457 9.552
16.1609 9.412
16.1761 9.653
16.1912 9.653
16.2064 9.613
16.2216 9.771
16.2368 9.782
16.2519 9.611
16.2671 9.922
16.2823 10.098
16.2975 9.951
16.3126 9.856
16.3278 9.892
16.3430 10.074
16.3582 9.801
16.3733 9.631
16.3885 9.790
16.4037 9.877
16.4189 9.532
16.4340 9.880
16.4492 9.842
16.4644 9.670
16.4796 9.741
16.4947 9.502
16.5099 9.551
16.5251 9.659
16.5403 9.606
16.5554 9.451
16.5706 9.679
16.5858 9.695
16.6010 9.486
16.6161 9.612
16.6313 9.776
16.6465 9.766
16.6617 9.604
16.6768 9.471
16.6920 9.762
16.7072 10.103
16.7224 10.077
16.7375 9.868
16.7527 9.745
16.7679 9.657
16.7831 9.812
16.7982 9.846
16.8134 9.706
16.8286 9.742
16.8438 9.983
16.8589 9.955
16.8741 9.872
16.8893 9.862
16.9045 9.798
16.9196 9.747
16.9348 9.809
16.9500 9.808
16.9652 9.927
16.9803 9.967
16.9955 9.918
17.0107 9.806
17.0259 9.802
17.0410 10.030
17.0562 10.074
17.0714 10.017
17.0866 10.250
17.1017 10.556
17.1169 10.870
17.1321 10.843
17.1473 11.104
17.1624 11.632
17.1776 12.189
17.1928 12.993
17.2080 14.002
17.2231 15.175
17.2383 16.330
17.2535 17.557
17.2687 18.419
17.2838 18.526
17.2990 17.863
17.3142 16.755
17.3294 16.044
17.3445 16.070
17.3597 16.146
17.3749 15.890
17.3901 15.224
17.4052 14.221
17.4204 13.288
17.4356 12.371
17.4508 11.868
17.4659 11.587
17.4811 11.313
17.4963 11.226
17.5115 10.923
17.5266 10.879
17.5418 10.834
17.5570 10.856
17.5722 11.009
17.5873 10.811
17.6025 10.804
17.6177 10.961
17.6329 11.144
17.6480 11.274
17.6632 11.597
17.6784 11.987
17.6936 12.129
17.7087 12.341
17.7239 12.395
17.7391 11.901
17.7543 11.421
17.7694 11.302
17.7846 11.370
17.7998 11.267
17.8150 11.256
17.8301 11.187
17.8453 10.896
17.8605 10.550
17.8757 10.373
17.8908 10.337
17.9060 10.301
17.9212 10.395
17.9364 10.342
17.9515 10.311
17.9667 10.402
17.9819 10.294
17.9971 10.123
18.0122 10.134
18.0274 10.330
18.0426 10.428
18.0578 10.219
18.0729 10.051
18.0881 9.825
18.1033 9.942
18.1185 9.984
18.1336 9.953
18.1488 10.050
18.1640 9.960
18.1792 9.973
18.1943 10.033
18.2095 10.095
18.2247 10.103
18.2399 10.006
18.2550 9.758
18.2702 9.785
18.2854 9.934
18.3006 9.854
18.3157 9.804
18.3309 9.857
18.3461 9.677
18.3613 9.751
18.3764 10.017
18.3916 9.918
18.4068 9.676
18.4220 9.727
18.4371 9.751
18.4523 9.919
18.4675 9.857
18.4827 9.699
18.4978 9.616
18.5130 9.431
18.5282 9.470
18.5434 9.584
18.5585 9.792
18.5737 9.877
18.5889 9.833
18.6041 9.848
18.6192 9.665
18.6344 9.664
18.6496 9.527
18.6648 9.658
18.6799 9.823
18.6951 9.693
18.7103 9.635
18.7255 9.630
18.7406 9.635
18.7558 9.652
18.7710 9.724
18.7862 9.923
18.8013 9.878
18.8165 9.751
18.8317 9.716
18.8469 9.775
18.8620 9.769
18.8772 9.981
18.8924 10.020
18.9076 10.033
18.9227 9.983
18.9379 9.848
18.9531 9.908
18.9683 10.058
18.9834 10.037
18.9986 10.054
19.0138 10.179
19.0290 10.172
19.0441 10.144
19.0593 10.174
19.0745 10.413
19.0897 10.421
19.1048 10.312
19.1200 10.596
19.1352 10.445
19.1504 10.223
19.1655 10.461
19.1807 10.775
19.1959 10.614
19.2111 10.613
19.2262 10.740
19.2414 10.757
19.2566 10.706
19.2718 10.695
19.2869 10.764
19.3021 10.833
19.3173 10.901
19.3325 10.890
19.3476 11.086
19.3628 11.164
19.3780 11.032
19.3932 11.064
19.4083 11.059
19.4235 11.244
19.4387 11.303
19.4539 11.135
19.4690 11.150
19.4842 11.299
19.4994 11.285
19.5146 11.353
19.5297 11.385
19.5449 11.409
19.5601 11.620
19.5753 11.719
19.5904 11.673
19.6056 11.763
19.6208 11.667
19.6360 11.730
19.6511 11.808
19.6663 11.776
19.6815 11.559
19.6967 11.535
19.7118 11.721
19.7270 11.784
19.7422 11.734
19.7574 11.729
19.7725 11.996
19.7877 11.754
19.8029 11.848
19.8180 11.942
19.8332 11.932
19.8484 12.249
19.8636 12.382
19.8787 12.561
19.8939 12.930
19.9091 13.313
19.9243 13.408
19.9394 13.530
19.9546 13.794
19.9698 14.181
19.9850 14.436
20.0001 14.390
20.0153 14.169
20.0305 13.939
20.0457 13.613
20.0608 13.642
20.0760 13.584
20.0912 13.425
20.1064 13.246
20.1215 13.181
20.1367 12.992
20.1519 12.567
20.1671 12.663
20.1822 12.863
20.1974 12.632
20.2126 12.359
20.2278 12.557
20.2429 12.562
20.2581 12.352
20.2733 12.018
20.2885 11.841
20.3036 11.761
20.3188 11.850
20.3340 12.090
20.3492 11.961
20.3643 11.725
20.3795 11.848
20.3947 11.758
20.4099 11.491
20.4250 11.630
20.4402 11.956
20.4554 12.261
20.4706 12.304
20.4857 12.409
20.5009 12.170
20.5161 11.998
20.5313 11.724
20.5464 11.787
20.5616 11.668
20.5768 11.716
20.5920 11.460
20.6071 11.372
20.6223 11.259
20.6375 11.182
20.6527 10.969
20.6678 10.989
20.6830 10.823
20.6982 10.548
20.7134 10.441
20.7285 10.470
20.7437 10.584
20.7589 10.491
20.7741 10.566
20.7892 10.436
20.8044 10.050
20.8196 9.933
20.8348 10.174
20.8499 10.226
20.8651 10.372
20.8803 10.222
20.8955 10.113
20.9106 10.169
20.9258 10.048
20.9410 10.065
20.9562 10.310
20.9713 10.089
20.9865 10.115
21.0017 9.976
21.0169 9.978
21.0320 9.914
21.0472 9.683
21.0624 10.098
21.0776 10.025
21.0927 9.866
21.1079 9.878
21.1231 9.367
21.1383 9.792
21.1534 9.931
21.1686 9.881
21.1838 9.940
21.1990 9.590
21.2141 9.614
21.2293 9.558
21.2445 9.735
21.2597 9.810
21.2748 9.702
21.2900 9.395
21.3052 9.706
21.3204 9.691
21.3355 9.813
21.3507 9.437
21.3659 9.570
21.3811 9.349
21.3962 9.147
21.4114 9.383
21.4266 9.649
21.4418 9.441
21.4569 9.194
21.4721 9.449
21.4873 9.305
21.5025 9.270
21.5176 9.443
21.5328 9.203
21.5480 8.992
21.5632 9.447
21.5783 8.972
21.5935 9.078
21.6087 8.996
21.6239 9.178
21.6390 9.171
21.6542 8.955
21.6694 9.186
21.6846 9.078
21.6997 8.881
21.7149 9.001
21.7301 8.871
21.7453 8.836
21.7604 8.977
21.7756 8.921
21.7908 9.032
21.8060 9.050
21.8211 9.251
21.8363 9.054
21.8515 9.168
21.8667 9.211
21.8818 9.331
21.8970 9.186
21.9122 8.965
21.9274 8.956
21.9425 9.050
21.9577 9.205
21.9729 9.005
21.9881 8.973
22.0032 9.043
22.0184 8.905
22.0336 8.756
22.0488 8.634
22.0639 8.762
22.0791 8.714
22.0943 8.699
22.1095 8.775
22.1246 8.594
22.1398 8.585
22.1550 8.729
22.1702 8.719
22.1853 8.769
22.2005 8.535
22.2157 8.459
22.2309 8.793
22.2460 8.559
22.2612 8.496
22.2764 8.496
22.2916 8.523
22.3067 8.616
22.3219 8.366
22.3371 8.436
22.3523 8.524
22.3674 8.398
22.3826 8.611
22.3978 8.478
22.4130 8.453
22.4281 8.310
22.4433 8.190
22.4585 8.201
22.4737 8.540
22.4888 8.291
22.5040 8.836
22.5192 8.421
22.5344 8.331
22.5495 8.319
22.5647 8.393
22.5799 8.521
22.5951 8.261
22.6102 8.438
22.6254 8.559
22.6406 8.420
22.6558 8.379
22.6709 8.524
22.6861 8.202
22.7013 7.998
22.7165 8.009
22.7316 6.366
