'Id: "" Comment: "" Operator: "Lab Manager" Anode: "Mo" Scantype: "Still (Eiger2R_500K (1D mode))" TimePerStep: "300" X: "11.8" Y: "9.4" Z: "11.284" 
7.2532 18.683
7.2684 18.761
7.2836 18.965
7.2987 18.493
7.3139 18.715
7.3291 18.772
7.3443 19.059
7.3594 19.237
7.3746 19.160
7.3898 19.000
7.4050 19.206
7.4201 19.331
7.4353 19.218
7.4505 19.457
7.4657 19.449
7.4808 19.228
7.4960 19.777
7.5112 19.748
7.5264 19.549
7.5415 19.773
7.5567 19.560
7.5719 19.574
7.5871 19.448
7.6022 19.703
7.6174 19.917
7.6326 19.996
7.6478 19.939
7.6629 20.048
7.6781 20.302
7.6933 20.423
7.7085 20.286
7.7236 20.403
7.7388 20.361
7.7540 20.298
7.7692 20.412
7.7843 20.326
7.7995 20.284
7.8147 20.130
7.8299 20.141
7.8450 20.154
7.8602 20.530
7.8754 20.796
7.8905 20.657
7.9057 20.519
7.9209 20.664
7.9361 20.793
7.9512 20.886
7.9664 20.805
7.9816 21.177
7.9968 20.890
8.0119 20.911
8.0271 21.021
8.0423 20.625
8.0575 20.844
8.0726 21.083
8.0878 21.344
8.1030 21.110
8.1182 20.640
8.1333 20.917
8.1485 21.286
8.1637 21.466
8.1789 21.302
8.1940 21.039
8.2092 20.947
8.2244 21.000
8.2396 21.339
8.2547 21.782
8.2699 21.401
8.2851 21.355
8.3003 21.429
8.3154 21.344
8.3306 21.465
8.3458 21.333
8.3610 21.449
8.3761 21.784
8.3913 21.751
8.4065 21.775
8.4217 21.961
8.4368 21.806
8.4520 21.835
8.4672 22.015
8.4824 22.047
8.4975 21.483
8.5127 22.117
8.5279 21.731
8.5431 21.924
8.5582 21.952
8.5734 21.417
8.5886 22.082
8.6038 21.838
8.6189 22.250
8.6341 22.092
8.6493 22.180
8.6645 21.662
8.6796 22.430
8.6948 21.961
8.7100 22.673
8.7252 22.237
8.7403 21.900
8.7555 22.148
8.7707 22.232
8.7859 22.051
8.8010 21.485
8.8162 21.847
8.8314 22.424
8.8466 22.385
8.8617 22.386
8.8769 21.964
8.8921 22.524
8.9073 22.491
8.9224 22.419
8.9376 22.107
8.9528 22.575
8.9680 22.325
8.9831 22.682
8.9983 22.666
9.0135 22.458
9.0287 22.273
9.0438 22.454
9.0590 22.775
9.0742 22.817
9.0894 22.664
9.1045 22.319
9.1197 22.555
9.1349 22.798
9.1501 22.847
9.1652 22.591
9.1804 22.448
9.1956 22.851
9.2108 22.817
9.2259 22.681
9.2411 22.702
9.2563 22.618
9.2715 22.643
9.2866 22.743
9.3018 23.052
9.3170 23.175
9.3322 23.290
9.3473 23.083
9.3625 22.986
9.3777 22.835
9.3929 23.080
9.4080 23.124
9.4232 22.826
9.4384 22.772
9.4536 22.845
9.4687 23.110
9.4839 23.249
9.4991 22.842
9.5143 22.712
9.5294 23.094
9.5446 22.899
9.5598 22.815
9.5750 22.993
9.5901 23.162
9.6053 23.677
9.6205 23.638
9.6357 23.518
9.6508 23.793
9.6660 23.810
9.6812 23.931
9.6964 24.156
9.7115 24.009
9.7267 23.851
9.7419 24.035
9.7571 23.781
9.7722 23.852
9.7874 23.800
9.8026 23.451
9.8178 23.369
9.8329 23.762
9.8481 23.644
9.8633 23.069
9.8785 22.977
9.8936 23.162
9.9088 23.369
9.9240 23.276
9.9392 22.810
9.9543 22.707
9.9695 23.220
9.9847 23.356
9.9999 23.463
10.0150 23.500
10.0302 23.214
10.0454 22.998
10.0606 23.085
10.0757 23.021
10.0909 22.986
10.1061 23.042
10.1213 23.087
10.1364 23.523
10.1516 23.650
10.1668 23.145
10.1820 23.183
10.1971 23.267
10.2123 23.128
10.2275 23.265
10.2427 23.228
10.2578 22.913
10.2730 22.617
10.2882 22.700
10.3034 22.757
10.3185 22.412
10.3337 22.510
10.3489 22.649
10.3641 22.726
10.3792 22.758
10.3944 22.560
10.4096 22.497
10.4248 22.525
10.4399 22.635
10.4551 22.537
10.4703 22.503
10.4855 22.441
10.5006 22.267
10.5158 22.357
10.5310 22.654
10.5462 22.625
10.5613 22.513
10.5765 22.620
10.5917 22.250
10.6069 22.547
10.6220 22.565
10.6372 22.575
10.6524 22.559
10.6676 22.384
10.6827 22.322
10.6979 22.367
10.7131 22.277
10.7283 22.397
10.7434 22.358
10.7586 22.183
10.7738 22.180
10.7890 22.384
10.8041 22.504
10.8193 22.275
10.8345 22.458
10.8497 22.314
10.8648 22.273
10.8800 22.338
10.8952 22.044
10.9104 21.793
10.9255 21.849
10.9407 22.245
10.9559 22.163
10.9711 22.079
10.9862 22.206
11.0014 22.204
11.0166 22.603
11.0318 22.461
11.0469 21.958
11.0621 21.917
11.0773 22.223
11.0925 22.053
11.1076 21.953
11.1228 21.861
11.1380 22.080
11.1532 21.761
11.1683 21.594
11.1835 21.479
11.1987 21.527
11.2139 21.633
11.2290 21.486
11.2442 21.555
11.2594 21.659
11.2746 21.324
11.2897 21.451
11.3049 21.323
11.3201 21.584
11.3353 21.267
11.3504 21.518
11.3656 21.681
11.3808 21.436
11.3960 21.355
11.4111 21.307
11.4263 21.240
11.4415 21.126
11.4567 21.124
11.4718 21.032
11.4870 21.041
11.5022 20.727
11.5174 20.909
11.5325 21.129
11.5477 20.768
11.5629 20.641
11.5781 20.961
11.5932 21.066
11.6084 21.270
11.6236 20.676
11.6388 20.415
11.6539 20.355
11.6691 20.488
11.6843 20.207
11.6995 20.398
11.7146 20.417
11.7298 20.473
11.7450 20.351
11.7602 20.192
11.7753 20.091
11.7905 20.213
11.8057 20.240
11.8209 20.127
11.8360 20.008
11.8512 19.808
11.8664 19.927
11.8816 20.059
11.8967 19.666
11.9119 19.492
11.9271 19.476
11.9423 19.745
11.9574 19.345
11.9726 19.351
11.9878 19.422
12.0030 19.605
12.0181 19.542
12.0333 19.099
12.0485 18.818
12.0637 18.725
12.0788 19.034
12.0940 18.943
12.1092 18.732
12.1244 18.306
12.1395 18.253
12.1547 18.738
12.1699 18.639
12.1851 18.422
12.2002 18.125
12.2154 17.849
12.2306 18.011
12.2458 17.917
12.2609 17.862
12.2761 17.889
12.2913 17.668
12.3065 17.791
12.3216 17.927
12.3368 17.798
12.3520 17.708
12.3672 17.463
12.3823 17.068
12.3975 17.114
12.4127 17.111
12.4279 17.085
12.4430 16.985
12.4582 16.593
12.4734 16.543
12.4886 16.821
12.5037 16.618
12.5189 16.446
12.5341 16.497
12.5493 16.461
12.5644 16.483
12.5796 16.495
12.5948 16.593
12.6100 16.563
12.6251 15.735
12.6403 15.467
12.6555 15.604
12.6707 15.863
12.6858 15.728
12.7010 15.347
12.7162 15.668
12.7314 15.791
12.7465 15.249
12.7617 15.171
12.7769 15.290
12.7921 15.087
12.8072 15.066
12.8224 14.895
12.8376 14.737
12.8528 14.834
12.8679 14.683
12.8831 14.818
12.8983 14.757
12.9135 14.435
12.9286 14.372
12.9438 14.378
12.9590 14.486
12.9742 14.311
12.9893 14.290
13.0045 14.357
13.0197 14.348
13.0349 14.225
13.0500 13.985
13.0652 13.903
13.0804 13.875
13.0956 13.713
13.1107 13.499
13.1259 13.682
13.1411 13.737
13.1563 13.633
13.1714 13.618
13.1866 13.563
13.2018 13.563
13.2170 13.233
13.2321 13.190
13.2473 13.298
13.2625 13.130
13.2777 13.234
13.2928 13.327
13.3080 13.088
13.3232 12.934
13.3384 12.991
13.3535 12.849
13.3687 12.788
13.3839 12.759
13.3991 12.719
13.4142 12.820
13.4294 12.805
13.4446 12.524
13.4598 12.503
13.4749 12.558
13.4901 12.682
13.5053 12.488
13.5205 12.436
13.5356 12.473
13.5508 12.302
13.5660 12.208
13.5812 12.175
13.5963 12.213
13.6115 11.948
13.6267 12.043
13.6419 12.234
13.6570 12.099
13.6722 12.074
13.6874 12.101
13.7026 12.127
13.7177 12.183
13.7329 12.236
13.7481 11.930
13.7633 11.927
13.7784 12.369
13.7936 12.196
13.8088 12.275
13.8239 12.222
13.8391 11.965
13.8543 12.226
13.8695 12.501
13.8846 12.475
13.8998 12.289
13.9150 11.949
13.9302 12.021
13.9453 11.960
13.9605 11.791
13.9757 11.568
13.9909 11.762
14.0060 11.901
14.0212 11.858
14.0364 11.815
14.0516 11.521
14.0667 11.288
14.0819 11.314
14.0971 11.301
14.1123 11.244
14.1274 11.583
14.1426 11.518
14.1578 11.323
14.1730 11.352
14.1881 11.501
14.2033 11.327
14.2185 11.527
14.2337 11.662
14.2488 11.818
14.2640 11.757
14.2792 11.769
14.2944 11.692
14.3095 11.974
14.3247 12.095
14.3399 12.193
14.3551 12.398
14.3702 12.735
14.3854 13.200
14.4006 13.162
14.4158 13.311
14.4309 13.251
14.4461 13.407
14.4613 12.967
14.4765 12.417
14.4916 12.727
14.5068 12.330
14.5220 11.957
14.5372 11.534
14.5523 11.556
14.5675 10.861
14.5827 10.640
14.5979 10.969
14.6130 11.033
14.6282 10.775
14.6434 10.863
14.6586 10.890
14.6737 10.905
14.6889 10.768
14.7041 10.804
14.7193 10.708
14.7344 10.722
14.7496 10.626
14.7648 10.777
14.7800 10.713
14.7951 10.677
14.8103 10.493
14.8255 10.881
14.8407 10.389
14.8558 10.501
14.8710 10.463
14.8862 10.726
14.9014 10.647
14.9165 10.513
14.9317 10.840
14.9469 10.483
14.9621 10.487
14.9772 10.014
14.9924 10.041
15.0076 10.349
15.0228 10.316
15.0379 10.461
15.0531 10.457
15.0683 10.271
15.0835 10.441
15.0986 10.209
15.1138 10.147
15.1290 10.309
15.1442 10.170
15.1593 10.258
15.1745 10.132
15.1897 9.651
15.2049 10.043
15.2200 10.175
15.2352 10.424
15.2504 9.978
15.2656 9.688
15.2807 9.824
15.2959 10.209
15.3111 10.026
15.3263 9.873
15.3414 9.899
15.3566 10.341
15.3718 10.302
15.3870 9.751
15.4021 10.186
15.4173 9.895
15.4325 10.620
15.4477 9.876
15.4628 10.157
15.4780 10.211
15.4932 10.233
15.5084 10.046
15.5235 10.396
15.5387 10.330
15.5539 10.090
15.5691 9.853
15.5842 9.921
15.5994 9.733
15.6146 9.740
15.6298 9.961
15.6449 9.827
15.6601 9.868
15.6753 9.637
15.6905 9.579
15.7056 9.704
15.7208 9.721
15.7360 9.738
15.7512 9.712
15.7663 10.050
15.7815 9.691
15.7967 9.783
15.8119 9.903
15.8270 9.869
15.8422 9.694
15.8574 9.442
15.8726 9.364
15.8877 9.398
15.9029 9.323
15.9181 9.718
15.9333 9.371
15.9484 9.290
15.9636 9.564
15.9788 9.566
15.9940 9.979
16.0091 9.404
16.0243 9.651
16.0395 9.663
16.0547 9.743
16.0698 9.513
16.0850 9.745
16.1002 9.529
16.1154 9.422
16.1305 9.655
16.1457 9.553
16.1609 9.772
16.1761 9.782
16.1912 9.824
16.2064 9.740
16.2216 9.707
16.2368 9.858
16.2519 9.696
16.2671 9.634
16.2823 9.446
16.2975 9.534
16.3126 9.611
16.3278 9.680
16.3430 9.801
16.3582 9.622
16.3733 9.687
16.3885 9.876
16.4037 9.764
16.4189 9.719
16.4340 9.714
16.4492 9.662
16.4644 9.670
16.4796 9.718
16.4947 9.638
16.5099 9.727
16.5251 9.786
16.5403 9.545
16.5554 9.452
16.5706 9.603
16.5858 9.768
16.6010 9.629
16.6161 9.512
16.6313 9.606
16.6465 9.612
16.6617 9.815
16.6768 9.712
16.6920 9.665
16.7072 9.776
16.7224 9.956
16.7375 10.020
16.7527 9.993
16.7679 10.078
16.7831 9.986
16.7982 10.089
16.8134 9.910
16.8286 9.765
16.8438 9.759
16.8589 9.696
16.8741 9.597
16.8893 9.588
16.9045 9.588
16.9196 9.709
16.9348 9.807
16.9500 9.701
16.9652 9.850
16.9803 9.946
16.9955 9.898
17.0107 9.611
17.0259 9.676
17.0410 9.845
17.0562 10.026
17.0714 10.216
17.0866 10.552
17.1017 10.621
17.1169 10.553
17.1321 10.767
17.1473 11.073
17.1624 11.767
17.1776 12.501
17.1928 13.196
17.2080 14.007
17.2231 15.006
17.2383 16.014
17.2535 17.190
17.2687 18.463
17.2838 18.698
17.2990 18.013
17.3142 16.979
17.3294 16.201
17.3445 15.937
17.3597 15.861
17.3749 15.672
17.3901 15.054
17.4052 14.137
17.4204 13.033
17.4356 12.548
17.4508 12.127
17.4659 11.524
17.4811 11.554
17.4963 11.481
17.5115 11.210
17.5266 11.146
17.5418 11.037
17.5570 10.848
17.5722 10.925
17.5873 11.186
17.6025 11.292
17.6177 11.148
17.6329 11.272
17.6480 11.593
17.6632 11.928
17.6784 11.961
17.6936 11.933
17.7087 12.131
17.7239 11.765
17.7391 11.378
17.7543 11.297
17.7694 11.060
17.7846 11.160
17.7998 11.374
17.8150 11.222
17.8301 11.095
17.8453 10.683
17.8605 10.585
17.8757 10.400
17.8908 10.305
17.9060 10.498
17.9212 10.238
17.9364 10.035
17.9515 10.040
17.9667 10.256
17.9819 10.380
17.9971 10.269
18.0122 10.205
18.0274 10.179
18.0426 10.260
18.0578 10.171
18.0729 10.023
18.0881 9.937
18.1033 9.902
18.1185 9.887
18.1336 10.036
18.1488 9.983
18.1640 9.822
18.1792 9.894
18.1943 9.878
18.2095 9.678
18.2247 9.708
18.2399 9.822
18.2550 9.893
18.2702 9.796
18.2854 10.014
18.3006 9.803
18.3157 9.839
18.3309 9.986
18.3461 9.712
18.3613 9.965
18.3764 9.911
18.3916 9.761
18.4068 9.702
18.4220 9.732
18.4371 9.830
18.4523 9.848
18.4675 9.748
18.4827 9.725
18.4978 9.639
18.5130 9.733
18.5282 9.857
18.5434 9.827
18.5585 9.972
18.5737 10.037
18.5889 9.795
18.6041 9.896
18.6192 9.822
18.6344 9.688
18.6496 9.897
18.6648 9.967
18.6799 9.596
18.6951 9.628
18.7103 9.939
18.7255 9.786
18.7406 9.991
18.7558 10.003
18.7710 9.733
18.7862 9.854
18.8013 9.793
18.8165 9.694
18.8317 9.740
18.8469 9.990
18.8620 10.101
18.8772 9.913
18.8924 9.823
18.9076 10.199
18.9227 9.965
18.9379 9.885
18.9531 10.151
18.9683 10.163
18.9834 10.139
18.9986 9.928
19.0138 9.984
19.0290 10.161
19.0441 10.311
19.0593 10.329
19.0745 10.298
19.0897 10.236
19.1048 10.259
19.1200 10.296
19.1352 10.210
19.1504 10.374
19.1655 10.581
19.1807 10.734
19.1959 10.758
19.2111 10.712
19.2262 10.677
19.2414 10.632
19.2566 10.713
19.2718 10.839
19.2869 11.081
19.3021 10.849
19.3173 10.842
19.3325 11.111
19.3476 11.105
19.3628 11.071
19.3780 11.011
19.3932 10.994
19.4083 11.068
19.4235 11.345
19.4387 11.471
19.4539 11.366
19.4690 11.316
19.4842 11.334
19.4994 11.218
19.5146 11.283
19.5297 11.364
19.5449 11.334
19.5601 11.426
19.5753 11.550
19.5904 11.627
19.6056 11.599
19.6208 11.639
19.6360 11.447
19.6511 11.545
19.6663 11.694
19.6815 11.576
19.6967 11.708
19.7118 12.043
19.7270 12.009
19.7422 12.017
19.7574 11.881
19.7725 11.732
19.7877 11.903
19.8029 12.042
19.8180 12.119
19.8332 12.182
19.8484 12.356
19.8636 12.648
19.8787 12.861
19.8939 12.752
19.9091 13.027
19.9243 13.446
19.9394 13.921
19.9546 14.198
19.9698 14.416
19.9850 14.504
20.0001 14.455
20.0153 14.269
20.0305 14.097
20.0457 13.906
20.0608 14.053
20.0760 14.064
20.0912 13.741
20.1064 13.601
20.1215 13.586
20.1367 13.288
20.1519 12.735
20.1671 12.694
20.1822 12.737
20.1974 12.640
20.2126 12.833
20.2278 12.904
20.2429 12.871
20.2581 12.741
20.2733 12.140
20.2885 11.970
20.3036 11.869
20.3188 11.840
20.3340 11.997
20.3492 12.248
20.3643 11.973
20.3795 11.795
20.3947 11.955
20.4099 11.726
20.4250 11.603
20.4402 12.212
20.4554 12.290
20.4706 12.194
20.4857 12.251
20.5009 12.037
20.5161 12.019
20.5313 11.542
20.5464 11.489
20.5616 11.714
20.5768 11.760
20.5920 11.482
20.6071 11.179
20.6223 11.296
20.6375 11.035
20.6527 11.285
20.6678 11.222
20.6830 10.945
20.6982 10.928
20.7134 10.730
20.7285 10.563
20.7437 10.512
20.7589 10.635
20.7741 10.478
20.7892 10.485
20.8044 10.199
20.8196 10.053
20.8348 10.332
20.8499 10.399
20.8651 10.308
20.8803 10.315
20.8955 9.877
20.9106 10.123
20.9258 10.182
20.9410 10.145
20.9562 10.325
20.9713 10.193
20.9865 10.171
21.0017 9.854
21.0169 10.224
21.0320 9.988
21.0472 10.162
21.0624 10.297
21.0776 9.818
21.0927 10.011
21.1079 10.110
21.1231 9.875
21.1383 9.625
21.1534 10.025
21.1686 9.793
21.1838 9.899
21.1990 9.520
21.2141 9.813
21.2293 9.449
21.2445 9.900
21.2597 10.156
21.2748 9.723
21.2900 9.909
21.3052 9.527
21.3204 9.404
21.3355 9.490
21.3507 9.467
21.3659 9.612
21.3811 9.706
21.3962 9.221
21.4114 9.301
21.4266 9.188
21.4418 9.845
21.4569 9.365
21.4721 9.364
21.4873 9.165
21.5025 9.252
21.5176 9.568
21.5328 9.400
21.5480 9.271
21.5632 9.304
21.5783 9.083
21.5935 9.471
21.6087 9.613
21.6239 9.183
21.6390 9.181
21.6542 9.468
21.6694 9.258
21.6846 9.115
21.6997 9.054
21.7149 9.210
21.7301 8.926
21.7453 9.007
21.7604 9.022
21.7756 9.061
21.7908 8.992
21.8060 8.940
21.8211 8.939
21.8363 8.934
21.8515 8.942
21.8667 9.023
21.8818 9.045
21.8970 9.065
21.9122 9.077
21.9274 8.969
21.9425 8.887
21.9577 8.938
21.9729 8.943
21.9881 8.908
22.0032 8.934
22.0184 8.845
22.0336 8.579
22.0488 8.605
22.0639 8.754
22.0791 8.822
22.0943 8.815
22.1095 8.575
22.1246 8.520
22.1398 8.588
22.1550 8.592
22.1702 8.724
22.1853 8.359
22.2005 8.485
22.2157 8.729
22.2309 8.752
22.2460 8.534
22.2612 8.413
22.2764 8.464
22.2916 8.612
22.3067 8.517
22.3219 8.763
22.3371 8.491
22.3523 8.412
22.3674 8.608
22.3826 8.416
22.3978 8.551
22.4130 8.492
22.4281 8.545
22.4433 8.509
22.4585 8.479
22.4737 8.238
22.4888 8.277
22.5040 8.765
22.5192 8.262
22.5344 8.467
22.5495 8.304
22.5647 8.541
22.5799 8.205
22.5951 8.316
22.6102 8.561
22.6254 8.467
22.6406 8.313
22.6558 8.363
22.6709 8.144
22.6861 8.575
22.7013 8.172
22.7165 7.974
22.7316 6.622
