'Id: "" Comment: "" Operator: "Lab Manager" Anode: "Mo" Scantype: "Still (Eiger2R_500K (1D mode))" TimePerStep: "300" X: "11.8" Y: "9.4" Z: "11.284" 
7.2532 19.140
7.2684 18.751
7.2836 19.151
7.2987 19.102
7.3139 18.874
7.3291 19.325
7.3443 19.190
7.3594 18.929
7.3746 19.332
7.3898 19.420
7.4050 19.358
7.4201 19.626
7.4353 19.807
7.4505 19.368
7.4657 19.577
7.4808 19.691
7.4960 19.615
7.5112 19.942
7.5264 19.829
7.5415 19.710
7.5567 19.926
7.5719 20.077
7.5871 19.941
7.6022 20.176
7.6174 20.031
7.6326 19.956
7.6478 20.219
7.6629 20.226
7.6781 20.062
7.6933 20.448
7.7085 20.370
7.7236 20.175
7.7388 20.304
7.7540 20.491
7.7692 20.361
7.7843 20.556
7.7995 20.766
7.8147 20.767
7.8299 20.843
7.8450 20.886
7.8602 21.039
7.8754 21.188
7.8905 21.214
7.9057 21.373
7.9209 21.180
7.9361 21.177
7.9512 21.301
7.9664 21.508
7.9816 21.536
7.9968 21.171
8.0119 21.606
8.0271 21.926
8.0423 21.574
8.0575 21.394
8.0726 21.335
8.0878 21.649
8.1030 21.408
8.1182 21.502
8.1333 21.400
8.1485 21.543
8.1637 21.767
8.1789 21.555
8.1940 21.521
8.2092 21.467
8.2244 21.442
8.2396 21.124
8.2547 21.795
8.2699 22.162
8.2851 21.408
8.3003 21.801
8.3154 22.229
8.3306 21.753
8.3458 21.775
8.3610 21.487
8.3761 22.071
8.3913 21.628
8.4065 21.790
8.4217 22.404
8.4368 21.808
8.4520 22.250
8.4672 22.039
8.4824 22.563
8.4975 21.790
8.5127 22.287
8.5279 22.011
8.5431 22.466
8.5582 21.737
8.5734 21.996
8.5886 22.464
8.6038 22.762
8.6189 22.663
8.6341 22.567
8.6493 22.671
8.6645 22.201
8.6796 23.592
8.6948 22.906
8.7100 22.373
8.7252 22.998
8.7403 22.415
8.7555 22.974
8.7707 22.799
8.7859 22.755
8.8010 23.007
8.8162 22.622
8.8314 22.955
8.8466 22.770
8.8617 23.020
8.8769 22.588
8.8921 22.585
8.9073 22.919
8.9224 22.976
8.9376 22.623
8.9528 22.692
8.9680 22.415
8.9831 23.003
8.9983 22.684
9.0135 22.653
9.0287 23.121
9.0438 23.073
9.0590 22.942
9.0742 22.771
9.0894 23.363
9.1045 23.454
9.1197 23.270
9.1349 23.310
9.1501 22.849
9.1652 22.813
9.1804 23.368
9.1956 23.353
9.2108 23.198
9.2259 23.091
9.2411 23.061
9.2563 22.946
9.2715 23.308
9.2866 23.260
9.3018 23.235
9.3170 22.817
9.3322 23.233
9.3473 23.396
9.3625 23.157
9.3777 23.203
9.3929 23.152
9.4080 23.077
9.4232 23.051
9.4384 23.269
9.4536 23.465
9.4687 23.584
9.4839 23.744
9.4991 23.309
9.5143 23.053
9.5294 23.454
9.5446 23.497
9.5598 23.163
9.5750 23.553
9.5901 23.668
9.6053 23.414
9.6205 23.705
9.6357 23.779
9.6508 23.835
9.6660 23.809
9.6812 23.669
9.6964 23.486
9.7115 23.859
9.7267 24.165
9.7419 24.111
9.7571 24.129
9.7722 24.153
9.7874 24.118
9.8026 23.881
9.8178 23.694
9.8329 23.430
9.8481 23.389
9.8633 23.623
9.8785 23.808
9.8936 23.720
9.9088 23.649
9.9240 23.738
9.9392 23.520
9.9543 23.327
9.9695 23.568
9.9847 23.519
9.9999 23.481
10.0150 23.766
10.0302 23.900
10.0454 23.675
10.0606 23.615
10.0757 23.832
10.0909 24.220
10.1061 24.111
10.1213 24.395
10.1364 23.873
10.1516 23.495
10.1668 23.770
10.1820 24.279
10.1971 24.518
10.2123 24.664
10.2275 24.105
10.2427 24.189
10.2578 24.329
10.2730 24.409
10.2882 24.297
10.3034 23.890
10.3185 23.445
10.3337 23.385
10.3489 23.242
10.3641 23.056
10.3792 22.800
10.3944 22.703
10.4096 22.563
10.4248 22.868
10.4399 22.862
10.4551 22.836
10.4703 23.273
10.4855 23.095
10.5006 22.684
10.5158 22.629
10.5310 22.696
10.5462 23.042
10.5613 23.263
10.5765 22.979
10.5917 23.005
10.6069 22.883
10.6220 22.753
10.6372 22.607
10.6524 22.883
10.6676 22.859
10.6827 22.922
10.6979 22.455
10.7131 22.664
10.7283 22.903
10.7434 22.167
10.7586 22.605
10.7738 22.494
10.7890 22.222
10.8041 22.454
10.8193 22.655
10.8345 22.241
10.8497 22.059
10.8648 21.868
10.8800 22.176
10.8952 22.252
10.9104 22.256
10.9255 22.034
10.9407 22.337
10.9559 22.402
10.9711 22.361
10.9862 22.493
11.0014 22.272
11.0166 22.256
11.0318 22.405
11.0469 22.191
11.0621 22.150
11.0773 21.899
11.0925 22.061
11.1076 22.051
11.1228 22.032
11.1380 22.067
11.1532 21.741
11.1683 21.683
11.1835 22.056
11.1987 22.068
11.2139 22.009
11.2290 22.305
11.2442 21.709
11.2594 21.943
11.2746 22.181
11.2897 21.871
11.3049 22.243
11.3201 21.884
11.3353 21.667
11.3504 21.375
11.3656 21.596
11.3808 21.370
11.3960 21.595
11.4111 21.408
11.4263 20.999
11.4415 21.377
11.4567 21.266
11.4718 20.944
11.4870 21.345
11.5022 21.460
11.5174 21.373
11.5325 20.946
11.5477 20.585
11.5629 20.921
11.5781 20.899
11.5932 20.571
11.6084 20.622
11.6236 20.687
11.6388 20.982
11.6539 20.955
11.6691 20.554
11.6843 20.718
11.6995 20.961
11.7146 20.708
11.7298 20.242
11.7450 20.160
11.7602 20.553
11.7753 20.030
11.7905 19.933
11.8057 20.069
11.8209 19.866
11.8360 20.252
11.8512 20.003
11.8664 19.976
11.8816 19.723
11.8967 19.760
11.9119 19.637
11.9271 19.613
11.9423 19.576
11.9574 19.472
11.9726 19.384
11.9878 19.301
12.0030 19.141
12.0181 18.986
12.0333 19.175
12.0485 19.015
12.0637 19.195
12.0788 19.254
12.0940 18.853
12.1092 18.632
12.1244 18.705
12.1395 18.701
12.1547 18.467
12.1699 18.623
12.1851 18.449
12.2002 18.278
12.2154 18.169
12.2306 18.080
12.2458 17.819
12.2609 17.874
12.2761 17.906
12.2913 17.859
12.3065 17.570
12.3216 17.561
12.3368 17.550
12.3520 17.222
12.3672 17.261
12.3823 17.107
12.3975 16.914
12.4127 17.234
12.4279 17.414
12.4430 17.368
12.4582 17.329
12.4734 17.145
12.4886 16.896
12.5037 16.975
12.5189 16.965
12.5341 16.585
12.5493 16.664
12.5644 16.573
12.5796 16.264
12.5948 16.196
12.6100 16.294
12.6251 16.238
12.6403 15.892
12.6555 15.915
12.6707 15.909
12.6858 15.589
12.7010 15.800
12.7162 15.712
12.7314 15.308
12.7465 15.512
12.7617 15.380
12.7769 15.054
12.7921 15.167
12.8072 15.405
12.8224 15.476
12.8376 15.180
12.8528 15.027
12.8679 14.973
12.8831 14.993
12.8983 15.068
12.9135 14.888
12.9286 14.537
12.9438 14.707
12.9590 14.966
12.9742 14.401
12.9893 14.110
13.0045 14.491
13.0197 14.640
13.0349 14.546
13.0500 14.384
13.0652 14.151
13.0804 14.022
13.0956 13.844
13.1107 13.651
13.1259 13.802
13.1411 13.828
13.1563 13.503
13.1714 13.496
13.1866 13.708
13.2018 13.439
13.2170 13.326
13.2321 13.543
13.2473 13.405
13.2625 13.382
13.2777 13.439
13.2928 13.249
13.3080 13.102
13.3232 13.028
13.3384 13.051
13.3535 13.007
13.3687 12.827
13.3839 12.952
13.3991 12.938
13.4142 12.888
13.4294 12.970
13.4446 12.879
13.4598 12.837
13.4749 12.731
13.4901 12.743
13.5053 12.680
13.5205 12.413
13.5356 12.201
13.5508 12.392
13.5660 12.171
13.5812 12.079
13.5963 12.187
13.6115 11.939
13.6267 12.038
13.6419 12.196
13.6570 12.258
13.6722 12.129
13.6874 12.081
13.7026 11.852
13.7177 12.043
13.7329 12.030
13.7481 12.122
13.7633 12.099
13.7784 11.782
13.7936 11.891
13.8088 11.999
13.8239 12.067
13.8391 12.136
13.8543 12.170
13.8695 12.211
13.8846 11.999
13.8998 12.095
13.9150 12.102
13.9302 11.840
13.9453 11.817
13.9605 11.798
13.9757 11.656
13.9909 11.549
14.0060 11.549
14.0212 11.546
14.0364 11.594
14.0516 11.674
14.0667 11.259
14.0819 11.297
14.0971 11.300
14.1123 11.488
14.1274 11.560
14.1426 11.556
14.1578 11.478
14.1730 11.415
14.1881 11.875
14.2033 11.671
14.2185 11.767
14.2337 11.999
14.2488 12.028
14.2640 12.003
14.2792 11.936
14.2944 11.950
14.3095 12.292
14.3247 12.329
14.3399 12.576
14.3551 12.807
14.3702 13.169
14.3854 13.178
14.4006 13.402
14.4158 13.122
14.4309 13.315
14.4461 12.956
14.4613 13.130
14.4765 12.994
14.4916 12.900
14.5068 12.738
14.5220 12.877
14.5372 12.879
14.5523 12.508
14.5675 12.665
14.5827 12.184
14.5979 12.244
14.6130 11.994
14.6282 11.979
14.6434 11.720
14.6586 11.575
14.6737 11.594
14.6889 11.318
14.7041 11.103
14.7193 11.236
14.7344 11.257
14.7496 11.065
14.7648 11.195
14.7800 10.914
14.7951 10.770
14.8103 10.701
14.8255 10.808
14.8407 10.703
14.8558 10.681
14.8710 10.383
14.8862 10.799
14.9014 10.749
14.9165 10.715
14.9317 10.825
14.9469 10.614
14.9621 10.797
14.9772 10.684
14.9924 10.528
15.0076 10.508
15.0228 10.653
15.0379 10.916
15.0531 10.696
15.0683 10.586
15.0835 10.394
15.0986 10.653
15.1138 10.747
15.1290 10.803
15.1442 10.555
15.1593 10.918
15.1745 10.965
15.1897 10.318
15.2049 10.425
15.2200 10.710
15.2352 10.398
15.2504 10.444
15.2656 10.384
15.2807 10.312
15.2959 10.509
15.3111 10.546
15.3263 10.523
15.3414 10.468
15.3566 10.350
15.3718 10.254
15.3870 10.393
15.4021 10.296
15.4173 10.426
15.4325 10.500
15.4477 10.859
15.4628 10.584
15.4780 10.558
15.4932 10.608
15.5084 10.250
15.5235 10.365
15.5387 10.406
15.5539 10.090
15.5691 10.229
15.5842 10.219
15.5994 10.078
15.6146 9.932
15.6298 10.246
15.6449 10.091
15.6601 10.160
15.6753 9.832
15.6905 9.984
15.7056 9.731
15.7208 9.934
15.7360 10.016
15.7512 10.029
15.7663 9.718
15.7815 9.644
15.7967 9.633
15.8119 9.845
15.8270 9.829
15.8422 9.748
15.8574 9.881
15.8726 9.823
15.8877 9.743
15.9029 9.636
15.9181 9.948
15.9333 10.032
15.9484 9.607
15.9636 9.629
15.9788 9.869
15.9940 9.888
16.0091 9.460
16.0243 9.751
16.0395 9.897
16.0547 9.524
16.0698 9.645
16.0850 9.545
16.1002 9.674
16.1154 9.508
16.1305 9.805
16.1457 9.669
16.1609 9.736
16.1761 9.668
16.1912 9.643
16.2064 9.590
16.2216 9.598
16.2368 9.951
16.2519 10.181
16.2671 9.945
16.2823 9.769
16.2975 10.063
16.3126 10.484
16.3278 10.379
16.3430 10.136
16.3582 10.082
16.3733 10.263
16.3885 10.358
16.4037 10.391
16.4189 10.198
16.4340 9.972
16.4492 10.011
16.4644 9.882
16.4796 9.813
16.4947 9.891
16.5099 9.889
16.5251 9.786
16.5403 9.679
16.5554 9.542
16.5706 9.703
16.5858 9.679
16.6010 9.633
16.6161 9.631
16.6313 9.644
16.6465 9.812
16.6617 9.860
16.6768 9.680
16.6920 9.616
16.7072 9.946
16.7224 9.970
16.7375 9.987
16.7527 10.026
16.7679 9.952
16.7831 10.016
16.7982 9.969
16.8134 9.889
16.8286 9.676
16.8438 9.862
16.8589 9.777
16.8741 9.515
16.8893 9.573
16.9045 9.790
16.9196 9.856
16.9348 9.714
16.9500 9.732
16.9652 9.916
16.9803 9.645
16.9955 9.726
17.0107 10.015
17.0259 10.086
17.0410 10.066
17.0562 10.176
17.0714 10.358
17.0866 10.378
17.1017 10.406
17.1169 10.590
17.1321 11.073
17.1473 11.374
17.1624 11.576
17.1776 12.296
17.1928 13.078
17.2080 14.081
17.2231 15.095
17.2383 15.943
17.2535 17.141
17.2687 18.003
17.2838 18.357
17.2990 18.073
17.3142 17.079
17.3294 16.463
17.3445 16.056
17.3597 15.905
17.3749 15.730
17.3901 15.074
17.4052 14.387
17.4204 13.408
17.4356 12.710
17.4508 12.210
17.4659 11.553
17.4811 11.413
17.4963 11.600
17.5115 11.457
17.5266 11.165
17.5418 11.030
17.5570 11.014
17.5722 11.439
17.5873 11.785
17.6025 11.526
17.6177 11.266
17.6329 11.097
17.6480 10.985
17.6632 11.175
17.6784 11.104
17.6936 11.109
17.7087 11.199
17.7239 10.944
17.7391 11.009
17.7543 10.974
17.7694 10.844
17.7846 10.914
17.7998 11.083
17.8150 11.175
17.8301 11.257
17.8453 11.235
17.8605 11.300
17.8757 11.481
17.8908 11.363
17.9060 11.338
17.9212 11.329
17.9364 10.948
17.9515 10.693
17.9667 10.785
17.9819 10.985
17.9971 10.700
18.0122 10.657
18.0274 10.693
18.0426 10.535
18.0578 10.332
18.0729 10.133
18.0881 10.109
18.1033 10.249
18.1185 10.150
18.1336 10.162
18.1488 10.220
18.1640 10.264
18.1792 10.133
18.1943 10.012
18.2095 10.118
18.2247 10.089
18.2399 9.836
18.2550 9.871
18.2702 9.928
18.2854 10.007
18.3006 9.856
18.3157 10.167
18.3309 9.948
18.3461 9.645
18.3613 9.810
18.3764 9.831
18.3916 9.799
18.4068 9.946
18.4220 10.078
18.4371 9.731
18.4523 9.688
18.4675 9.941
18.4827 9.985
18.4978 9.739
18.5130 9.792
18.5282 9.903
18.5434 9.993
18.5585 9.975
18.5737 9.912
18.5889 9.688
18.6041 9.647
18.6192 9.749
18.6344 9.744
18.6496 9.821
18.6648 9.774
18.6799 9.854
18.6951 9.896
18.7103 9.703
18.7255 9.688
18.7406 9.802
18.7558 9.888
18.7710 9.849
18.7862 9.776
18.8013 9.572
18.8165 9.465
18.8317 9.606
18.8469 9.862
18.8620 9.860
18.8772 9.976
18.8924 10.041
18.9076 9.952
18.9227 10.010
18.9379 9.903
18.9531 9.872
18.9683 9.968
18.9834 9.928
18.9986 10.019
19.0138 10.090
19.0290 9.989
19.0441 10.172
19.0593 10.142
19.0745 10.170
19.0897 10.501
19.1048 10.483
19.1200 10.561
19.1352 10.349
19.1504 10.315
19.1655 10.484
19.1807 10.437
19.1959 10.457
19.2111 10.539
19.2262 10.747
19.2414 10.849
19.2566 10.659
19.2718 10.742
19.2869 10.855
19.3021 10.971
19.3173 11.088
19.3325 10.949
19.3476 10.827
19.3628 11.014
19.3780 11.081
19.3932 11.218
19.4083 11.490
19.4235 11.447
19.4387 11.495
19.4539 11.374
19.4690 11.062
19.4842 11.234
19.4994 11.538
19.5146 11.437
19.5297 11.512
19.5449 11.690
19.5601 11.508
19.5753 11.648
19.5904 11.685
19.6056 11.821
19.6208 11.741
19.6360 11.467
19.6511 11.506
19.6663 11.601
19.6815 11.897
19.6967 11.741
19.7118 11.675
19.7270 11.786
19.7422 11.760
19.7574 11.772
19.7725 11.832
19.7877 11.833
19.8029 11.901
19.8180 11.975
19.8332 11.998
19.8484 12.116
19.8636 12.204
19.8787 12.429
19.8939 12.704
19.9091 12.936
19.9243 13.280
19.9394 13.649
19.9546 13.925
19.9698 14.358
19.9850 14.383
20.0001 14.230
20.0153 14.262
20.0305 13.792
20.0457 13.326
20.0608 13.632
20.0760 13.771
20.0912 13.501
20.1064 13.424
20.1215 13.307
20.1367 13.065
20.1519 12.839
20.1671 12.813
20.1822 12.841
20.1974 12.714
20.2126 12.711
20.2278 12.937
20.2429 12.711
20.2581 12.519
20.2733 12.359
20.2885 12.090
20.3036 11.874
20.3188 11.800
20.3340 12.098
20.3492 12.075
20.3643 11.777
20.3795 11.604
20.3947 11.325
20.4099 11.336
20.4250 11.310
20.4402 10.980
20.4554 10.974
20.4706 10.911
20.4857 10.907
20.5009 10.928
20.5161 10.847
20.5313 10.883
20.5464 10.991
20.5616 11.153
20.5768 10.945
20.5920 11.054
20.6071 10.989
20.6223 10.886
20.6375 10.733
20.6527 10.571
20.6678 11.073
20.6830 11.043
20.6982 10.707
20.7134 10.641
20.7285 10.905
20.7437 11.058
20.7589 10.626
20.7741 10.679
20.7892 10.530
20.8044 10.437
20.8196 10.445
20.8348 10.507
20.8499 10.278
20.8651 10.428
20.8803 10.550
20.8955 10.427
20.9106 10.358
20.9258 10.616
20.9410 10.042
20.9562 10.388
20.9713 10.442
20.9865 10.426
21.0017 9.978
21.0169 9.788
21.0320 9.777
21.0472 9.835
21.0624 10.067
21.0776 10.055
21.0927 9.971
21.1079 10.047
21.1231 9.958
21.1383 10.261
21.1534 9.781
21.1686 9.842
21.1838 9.569
21.1990 9.730
21.2141 10.067
21.2293 9.653
21.2445 9.863
21.2597 9.856
21.2748 9.767
21.2900 9.669
21.3052 9.596
21.3204 9.252
21.3355 9.540
21.3507 9.932
21.3659 9.481
21.3811 9.566
21.3962 9.634
21.4114 9.356
21.4266 9.758
21.4418 9.323
21.4569 9.511
21.4721 9.484
21.4873 9.379
21.5025 9.319
21.5176 9.310
21.5328 9.383
21.5480 9.527
21.5632 9.426
21.5783 9.179
21.5935 9.247
21.6087 9.389
21.6239 9.243
21.6390 9.180
21.6542 9.352
21.6694 9.105
21.6846 9.345
21.6997 9.102
21.7149 9.365
21.7301 9.252
21.7453 8.951
21.7604 9.095
21.7756 9.070
21.7908 8.971
21.8060 8.977
21.8211 8.937
21.8363 8.990
21.8515 9.186
21.8667 9.165
21.8818 9.130
21.8970 9.110
21.9122 8.913
21.9274 8.666
21.9425 8.776
21.9577 8.960
21.9729 8.792
21.9881 8.683
22.0032 8.805
22.0184 8.822
22.0336 8.852
22.0488 9.008
22.0639 8.859
22.0791 8.759
22.0943 8.792
22.1095 8.712
22.1246 8.684
22.1398 8.619
22.1550 8.577
22.1702 8.563
22.1853 8.435
22.2005 8.496
22.2157 8.573
22.2309 8.679
22.2460 8.861
22.2612 8.838
22.2764 8.670
22.2916 8.533
22.3067 8.723
22.3219 8.551
22.3371 8.618
22.3523 8.541
22.3674 8.770
22.3826 8.511
22.3978 8.798
22.4130 8.265
22.4281 8.439
22.4433 8.486
22.4585 8.361
22.4737 8.110
22.4888 8.501
22.5040 8.272
22.5192 8.331
22.5344 8.429
22.5495 8.441
22.5647 8.296
22.5799 8.248
22.5951 8.383
22.6102 8.512
22.6254 8.534
22.6406 8.425
22.6558 8.421
22.6709 8.495
22.6861 8.318
22.7013 8.277
22.7165 7.770
22.7316 6.644
