'Id: "" Comment: "" Operator: "Lab Manager" Anode: "Mo" Scantype: "Still (Eiger2R_500K (1D mode))" TimePerStep: "300" X: "11.8" Y: "9.4" Z: "11.284" 
7.2532 19.042
7.2684 18.459
7.2836 18.704
7.2987 18.705
7.3139 19.791
7.3291 19.740
7.3443 19.075
7.3594 19.438
7.3746 19.358
7.3898 19.651
7.4050 19.376
7.4201 19.316
7.4353 19.318
7.4505 19.577
7.4657 19.896
7.4808 19.745
7.4960 19.515
7.5112 19.435
7.5264 19.518
7.5415 20.158
7.5567 20.169
7.5719 20.070
7.5871 20.107
7.6022 20.183
7.6174 20.281
7.6326 20.188
7.6478 20.200
7.6629 20.495
7.6781 20.588
7.6933 20.096
7.7085 19.971
7.7236 20.216
7.7388 20.531
7.7540 20.902
7.7692 20.838
7.7843 20.542
7.7995 20.481
7.8147 20.807
7.8299 20.880
7.8450 20.495
7.8602 20.402
7.8754 20.591
7.8905 20.881
7.9057 20.957
7.9209 20.876
7.9361 20.805
7.9512 20.723
7.9664 20.809
7.9816 20.925
7.9968 20.962
8.0119 21.007
8.0271 21.046
8.0423 21.244
8.0575 21.468
8.0726 21.408
8.0878 21.114
8.1030 21.343
8.1182 21.463
8.1333 21.470
8.1485 21.275
8.1637 21.504
8.1789 21.612
8.1940 21.298
8.2092 21.736
8.2244 21.816
8.2396 21.276
8.2547 21.686
8.2699 22.087
8.2851 21.857
8.3003 21.489
8.3154 21.883
8.3306 21.438
8.3458 21.588
8.3610 21.461
8.3761 22.116
8.3913 21.956
8.4065 21.768
8.4217 22.166
8.4368 22.169
8.4520 21.708
8.4672 21.766
8.4824 21.997
8.4975 21.885
8.5127 21.855
8.5279 22.407
8.5431 22.729
8.5582 22.046
8.5734 22.340
8.5886 22.494
8.6038 22.133
8.6189 22.799
8.6341 22.315
8.6493 22.704
8.6645 21.945
8.6796 22.498
8.6948 22.296
8.7100 22.402
8.7252 22.160
8.7403 22.307
8.7555 22.044
8.7707 22.842
8.7859 22.283
8.8010 22.189
8.8162 23.111
8.8314 22.704
8.8466 22.418
8.8617 22.875
8.8769 22.423
8.8921 23.262
8.9073 22.585
8.9224 22.552
8.9376 22.912
8.9528 22.548
8.9680 22.531
8.9831 22.618
8.9983 22.282
9.0135 22.579
9.0287 22.437
9.0438 22.572
9.0590 22.631
9.0742 22.816
9.0894 22.889
9.1045 23.044
9.1197 22.987
9.1349 22.842
9.1501 22.857
9.1652 22.855
9.1804 23.118
9.1956 22.995
9.2108 22.869
9.2259 22.880
9.2411 22.769
9.2563 22.810
9.2715 22.744
9.2866 22.816
9.3018 23.039
9.3170 22.744
9.3322 22.662
9.3473 22.938
9.3625 23.196
9.3777 23.393
9.3929 22.922
9.4080 22.898
9.4232 22.896
9.4384 22.687
9.4536 22.799
9.4687 22.884
9.4839 22.775
9.4991 23.105
9.5143 23.351
9.5294 23.186
9.5446 23.489
9.5598 23.600
9.5750 23.353
9.5901 23.099
9.6053 23.225
9.6205 23.350
9.6357 23.526
9.6508 23.707
9.6660 23.671
9.6812 23.540
9.6964 23.525
9.7115 23.967
9.7267 24.186
9.7419 24.091
9.7571 24.184
9.7722 23.950
9.7874 23.918
9.8026 24.052
9.8178 23.811
9.8329 23.380
9.8481 23.294
9.8633 23.726
9.8785 23.810
9.8936 23.486
9.9088 23.258
9.9240 23.230
9.9392 23.676
9.9543 23.478
9.9695 23.204
9.9847 23.519
9.9999 23.679
10.0150 23.466
10.0302 23.354
10.0454 23.483
10.0606 23.125
10.0757 22.955
10.0909 23.268
10.1061 23.498
10.1213 23.529
10.1364 23.591
10.1516 23.538
10.1668 23.679
10.1820 23.715
10.1971 23.630
10.2123 23.068
10.2275 23.157
10.2427 23.009
10.2578 22.815
10.2730 22.850
10.2882 22.853
10.3034 22.775
10.3185 22.881
10.3337 22.817
10.3489 22.758
10.3641 23.007
10.3792 23.053
10.3944 22.971
10.4096 22.920
10.4248 22.946
10.4399 22.708
10.4551 22.674
10.4703 22.978
10.4855 22.781
10.5006 22.255
10.5158 22.721
10.5310 22.904
10.5462 22.508
10.5613 22.562
10.5765 22.816
10.5917 22.749
10.6069 22.609
10.6220 22.753
10.6372 22.635
10.6524 22.215
10.6676 22.586
10.6827 22.739
10.6979 22.622
10.7131 22.758
10.7283 22.828
10.7434 22.680
10.7586 22.349
10.7738 22.452
10.7890 22.659
10.8041 22.397
10.8193 22.418
10.8345 22.397
10.8497 22.306
10.8648 22.583
10.8800 22.439
10.8952 22.074
10.9104 22.162
10.9255 21.983
10.9407 22.136
10.9559 22.282
10.9711 22.112
10.9862 22.307
11.0014 22.162
11.0166 22.389
11.0318 22.433
11.0469 21.790
11.0621 21.792
11.0773 22.240
11.0925 22.222
11.1076 21.964
11.1228 21.933
11.1380 21.877
11.1532 21.809
11.1683 21.608
11.1835 21.782
11.1987 21.934
11.2139 21.971
11.2290 21.620
11.2442 21.747
11.2594 21.570
11.2746 21.355
11.2897 21.436
11.3049 21.583
11.3201 21.093
11.3353 21.348
11.3504 21.394
11.3656 21.518
11.3808 21.472
11.3960 21.541
11.4111 21.547
11.4263 21.506
11.4415 21.484
11.4567 21.267
11.4718 21.167
11.4870 21.301
11.5022 21.331
11.5174 21.369
11.5325 21.406
11.5477 20.818
11.5629 20.770
11.5781 21.190
11.5932 21.169
11.6084 21.038
11.6236 20.724
11.6388 20.874
11.6539 20.890
11.6691 20.462
11.6843 20.803
11.6995 20.690
11.7146 20.900
11.7298 20.727
11.7450 20.678
11.7602 20.307
11.7753 20.147
11.7905 20.654
11.8057 20.252
11.8209 19.971
11.8360 20.009
11.8512 19.741
11.8664 19.723
11.8816 20.238
11.8967 20.252
11.9119 19.784
11.9271 19.578
11.9423 19.567
11.9574 19.468
11.9726 19.389
11.9878 19.282
12.0030 19.380
12.0181 19.228
12.0333 19.418
12.0485 19.282
12.0637 19.147
12.0788 18.771
12.0940 18.902
12.1092 18.769
12.1244 18.568
12.1395 18.674
12.1547 18.544
12.1699 18.604
12.1851 18.562
12.2002 18.370
12.2154 18.178
12.2306 18.111
12.2458 18.113
12.2609 18.098
12.2761 17.781
12.2913 17.706
12.3065 17.515
12.3216 17.471
12.3368 17.817
12.3520 17.451
12.3672 17.425
12.3823 17.329
12.3975 17.392
12.4127 17.453
12.4279 17.079
12.4430 17.165
12.4582 17.036
12.4734 16.819
12.4886 16.680
12.5037 16.812
12.5189 16.677
12.5341 16.674
12.5493 16.512
12.5644 16.472
12.5796 16.514
12.5948 16.334
12.6100 16.186
12.6251 15.991
12.6403 16.162
12.6555 15.950
12.6707 15.644
12.6858 15.913
12.7010 16.011
12.7162 15.641
12.7314 15.415
12.7465 15.414
12.7617 15.404
12.7769 15.404
12.7921 15.412
12.8072 15.158
12.8224 14.860
12.8376 15.032
12.8528 15.184
12.8679 15.038
12.8831 14.939
12.8983 14.835
12.9135 14.619
12.9286 14.505
12.9438 14.291
12.9590 14.519
12.9742 14.793
12.9893 14.531
13.0045 14.098
13.0197 13.995
13.0349 14.164
13.0500 14.316
13.0652 14.119
13.0804 13.870
13.0956 13.983
13.1107 13.843
13.1259 13.723
13.1411 13.891
13.1563 13.792
13.1714 13.782
13.1866 13.839
13.2018 13.551
13.2170 13.682
13.2321 13.576
13.2473 13.214
13.2625 13.238
13.2777 13.333
13.2928 13.420
13.3080 13.286
13.3232 13.335
13.3384 13.325
13.3535 13.168
13.3687 13.026
13.3839 13.064
13.3991 13.098
13.4142 13.120
13.4294 13.177
13.4446 13.015
13.4598 13.002
13.4749 13.007
13.4901 12.842
13.5053 12.666
13.5205 12.509
13.5356 12.458
13.5508 12.655
13.5660 12.614
13.5812 12.303
13.5963 12.427
13.6115 12.281
13.6267 12.062
13.6419 12.124
13.6570 12.399
13.6722 12.430
13.6874 12.424
13.7026 12.328
13.7177 12.279
13.7329 12.107
13.7481 12.032
13.7633 12.268
13.7784 12.224
13.7936 12.312
13.8088 12.117
13.8239 12.223
13.8391 12.380
13.8543 12.151
13.8695 12.150
13.8846 12.344
13.8998 12.135
13.9150 11.981
13.9302 11.994
13.9453 11.857
13.9605 12.033
13.9757 11.925
13.9909 11.803
14.0060 11.571
14.0212 11.627
14.0364 11.738
14.0516 11.630
14.0667 11.371
14.0819 11.442
14.0971 11.611
14.1123 11.548
14.1274 11.225
14.1426 11.556
14.1578 11.560
14.1730 11.313
14.1881 11.422
14.2033 11.498
14.2185 11.415
14.2337 11.452
14.2488 11.530
14.2640 11.750
14.2792 11.652
14.2944 11.864
14.3095 11.911
14.3247 11.941
14.3399 12.098
14.3551 12.748
14.3702 13.078
14.3854 13.431
14.4006 13.260
14.4158 13.218
14.4309 13.140
14.4461 12.888
14.4613 12.733
14.4765 12.662
14.4916 12.532
14.5068 12.127
14.5220 12.221
14.5372 11.659
14.5523 11.136
14.5675 11.093
14.5827 11.029
14.5979 10.867
14.6130 10.909
14.6282 11.066
14.6434 10.810
14.6586 10.920
14.6737 11.075
14.6889 10.917
14.7041 10.926
14.7193 10.964
14.7344 10.763
14.7496 10.846
14.7648 11.074
14.7800 10.529
14.7951 10.913
14.8103 10.733
14.8255 10.762
14.8407 10.843
14.8558 10.489
14.8710 10.492
14.8862 10.266
14.9014 10.487
14.9165 10.920
14.9317 10.949
14.9469 10.643
14.9621 11.056
14.9772 10.146
14.9924 10.786
15.0076 10.654
15.0228 10.837
15.0379 10.633
15.0531 10.583
15.0683 10.276
15.0835 10.364
15.0986 10.161
15.1138 10.456
15.1290 10.560
15.1442 10.051
15.1593 10.504
15.1745 10.302
15.1897 10.131
15.2049 10.301
15.2200 10.197
15.2352 10.425
15.2504 10.233
15.2656 10.233
15.2807 10.325
15.2959 10.198
15.3111 10.343
15.3263 10.240
15.3414 9.874
15.3566 10.479
15.3718 10.356
15.3870 10.206
15.4021 10.465
15.4173 10.267
15.4325 10.730
15.4477 10.422
15.4628 10.451
15.4780 10.157
15.4932 10.198
15.5084 10.223
15.5235 10.037
15.5387 10.242
15.5539 10.301
15.5691 10.044
15.5842 9.856
15.5994 10.508
15.6146 10.318
15.6298 9.938
15.6449 9.972
15.6601 10.124
15.6753 9.904
15.6905 10.006
15.7056 9.871
15.7208 9.753
15.7360 9.939
15.7512 9.864
15.7663 9.867
15.7815 9.897
15.7967 9.957
15.8119 9.681
15.8270 9.718
15.8422 9.620
15.8574 9.821
15.8726 9.956
15.8877 9.623
15.9029 9.420
15.9181 9.610
15.9333 9.880
15.9484 9.815
15.9636 9.794
15.9788 9.854
15.9940 9.787
16.0091 9.734
16.0243 9.992
16.0395 9.878
16.0547 9.792
16.0698 9.587
16.0850 10.016
16.1002 9.813
16.1154 9.679
16.1305 9.674
16.1457 9.739
16.1609 9.706
16.1761 9.966
16.1912 9.928
16.2064 9.750
16.2216 9.780
16.2368 9.892
16.2519 9.966
16.2671 9.999
16.2823 9.927
16.2975 10.031
16.3126 10.063
16.3278 10.027
16.3430 9.917
16.3582 10.112
16.3733 10.136
16.3885 10.115
16.4037 10.153
16.4189 9.999
16.4340 9.977
16.4492 9.845
16.4644 9.970
16.4796 9.886
16.4947 9.526
16.5099 9.590
16.5251 9.883
16.5403 9.798
16.5554 9.798
16.5706 9.843
16.5858 9.721
16.6010 9.976
16.6161 9.773
16.6313 9.616
16.6465 9.881
16.6617 9.650
16.6768 9.742
16.6920 10.010
16.7072 9.976
16.7224 9.853
16.7375 9.979
16.7527 10.133
16.7679 10.026
16.7831 10.049
16.7982 10.059
16.8134 9.795
16.8286 9.993
16.8438 10.032
16.8589 9.767
16.8741 9.762
16.8893 9.951
16.9045 10.341
16.9196 10.139
16.9348 9.874
16.9500 10.226
16.9652 10.312
16.9803 10.104
16.9955 9.970
17.0107 10.234
17.0259 10.262
17.0410 10.090
17.0562 10.228
17.0714 10.349
17.0866 10.218
17.1017 10.360
17.1169 10.714
17.1321 10.885
17.1473 11.174
17.1624 11.830
17.1776 12.628
17.1928 13.290
17.2080 13.922
17.2231 14.745
17.2383 16.063
17.2535 17.606
17.2687 18.527
17.2838 18.751
17.2990 18.227
17.3142 17.033
17.3294 16.282
17.3445 16.052
17.3597 16.075
17.3749 15.967
17.3901 15.323
17.4052 14.378
17.4204 13.299
17.4356 12.403
17.4508 11.774
17.4659 11.779
17.4811 11.824
17.4963 11.463
17.5115 11.208
17.5266 10.974
17.5418 10.727
17.5570 10.606
17.5722 10.600
17.5873 10.680
17.6025 10.689
17.6177 10.690
17.6329 10.877
17.6480 11.115
17.6632 11.224
17.6784 11.261
17.6936 11.627
17.7087 11.599
17.7239 11.222
17.7391 11.036
17.7543 11.074
17.7694 10.990
17.7846 10.993
17.7998 11.483
17.8150 11.496
17.8301 10.969
17.8453 10.670
17.8605 10.534
17.8757 10.500
17.8908 10.558
17.9060 10.592
17.9212 10.454
17.9364 10.242
17.9515 10.327
17.9667 10.508
17.9819 10.406
17.9971 10.195
18.0122 10.173
18.0274 10.113
18.0426 10.449
18.0578 10.612
18.0729 10.313
18.0881 10.073
18.1033 9.956
18.1185 9.886
18.1336 10.165
18.1488 10.180
18.1640 10.144
18.1792 9.956
18.1943 9.905
18.2095 10.045
18.2247 9.912
18.2399 9.719
18.2550 9.804
18.2702 9.789
18.2854 9.853
18.3006 10.018
18.3157 9.791
18.3309 9.714
18.3461 9.786
18.3613 9.818
18.3764 9.847
18.3916 9.639
18.4068 9.670
18.4220 9.801
18.4371 10.042
18.4523 10.019
18.4675 9.746
18.4827 9.509
18.4978 9.686
18.5130 9.942
18.5282 9.897
18.5434 9.821
18.5585 9.661
18.5737 9.611
18.5889 9.571
18.6041 9.748
18.6192 9.786
18.6344 9.605
18.6496 9.729
18.6648 9.673
18.6799 9.717
18.6951 9.729
18.7103 9.740
18.7255 9.694
18.7406 9.710
18.7558 9.700
18.7710 9.791
18.7862 9.887
18.8013 9.735
18.8165 9.753
18.8317 9.919
18.8469 9.856
18.8620 9.992
18.8772 10.202
18.8924 10.076
18.9076 9.876
18.9227 9.833
18.9379 9.695
18.9531 9.797
18.9683 10.000
18.9834 9.873
18.9986 9.814
19.0138 10.053
19.0290 10.063
19.0441 10.140
19.0593 10.184
19.0745 10.176
19.0897 10.245
19.1048 10.374
19.1200 10.298
19.1352 10.371
19.1504 10.711
19.1655 10.778
19.1807 10.682
19.1959 10.685
19.2111 10.746
19.2262 10.701
19.2414 10.809
19.2566 11.138
19.2718 11.019
19.2869 10.821
19.3021 10.981
19.3173 10.925
19.3325 11.089
19.3476 11.115
19.3628 10.893
19.3780 10.921
19.3932 11.235
19.4083 11.468
19.4235 11.486
19.4387 11.542
19.4539 11.489
19.4690 11.437
19.4842 11.474
19.4994 11.604
19.5146 11.427
19.5297 11.418
19.5449 11.583
19.5601 11.525
19.5753 11.416
19.5904 11.489
19.6056 11.676
19.6208 11.794
19.6360 11.643
19.6511 11.730
19.6663 12.006
19.6815 11.916
19.6967 11.758
19.7118 11.707
19.7270 11.903
19.7422 11.827
19.7574 11.744
19.7725 11.804
19.7877 11.784
19.8029 11.932
19.8180 12.036
19.8332 12.094
19.8484 12.238
19.8636 12.395
19.8787 12.669
19.8939 12.876
19.9091 13.178
19.9243 13.565
19.9394 13.910
19.9546 13.922
19.9698 14.237
19.9850 14.670
20.0001 14.554
20.0153 14.224
20.0305 13.874
20.0457 13.707
20.0608 13.836
20.0760 13.742
20.0912 13.676
20.1064 13.691
20.1215 13.279
20.1367 13.330
20.1519 13.328
20.1671 12.682
20.1822 12.475
20.1974 12.582
20.2126 12.770
20.2278 12.740
20.2429 12.379
20.2581 12.227
20.2733 12.059
20.2885 11.973
20.3036 11.925
20.3188 11.653
20.3340 11.611
20.3492 11.736
20.3643 11.629
20.3795 11.213
20.3947 11.046
20.4099 11.311
20.4250 11.365
20.4402 11.238
20.4554 11.321
20.4706 11.360
20.4857 11.529
20.5009 11.384
20.5161 11.145
20.5313 11.204
20.5464 11.369
20.5616 11.173
20.5768 11.227
20.5920 11.191
20.6071 10.941
20.6223 11.002
20.6375 10.898
20.6527 10.592
20.6678 10.809
20.6830 10.657
20.6982 10.748
20.7134 10.590
20.7285 10.616
20.7437 10.600
20.7589 10.343
20.7741 10.255
20.7892 10.305
20.8044 10.519
20.8196 10.610
20.8348 10.439
20.8499 10.159
20.8651 10.089
20.8803 10.430
20.8955 10.077
20.9106 10.583
20.9258 10.671
20.9410 10.319
20.9562 10.057
20.9713 10.343
20.9865 10.493
21.0017 10.368
21.0169 10.145
21.0320 10.124
21.0472 9.999
21.0624 9.820
21.0776 10.047
21.0927 10.202
21.1079 9.841
21.1231 9.698
21.1383 10.304
21.1534 10.026
21.1686 9.765
21.1838 9.817
21.1990 9.960
21.2141 9.748
21.2293 9.865
21.2445 9.695
21.2597 9.716
21.2748 9.804
21.2900 9.810
21.3052 9.560
21.3204 9.635
21.3355 9.423
21.3507 9.717
21.3659 9.556
21.3811 9.479
21.3962 9.455
21.4114 9.342
21.4266 9.620
21.4418 9.361
21.4569 9.744
21.4721 9.373
21.4873 9.474
21.5025 9.280
21.5176 9.253
21.5328 9.226
21.5480 9.338
21.5632 9.410
21.5783 9.315
21.5935 9.135
21.6087 9.299
21.6239 9.203
21.6390 9.102
21.6542 9.234
21.6694 9.231
21.6846 9.284
21.6997 9.265
21.7149 9.288
21.7301 9.259
21.7453 9.349
21.7604 9.022
21.7756 8.979
21.7908 9.176
21.8060 9.205
21.8211 9.175
21.8363 9.195
21.8515 9.102
21.8667 8.896
21.8818 9.172
21.8970 9.368
21.9122 9.168
21.9274 9.191
21.9425 9.068
21.9577 9.008
21.9729 9.180
21.9881 8.972
22.0032 8.702
22.0184 8.971
22.0336 8.898
22.0488 8.817
22.0639 8.783
22.0791 8.653
22.0943 8.674
22.1095 8.630
22.1246 8.621
22.1398 8.939
22.1550 8.878
22.1702 8.705
22.1853 8.720
22.2005 8.599
22.2157 8.724
22.2309 8.667
22.2460 8.502
22.2612 8.618
22.2764 8.392
22.2916 8.604
22.3067 8.774
22.3219 8.606
22.3371 8.625
22.3523 8.562
22.3674 8.653
22.3826 8.716
22.3978 8.617
22.4130 8.510
22.4281 8.655
22.4433 8.580
22.4585 8.482
22.4737 8.327
22.4888 8.478
22.5040 8.564
22.5192 8.222
22.5344 8.744
22.5495 8.493
22.5647 8.607
22.5799 8.411
22.5951 8.632
22.6102 8.520
22.6254 8.657
22.6406 8.478
22.6558 8.042
22.6709 8.431
22.6861 8.216
22.7013 8.084
22.7165 8.221
22.7316 6.314
