'Id: "" Comment: "" Operator: "Lab Manager" Anode: "Mo" Scantype: "Still (Eiger2R_500K (1D mode))" TimePerStep: "300" X: "11.8" Y: "9.4" Z: "11.284" 
7.2532 18.516
7.2684 18.326
7.2836 18.431
7.2987 19.350
7.3139 19.014
7.3291 18.379
7.3443 18.904
7.3594 19.334
7.3746 19.464
7.3898 19.226
7.4050 18.853
7.4201 19.173
7.4353 19.445
7.4505 19.441
7.4657 19.411
7.4808 19.642
7.4960 19.199
7.5112 19.329
7.5264 19.687
7.5415 19.630
7.5567 19.463
7.5719 19.565
7.5871 20.084
7.6022 19.680
7.6174 19.909
7.6326 19.906
7.6478 19.755
7.6629 19.993
7.6781 19.938
7.6933 20.053
7.7085 20.148
7.7236 20.092
7.7388 20.388
7.7540 20.365
7.7692 20.205
7.7843 19.996
7.7995 20.074
7.8147 20.451
7.8299 20.308
7.8450 20.055
7.8602 20.455
7.8754 20.670
7.8905 20.631
7.9057 20.499
7.9209 20.499
7.9361 20.556
7.9512 20.734
7.9664 20.957
7.9816 20.683
7.9968 20.827
8.0119 21.179
8.0271 21.189
8.0423 20.651
8.0575 20.987
8.0726 21.267
8.0878 21.243
8.1030 20.966
8.1182 21.322
8.1333 21.507
8.1485 21.371
8.1637 21.269
8.1789 20.955
8.1940 21.467
8.2092 21.321
8.2244 21.495
8.2396 21.214
8.2547 21.386
8.2699 21.951
8.2851 21.646
8.3003 21.244
8.3154 21.417
8.3306 22.003
8.3458 21.506
8.3610 21.659
8.3761 22.036
8.3913 22.061
8.4065 21.398
8.4217 22.396
8.4368 21.873
8.4520 22.113
8.4672 22.143
8.4824 21.932
8.4975 21.721
8.5127 22.069
8.5279 22.045
8.5431 22.413
8.5582 22.184
8.5734 21.559
8.5886 22.383
8.6038 21.612
8.6189 21.950
8.6341 22.024
8.6493 22.198
8.6645 22.261
8.6796 22.249
8.6948 22.475
8.7100 21.955
8.7252 22.250
8.7403 22.223
8.7555 21.844
8.7707 22.077
8.7859 22.338
8.8010 22.857
8.8162 22.230
8.8314 22.162
8.8466 22.342
8.8617 22.372
8.8769 22.623
8.8921 22.649
8.9073 22.778
8.9224 22.408
8.9376 22.746
8.9528 22.645
8.9680 22.784
8.9831 22.394
8.9983 22.344
9.0135 22.380
9.0287 22.457
9.0438 22.564
9.0590 22.469
9.0742 22.845
9.0894 22.314
9.1045 22.523
9.1197 22.832
9.1349 22.582
9.1501 22.373
9.1652 22.725
9.1804 22.492
9.1956 22.799
9.2108 22.424
9.2259 22.535
9.2411 22.432
9.2563 22.408
9.2715 22.697
9.2866 22.560
9.3018 22.459
9.3170 22.998
9.3322 23.005
9.3473 22.770
9.3625 22.760
9.3777 22.744
9.3929 22.748
9.4080 22.931
9.4232 22.952
9.4384 22.933
9.4536 23.080
9.4687 23.033
9.4839 22.832
9.4991 23.014
9.5143 23.024
9.5294 22.848
9.5446 22.819
9.5598 22.919
9.5750 22.944
9.5901 23.096
9.6053 23.372
9.6205 23.331
9.6357 23.066
9.6508 23.183
9.6660 23.503
9.6812 23.781
9.6964 23.835
9.7115 23.744
9.7267 23.794
9.7419 24.063
9.7571 23.948
9.7722 23.656
9.7874 23.551
9.8026 23.601
9.8178 23.719
9.8329 23.560
9.8481 23.257
9.8633 23.358
9.8785 23.331
9.8936 22.978
9.9088 22.864
9.9240 23.097
9.9392 23.358
9.9543 23.224
9.9695 23.267
9.9847 23.427
9.9999 23.467
10.0150 23.426
10.0302 23.114
10.0454 22.944
10.0606 22.905
10.0757 23.187
10.0909 23.525
10.1061 23.495
10.1213 23.476
10.1364 23.525
10.1516 23.274
10.1668 23.077
10.1820 23.125
10.1971 23.603
10.2123 23.462
10.2275 23.361
10.2427 23.238
10.2578 23.256
10.2730 23.184
10.2882 22.785
10.3034 22.754
10.3185 22.456
10.3337 22.657
10.3489 22.552
10.3641 22.560
10.3792 22.602
10.3944 22.703
10.4096 22.702
10.4248 22.518
10.4399 22.448
10.4551 22.916
10.4703 23.004
10.4855 22.889
10.5006 22.156
10.5158 22.287
10.5310 22.330
10.5462 22.345
10.5613 22.416
10.5765 22.598
10.5917 22.822
10.6069 22.730
10.6220 22.615
10.6372 22.798
10.6524 22.739
10.6676 22.491
10.6827 22.380
10.6979 22.346
10.7131 22.800
10.7283 22.521
10.7434 22.270
10.7586 22.274
10.7738 22.389
10.7890 22.466
10.8041 22.677
10.8193 22.187
10.8345 22.363
10.8497 22.097
10.8648 22.002
10.8800 22.170
10.8952 22.159
10.9104 22.115
10.9255 22.182
10.9407 22.040
10.9559 22.209
10.9711 22.202
10.9862 22.190
11.0014 22.074
11.0166 21.889
11.0318 21.953
11.0469 21.775
11.0621 21.658
11.0773 21.919
11.0925 21.956
11.1076 21.550
11.1228 21.399
11.1380 21.705
11.1532 21.448
11.1683 21.954
11.1835 22.022
11.1987 21.675
11.2139 21.479
11.2290 21.608
11.2442 21.913
11.2594 21.561
11.2746 21.389
11.2897 21.298
11.3049 21.019
11.3201 21.178
11.3353 21.125
11.3504 21.522
11.3656 21.445
11.3808 21.437
11.3960 21.241
11.4111 21.417
11.4263 21.095
11.4415 20.828
11.4567 21.030
11.4718 20.742
11.4870 20.831
11.5022 21.355
11.5174 21.046
11.5325 20.796
11.5477 20.391
11.5629 20.613
11.5781 20.528
11.5932 20.762
11.6084 20.526
11.6236 20.617
11.6388 20.690
11.6539 20.466
11.6691 20.618
11.6843 20.572
11.6995 20.315
11.7146 20.429
11.7298 20.426
11.7450 20.236
11.7602 20.094
11.7753 20.174
11.7905 20.349
11.8057 20.040
11.8209 20.005
11.8360 20.094
11.8512 20.003
11.8664 19.884
11.8816 19.574
11.8967 19.721
11.9119 19.862
11.9271 19.389
11.9423 19.325
11.9574 19.632
11.9726 19.395
11.9878 19.066
12.0030 19.291
12.0181 19.200
12.0333 19.124
12.0485 19.141
12.0637 18.803
12.0788 18.807
12.0940 18.613
12.1092 18.510
12.1244 18.720
12.1395 18.494
12.1547 18.377
12.1699 18.462
12.1851 18.351
12.2002 18.307
12.2154 18.059
12.2306 18.026
12.2458 18.077
12.2609 17.868
12.2761 17.718
12.2913 17.862
12.3065 17.702
12.3216 17.424
12.3368 17.310
12.3520 17.167
12.3672 17.231
12.3823 17.492
12.3975 17.544
12.4127 17.287
12.4279 16.958
12.4430 16.962
12.4582 16.757
12.4734 16.816
12.4886 16.695
12.5037 16.573
12.5189 16.476
12.5341 16.477
12.5493 16.570
12.5644 16.270
12.5796 15.878
12.5948 15.785
12.6100 15.814
12.6251 15.932
12.6403 15.958
12.6555 16.071
12.6707 15.882
12.6858 15.559
12.7010 15.546
12.7162 15.523
12.7314 15.354
12.7465 15.386
12.7617 15.315
12.7769 15.363
12.7921 15.249
12.8072 15.170
12.8224 14.883
12.8376 14.896
12.8528 14.815
12.8679 14.729
12.8831 14.680
12.8983 14.736
12.9135 14.729
12.9286 14.472
12.9438 14.282
12.9590 14.334
12.9742 14.463
12.9893 14.229
13.0045 14.325
13.0197 14.491
13.0349 14.093
13.0500 13.812
13.0652 13.917
13.0804 14.021
13.0956 13.889
13.1107 13.536
13.1259 13.400
13.1411 13.541
13.1563 13.480
13.1714 13.458
13.1866 13.538
13.2018 13.305
13.2170 13.399
13.2321 13.500
13.2473 13.318
13.2625 13.317
13.2777 13.339
13.2928 13.284
13.3080 13.087
13.3232 13.279
13.3384 13.282
13.3535 13.274
13.3687 13.270
13.3839 12.913
13.3991 13.063
13.4142 13.191
13.4294 13.038
13.4446 12.882
13.4598 12.811
13.4749 12.867
13.4901 12.697
13.5053 12.445
13.5205 12.498
13.5356 12.388
13.5508 12.331
13.5660 12.338
13.5812 12.220
13.5963 12.251
13.6115 12.196
13.6267 12.217
13.6419 12.259
13.6570 12.232
13.6722 12.117
13.6874 12.338
13.7026 12.138
13.7177 11.924
13.7329 11.737
13.7481 11.776
13.7633 11.986
13.7784 11.955
13.7936 11.941
13.8088 12.266
13.8239 12.189
13.8391 12.272
13.8543 12.390
13.8695 12.440
13.8846 12.207
13.8998 12.336
13.9150 12.307
13.9302 12.201
13.9453 12.114
13.9605 11.908
13.9757 11.811
13.9909 11.408
14.0060 11.452
14.0212 11.532
14.0364 11.509
14.0516 11.570
14.0667 11.763
14.0819 11.613
14.0971 11.600
14.1123 11.350
14.1274 11.471
14.1426 11.405
14.1578 11.693
14.1730 11.784
14.1881 11.959
14.2033 11.922
14.2185 11.829
14.2337 11.701
14.2488 11.569
14.2640 11.532
14.2792 11.572
14.2944 11.798
14.3095 12.176
14.3247 12.186
14.3399 12.596
14.3551 12.864
14.3702 12.929
14.3854 12.736
14.4006 12.860
14.4158 13.066
14.4309 12.862
14.4461 12.590
14.4613 12.412
14.4765 12.517
14.4916 12.267
14.5068 11.935
14.5220 11.305
14.5372 11.389
14.5523 11.370
14.5675 11.120
14.5827 10.888
14.5979 10.932
14.6130 11.194
14.6282 11.059
14.6434 10.974
14.6586 10.730
14.6737 10.822
14.6889 10.704
14.7041 10.538
14.7193 10.367
14.7344 10.716
14.7496 10.624
14.7648 11.032
14.7800 10.468
14.7951 10.659
14.8103 10.510
14.8255 10.729
14.8407 10.189
14.8558 10.554
14.8710 10.454
14.8862 10.456
14.9014 10.812
14.9165 10.655
14.9317 10.435
14.9469 10.472
14.9621 10.688
14.9772 10.382
14.9924 10.363
15.0076 10.309
15.0228 10.397
15.0379 10.162
15.0531 10.115
15.0683 10.079
15.0835 10.336
15.0986 10.028
15.1138 10.336
15.1290 10.255
15.1442 9.895
15.1593 10.181
15.1745 10.155
15.1897 10.317
15.2049 10.096
15.2200 10.208
15.2352 9.957
15.2504 10.126
15.2656 10.149
15.2807 10.114
15.2959 10.137
15.3111 9.993
15.3263 9.868
15.3414 10.080
15.3566 10.162
15.3718 10.487
15.3870 10.103
15.4021 10.156
15.4173 10.221
15.4325 10.102
15.4477 10.238
15.4628 10.277
15.4780 9.975
15.4932 9.688
15.5084 10.089
15.5235 10.213
15.5387 9.881
15.5539 10.003
15.5691 9.775
15.5842 9.992
15.5994 10.235
15.6146 9.877
15.6298 9.661
15.6449 9.880
15.6601 9.731
15.6753 9.751
15.6905 9.898
15.7056 9.654
15.7208 9.570
15.7360 9.722
15.7512 9.722
15.7663 9.689
15.7815 9.559
15.7967 9.664
15.8119 9.674
15.8270 9.746
15.8422 9.759
15.8574 9.714
15.8726 9.678
15.8877 9.440
15.9029 9.364
15.9181 9.859
15.9333 9.796
15.9484 9.625
15.9636 9.751
15.9788 9.851
15.9940 9.770
16.0091 9.748
16.0243 9.441
16.0395 9.390
16.0547 9.683
16.0698 9.689
16.0850 9.721
16.1002 9.748
16.1154 9.558
16.1305 9.506
16.1457 9.295
16.1609 9.687
16.1761 9.927
16.1912 9.711
16.2064 9.662
16.2216 9.824
16.2368 9.605
16.2519 9.637
16.2671 9.861
16.2823 9.880
16.2975 9.749
16.3126 9.668
16.3278 9.814
16.3430 9.783
16.3582 9.674
16.3733 9.825
16.3885 9.836
16.4037 9.988
16.4189 9.754
16.4340 9.885
16.4492 9.978
16.4644 9.773
16.4796 9.560
16.4947 9.506
16.5099 9.718
16.5251 9.622
16.5403 9.397
16.5554 9.528
16.5706 9.611
16.5858 9.821
16.6010 9.714
16.6161 9.730
16.6313 9.739
16.6465 9.693
16.6617 9.681
16.6768 9.911
16.6920 9.764
16.7072 9.870
16.7224 10.029
16.7375 10.130
16.7527 9.890
16.7679 9.721
16.7831 9.838
16.7982 9.628
16.8134 9.780
16.8286 9.908
16.8438 9.748
16.8589 9.718
16.8741 9.552
16.8893 9.646
16.9045 9.780
16.9196 9.691
16.9348 9.815
16.9500 9.734
16.9652 9.757
16.9803 9.805
16.9955 9.918
17.0107 9.868
17.0259 9.853
17.0410 9.930
17.0562 9.809
17.0714 10.047
17.0866 10.208
17.1017 10.390
17.1169 10.570
17.1321 10.907
17.1473 11.420
17.1624 11.772
17.1776 12.280
17.1928 13.090
17.2080 14.035
17.2231 14.860
17.2383 16.149
17.2535 17.564
17.2687 18.386
17.2838 18.358
17.2990 17.931
17.3142 17.344
17.3294 16.606
17.3445 16.249
17.3597 16.067
17.3749 15.537
17.3901 15.135
17.4052 14.361
17.4204 13.428
17.4356 12.817
17.4508 12.223
17.4659 12.066
17.4811 11.825
17.4963 11.650
17.5115 11.422
17.5266 11.045
17.5418 11.038
17.5570 10.958
17.5722 10.840
17.5873 10.973
17.6025 11.106
17.6177 11.157
17.6329 11.090
17.6480 11.147
17.6632 11.312
17.6784 11.555
17.6936 11.524
17.7087 11.309
17.7239 11.328
17.7391 11.386
17.7543 11.191
17.7694 10.917
17.7846 10.839
17.7998 10.928
17.8150 10.867
17.8301 10.732
17.8453 10.341
17.8605 10.258
17.8757 10.342
17.8908 10.371
17.9060 10.377
17.9212 10.419
17.9364 10.373
17.9515 10.021
17.9667 10.171
17.9819 10.179
17.9971 10.053
18.0122 10.200
18.0274 10.066
18.0426 10.053
18.0578 10.037
18.0729 9.960
18.0881 9.908
18.1033 10.106
18.1185 10.049
18.1336 9.921
18.1488 10.087
18.1640 10.009
18.1792 10.016
18.1943 9.915
18.2095 9.616
18.2247 9.848
18.2399 9.941
18.2550 9.795
18.2702 9.988
18.2854 9.945
18.3006 9.833
18.3157 9.781
18.3309 9.733
18.3461 9.727
18.3613 9.721
18.3764 9.836
18.3916 9.849
18.4068 9.890
18.4220 9.712
18.4371 9.710
18.4523 9.757
18.4675 9.932
18.4827 9.979
18.4978 9.962
18.5130 9.818
18.5282 9.613
18.5434 9.462
18.5585 9.540
18.5737 9.746
18.5889 9.847
18.6041 9.940
18.6192 9.813
18.6344 9.657
18.6496 9.690
18.6648 9.801
18.6799 9.639
18.6951 9.759
18.7103 10.026
18.7255 9.616
18.7406 9.446
18.7558 9.785
18.7710 9.815
18.7862 9.853
18.8013 9.904
18.8165 9.901
18.8317 9.950
18.8469 9.972
18.8620 9.995
18.8772 10.091
18.8924 9.878
18.9076 9.698
18.9227 9.787
18.9379 9.902
18.9531 9.972
18.9683 9.823
18.9834 9.874
18.9986 10.107
19.0138 10.189
19.0290 10.100
19.0441 10.164
19.0593 10.134
19.0745 10.154
19.0897 10.222
19.1048 10.301
19.1200 10.472
19.1352 10.528
19.1504 10.576
19.1655 10.662
19.1807 10.546
19.1959 10.609
19.2111 10.694
19.2262 10.697
19.2414 10.817
19.2566 10.855
19.2718 11.067
19.2869 11.120
19.3021 10.981
19.3173 11.120
19.3325 11.120
19.3476 10.951
19.3628 11.092
19.3780 11.194
19.3932 11.108
19.4083 11.084
19.4235 10.949
19.4387 11.000
19.4539 11.322
19.4690 11.178
19.4842 11.245
19.4994 11.296
19.5146 11.411
19.5297 11.457
19.5449 11.311
19.5601 11.487
19.5753 11.678
19.5904 11.772
19.6056 11.671
19.6208 11.636
19.6360 11.738
19.6511 11.721
19.6663 11.411
19.6815 11.570
19.6967 11.715
19.7118 11.654
19.7270 11.720
19.7422 11.707
19.7574 11.749
19.7725 11.976
19.7877 11.849
19.8029 11.671
19.8180 11.840
19.8332 12.142
19.8484 12.338
19.8636 12.350
19.8787 12.592
19.8939 12.794
19.9091 12.962
19.9243 13.416
19.9394 14.034
19.9546 14.452
19.9698 14.537
19.9850 14.410
20.0001 14.108
20.0153 14.034
20.0305 13.782
20.0457 13.735
20.0608 14.049
20.0760 13.863
20.0912 13.650
20.1064 13.645
20.1215 13.516
20.1367 13.255
20.1519 13.087
20.1671 13.298
20.1822 13.122
20.1974 12.638
20.2126 12.677
20.2278 12.875
20.2429 12.627
20.2581 12.226
20.2733 11.991
20.2885 12.007
20.3036 11.849
20.3188 12.034
20.3340 12.079
20.3492 12.172
20.3643 12.080
20.3795 11.827
20.3947 11.717
20.4099 11.843
20.4250 12.086
20.4402 11.746
20.4554 11.753
20.4706 11.912
20.4857 11.954
20.5009 11.809
20.5161 11.750
20.5313 11.684
20.5464 11.585
20.5616 11.577
20.5768 11.231
20.5920 11.302
20.6071 11.097
20.6223 10.680
20.6375 10.981
20.6527 10.882
20.6678 10.647
20.6830 10.780
20.6982 10.643
20.7134 10.404
20.7285 10.501
20.7437 10.462
20.7589 10.484
20.7741 10.530
20.7892 10.370
20.8044 10.126
20.8196 10.352
20.8348 10.343
20.8499 10.250
20.8651 9.916
20.8803 9.948
20.8955 10.208
20.9106 10.118
20.9258 10.333
20.9410 10.118
20.9562 10.400
20.9713 10.128
20.9865 10.076
21.0017 10.144
21.0169 10.017
21.0320 9.986
21.0472 10.384
21.0624 9.914
21.0776 9.922
21.0927 9.979
21.1079 9.694
21.1231 9.564
21.1383 9.777
21.1534 10.003
21.1686 9.793
21.1838 9.548
21.1990 9.625
21.2141 9.908
21.2293 10.075
21.2445 10.062
21.2597 9.390
21.2748 9.612
21.2900 9.679
21.3052 9.656
21.3204 9.481
21.3355 9.404
21.3507 9.500
21.3659 9.696
21.3811 9.668
21.3962 9.430
21.4114 9.624
21.4266 9.119
21.4418 9.366
21.4569 9.463
21.4721 9.290
21.4873 9.249
21.5025 9.275
21.5176 9.212
21.5328 9.401
21.5480 9.001
21.5632 9.180
21.5783 9.375
21.5935 9.183
21.6087 8.860
21.6239 9.228
21.6390 8.970
21.6542 9.285
21.6694 9.368
21.6846 9.174
21.6997 9.402
21.7149 9.233
21.7301 8.923
21.7453 8.820
21.7604 9.145
21.7756 9.064
21.7908 8.860
21.8060 9.044
21.8211 9.145
21.8363 9.047
21.8515 9.175
21.8667 9.316
21.8818 9.093
21.8970 9.236
21.9122 9.164
21.9274 9.028
21.9425 8.914
21.9577 8.812
21.9729 8.883
21.9881 9.000
22.0032 8.873
22.0184 8.743
22.0336 8.834
22.0488 8.929
22.0639 8.810
22.0791 8.830
22.0943 8.794
22.1095 8.583
22.1246 8.419
22.1398 8.640
22.1550 8.696
22.1702 8.531
22.1853 8.466
22.2005 8.499
22.2157 8.524
22.2309 8.510
22.2460 8.464
22.2612 8.426
22.2764 8.591
22.2916 8.513
22.3067 8.607
22.3219 8.386
22.3371 8.472
22.3523 8.460
22.3674 8.443
22.3826 8.495
22.3978 8.441
22.4130 8.464
22.4281 8.398
22.4433 8.336
22.4585 8.478
22.4737 8.399
22.4888 8.328
22.5040 8.317
22.5192 8.735
22.5344 8.210
22.5495 8.385
22.5647 8.530
22.5799 8.634
22.5951 8.352
22.6102 8.257
22.6254 8.550
22.6406 8.404
22.6558 8.294
22.6709 8.470
22.6861 8.281
22.7013 8.548
22.7165 8.041
22.7316 6.575
