'Id: "" Comment: "" Operator: "Lab Manager" Anode: "Mo" Scantype: "Still (Eiger2R_500K (1D mode))" TimePerStep: "300" X: "11.8" Y: "9.4" Z: "11.284" 
7.2532 18.975
7.2684 18.926
7.2836 19.081
7.2987 19.139
7.3139 18.671
7.3291 19.092
7.3443 18.975
7.3594 19.151
7.3746 19.134
7.3898 18.930
7.4050 19.285
7.4201 19.641
7.4353 19.322
7.4505 19.397
7.4657 19.023
7.4808 19.469
7.4960 19.303
7.5112 19.362
7.5264 19.836
7.5415 20.198
7.5567 20.136
7.5719 20.111
7.5871 19.907
7.6022 19.822
7.6174 20.364
7.6326 20.209
7.6478 19.980
7.6629 20.267
7.6781 20.333
7.6933 19.984
7.7085 20.161
7.7236 20.130
7.7388 20.103
7.7540 20.391
7.7692 20.425
7.7843 20.281
7.7995 20.467
7.8147 20.719
7.8299 20.735
7.8450 20.837
7.8602 20.847
7.8754 20.868
7.8905 21.202
7.9057 21.190
7.9209 21.135
7.9361 21.134
7.9512 21.278
7.9664 21.009
7.9816 20.798
7.9968 20.934
8.0119 21.265
8.0271 21.053
8.0423 21.444
8.0575 21.403
8.0726 21.085
8.0878 20.990
8.1030 21.080
8.1182 21.564
8.1333 21.326
8.1485 21.527
8.1637 21.560
8.1789 21.460
8.1940 21.614
8.2092 21.893
8.2244 21.964
8.2396 21.848
8.2547 21.680
8.2699 21.979
8.2851 21.668
8.3003 21.477
8.3154 22.041
8.3306 21.913
8.3458 22.217
8.3610 22.173
8.3761 21.591
8.3913 21.937
8.4065 21.977
8.4217 21.847
8.4368 21.805
8.4520 22.110
8.4672 21.913
8.4824 22.118
8.4975 22.270
8.5127 22.424
8.5279 21.878
8.5431 22.071
8.5582 22.267
8.5734 21.856
8.5886 22.452
8.6038 22.594
8.6189 22.406
8.6341 22.216
8.6493 22.586
8.6645 21.849
8.6796 22.096
8.6948 22.342
8.7100 22.505
8.7252 22.438
8.7403 22.623
8.7555 23.172
8.7707 22.526
8.7859 22.588
8.8010 22.710
8.8162 22.523
8.8314 22.546
8.8466 22.882
8.8617 22.682
8.8769 22.510
8.8921 22.459
8.9073 22.485
8.9224 22.562
8.9376 22.876
8.9528 22.518
8.9680 23.046
8.9831 22.731
8.9983 23.248
9.0135 22.787
9.0287 22.825
9.0438 22.902
9.0590 22.970
9.0742 23.179
9.0894 22.791
9.1045 23.050
9.1197 22.935
9.1349 22.808
9.1501 22.912
9.1652 22.993
9.1804 23.019
9.1956 23.148
9.2108 22.929
9.2259 23.132
9.2411 23.139
9.2563 23.027
9.2715 22.972
9.2866 22.769
9.3018 22.979
9.3170 23.031
9.3322 23.050
9.3473 23.308
9.3625 23.464
9.3777 23.355
9.3929 22.956
9.4080 22.933
9.4232 23.108
9.4384 23.310
9.4536 23.329
9.4687 23.012
9.4839 22.963
9.4991 22.970
9.5143 23.020
9.5294 23.353
9.5446 23.088
9.5598 23.104
9.5750 23.458
9.5901 23.400
9.6053 23.288
9.6205 23.229
9.6357 23.302
9.6508 23.343
9.6660 23.488
9.6812 23.459
9.6964 23.704
9.7115 24.222
9.7267 24.326
9.7419 24.318
9.7571 24.206
9.7722 23.812
9.7874 23.801
9.8026 24.076
9.8178 23.736
9.8329 23.476
9.8481 23.580
9.8633 23.144
9.8785 23.050
9.8936 23.465
9.9088 23.502
9.9240 23.601
9.9392 23.591
9.9543 23.358
9.9695 23.231
9.9847 23.104
9.9999 23.344
10.0150 23.409
10.0302 23.477
10.0454 23.566
10.0606 23.314
10.0757 23.358
10.0909 23.252
10.1061 23.036
10.1213 23.291
10.1364 23.408
10.1516 23.182
10.1668 23.256
10.1820 23.129
10.1971 22.948
10.2123 23.327
10.2275 23.503
10.2427 23.321
10.2578 23.427
10.2730 23.388
10.2882 23.269
10.3034 23.135
10.3185 23.146
10.3337 22.916
10.3489 22.667
10.3641 22.777
10.3792 22.816
10.3944 22.819
10.4096 22.740
10.4248 22.799
10.4399 22.938
10.4551 22.820
10.4703 22.653
10.4855 22.590
10.5006 22.561
10.5158 22.841
10.5310 22.909
10.5462 22.575
10.5613 22.224
10.5765 22.554
10.5917 22.369
10.6069 22.317
10.6220 22.483
10.6372 22.446
10.6524 22.358
10.6676 22.410
10.6827 22.416
10.6979 22.795
10.7131 22.904
10.7283 22.316
10.7434 22.661
10.7586 22.685
10.7738 22.682
10.7890 22.572
10.8041 22.505
10.8193 22.241
10.8345 22.251
10.8497 22.374
10.8648 22.404
10.8800 22.394
10.8952 22.169
10.9104 22.129
10.9255 22.519
10.9407 22.406
10.9559 22.361
10.9711 22.121
10.9862 22.205
11.0014 22.087
11.0166 22.367
11.0318 22.366
11.0469 22.393
11.0621 22.278
11.0773 21.858
11.0925 21.941
11.1076 21.933
11.1228 21.478
11.1380 21.750
11.1532 21.955
11.1683 21.769
11.1835 21.741
11.1987 21.615
11.2139 21.493
11.2290 21.772
11.2442 21.669
11.2594 21.668
11.2746 22.130
11.2897 22.010
11.3049 21.985
11.3201 21.955
11.3353 21.800
11.3504 21.730
11.3656 21.436
11.3808 21.525
11.3960 21.360
11.4111 21.260
11.4263 21.420
11.4415 21.393
11.4567 21.198
11.4718 20.787
11.4870 21.147
11.5022 21.149
11.5174 21.100
11.5325 21.029
11.5477 21.294
11.5629 21.030
11.5781 20.979
11.5932 20.983
11.6084 20.750
11.6236 20.747
11.6388 20.669
11.6539 20.863
11.6691 20.750
11.6843 20.787
11.6995 20.705
11.7146 20.436
11.7298 20.302
11.7450 20.539
11.7602 20.679
11.7753 20.408
11.7905 20.240
11.8057 19.697
11.8209 20.077
11.8360 19.894
11.8512 19.789
11.8664 19.919
11.8816 19.562
11.8967 19.676
11.9119 19.710
11.9271 19.930
11.9423 19.695
11.9574 19.163
11.9726 19.537
11.9878 19.599
12.0030 19.407
12.0181 19.125
12.0333 19.384
12.0485 19.091
12.0637 18.796
12.0788 18.753
12.0940 18.567
12.1092 18.476
12.1244 18.628
12.1395 18.871
12.1547 18.842
12.1699 18.508
12.1851 18.515
12.2002 18.507
12.2154 18.248
12.2306 17.953
12.2458 17.982
12.2609 17.662
12.2761 17.569
12.2913 17.924
12.3065 17.964
12.3216 17.717
12.3368 17.438
12.3520 17.548
12.3672 17.840
12.3823 17.596
12.3975 17.259
12.4127 17.022
12.4279 17.029
12.4430 17.076
12.4582 16.841
12.4734 17.188
12.4886 17.147
12.5037 17.189
12.5189 17.019
12.5341 16.658
12.5493 16.739
12.5644 16.753
12.5796 16.466
12.5948 16.493
12.6100 16.442
12.6251 16.267
12.6403 16.422
12.6555 16.148
12.6707 15.903
12.6858 15.813
12.7010 15.707
12.7162 15.779
12.7314 15.820
12.7465 15.884
12.7617 15.565
12.7769 15.313
12.7921 15.028
12.8072 14.913
12.8224 15.027
12.8376 15.340
12.8528 15.345
12.8679 15.071
12.8831 14.671
12.8983 14.696
12.9135 14.856
12.9286 14.818
12.9438 14.709
12.9590 14.522
12.9742 14.725
12.9893 14.899
13.0045 14.444
13.0197 14.205
13.0349 14.395
13.0500 14.334
13.0652 14.189
13.0804 14.087
13.0956 13.965
13.1107 14.004
13.1259 13.923
13.1411 13.949
13.1563 13.867
13.1714 13.521
13.1866 13.443
13.2018 13.451
13.2170 13.432
13.2321 13.440
13.2473 13.452
13.2625 13.541
13.2777 13.603
13.2928 13.314
13.3080 13.195
13.3232 13.378
13.3384 13.349
13.3535 13.136
13.3687 13.060
13.3839 13.162
13.3991 13.090
13.4142 12.981
13.4294 13.028
13.4446 12.760
13.4598 12.600
13.4749 12.853
13.4901 12.780
13.5053 12.635
13.5205 12.603
13.5356 12.579
13.5508 12.383
13.5660 12.455
13.5812 12.502
13.5963 12.550
13.6115 12.519
13.6267 12.243
13.6419 12.153
13.6570 12.244
13.6722 12.155
13.6874 12.231
13.7026 12.160
13.7177 11.964
13.7329 12.136
13.7481 12.204
13.7633 12.054
13.7784 12.276
13.7936 12.562
13.8088 12.458
13.8239 12.266
13.8391 12.485
13.8543 12.508
13.8695 12.496
13.8846 12.304
13.8998 12.296
13.9150 12.054
13.9302 12.100
13.9453 12.297
13.9605 12.027
13.9757 11.762
13.9909 11.638
14.0060 11.666
14.0212 11.780
14.0364 11.591
14.0516 11.640
14.0667 11.620
14.0819 11.702
14.0971 11.715
14.1123 11.464
14.1274 11.364
14.1426 11.911
14.1578 11.785
14.1730 11.656
14.1881 11.606
14.2033 11.541
14.2185 11.654
14.2337 11.454
14.2488 11.529
14.2640 11.683
14.2792 11.766
14.2944 11.568
14.3095 11.892
14.3247 12.218
14.3399 12.177
14.3551 12.105
14.3702 12.346
14.3854 12.718
14.4006 12.638
14.4158 12.662
14.4309 12.251
14.4461 12.211
14.4613 12.205
14.4765 12.240
14.4916 11.990
14.5068 11.870
14.5220 11.759
14.5372 11.730
14.5523 11.309
14.5675 11.307
14.5827 11.145
14.5979 11.255
14.6130 10.820
14.6282 11.215
14.6434 11.320
14.6586 10.943
14.6737 11.134
14.6889 11.072
14.7041 10.866
14.7193 10.990
14.7344 11.176
14.7496 10.525
14.7648 10.743
14.7800 10.649
14.7951 10.762
14.8103 10.907
14.8255 11.105
14.8407 10.736
14.8558 10.519
14.8710 10.722
14.8862 10.682
14.9014 10.504
14.9165 11.115
14.9317 10.802
14.9469 10.666
14.9621 10.461
14.9772 10.782
14.9924 10.810
15.0076 10.585
15.0228 10.599
15.0379 11.017
15.0531 10.465
15.0683 10.739
15.0835 10.520
15.0986 10.694
15.1138 10.182
15.1290 10.385
15.1442 10.464
15.1593 10.435
15.1745 10.392
15.1897 10.638
15.2049 10.443
15.2200 10.217
15.2352 10.092
15.2504 10.414
15.2656 10.135
15.2807 10.252
15.2959 10.414
15.3111 10.166
15.3263 10.250
15.3414 10.425
15.3566 10.386
15.3718 10.247
15.3870 10.586
15.4021 10.382
15.4173 10.431
15.4325 10.446
15.4477 10.588
15.4628 10.622
15.4780 10.370
15.4932 10.321
15.5084 10.290
15.5235 10.472
15.5387 10.178
15.5539 10.303
15.5691 10.102
15.5842 10.215
15.5994 10.205
15.6146 10.126
15.6298 10.372
15.6449 10.145
15.6601 10.050
15.6753 10.089
15.6905 10.075
15.7056 10.046
15.7208 10.294
15.7360 10.132
15.7512 9.796
15.7663 9.870
15.7815 10.047
15.7967 9.864
15.8119 10.203
15.8270 9.874
15.8422 9.676
15.8574 9.912
15.8726 9.893
15.8877 10.129
15.9029 9.904
15.9181 10.167
15.9333 10.006
15.9484 9.841
15.9636 9.784
15.9788 10.131
15.9940 10.016
16.0091 9.791
16.0243 9.596
16.0395 9.653
16.0547 9.954
16.0698 9.934
16.0850 9.707
16.1002 9.699
16.1154 9.664
16.1305 9.911
16.1457 9.584
16.1609 9.784
16.1761 9.868
16.1912 9.865
16.2064 9.909
16.2216 9.879
16.2368 9.682
16.2519 9.829
16.2671 10.174
16.2823 10.098
16.2975 9.758
16.3126 9.986
16.3278 9.852
16.3430 10.218
16.3582 10.218
16.3733 10.255
16.3885 10.430
16.4037 10.310
16.4189 10.055
16.4340 9.801
16.4492 9.802
16.4644 9.871
16.4796 9.981
16.4947 10.110
16.5099 9.933
16.5251 9.754
16.5403 9.837
16.5554 9.832
16.5706 9.707
16.5858 9.551
16.6010 9.680
16.6161 9.693
16.6313 9.541
16.6465 9.561
16.6617 9.747
16.6768 10.188
16.6920 10.179
16.7072 10.090
16.7224 9.925
16.7375 9.884
16.7527 10.155
16.7679 10.072
16.7831 9.889
16.7982 9.942
16.8134 9.925
16.8286 9.991
16.8438 9.990
16.8589 9.865
16.8741 9.892
16.8893 9.888
16.9045 9.911
16.9196 9.876
16.9348 9.699
16.9500 9.681
16.9652 9.836
16.9803 9.964
16.9955 9.972
17.0107 9.907
17.0259 10.036
17.0410 10.268
17.0562 10.287
17.0714 10.320
17.0866 10.405
17.1017 10.470
17.1169 10.737
17.1321 11.080
17.1473 11.416
17.1624 11.842
17.1776 12.706
17.1928 13.456
17.2080 14.219
17.2231 15.491
17.2383 16.839
17.2535 17.684
17.2687 18.482
17.2838 18.983
17.2990 18.074
17.3142 17.077
17.3294 16.591
17.3445 16.007
17.3597 15.960
17.3749 16.058
17.3901 15.249
17.4052 14.301
17.4204 13.121
17.4356 12.153
17.4508 11.882
17.4659 11.462
17.4811 11.439
17.4963 11.427
17.5115 11.202
17.5266 10.936
17.5418 10.840
17.5570 10.965
17.5722 10.978
17.5873 11.100
17.6025 10.976
17.6177 10.837
17.6329 10.688
17.6480 10.517
17.6632 10.585
17.6784 10.630
17.6936 10.593
17.7087 10.359
17.7239 10.378
17.7391 10.500
17.7543 10.328
17.7694 10.235
17.7846 10.466
17.7998 10.281
17.8150 10.172
17.8301 10.231
17.8453 10.111
17.8605 10.231
17.8757 10.364
17.8908 10.370
17.9060 10.577
17.9212 10.504
17.9364 10.389
17.9515 10.428
17.9667 10.208
17.9819 10.218
17.9971 10.191
18.0122 10.196
18.0274 10.194
18.0426 10.629
18.0578 10.610
18.0729 10.377
18.0881 10.080
18.1033 9.910
18.1185 10.126
18.1336 9.971
18.1488 9.750
18.1640 9.873
18.1792 9.973
18.1943 9.975
18.2095 9.768
18.2247 9.865
18.2399 9.982
18.2550 9.883
18.2702 9.787
18.2854 9.727
18.3006 9.923
18.3157 10.029
18.3309 9.760
18.3461 9.672
18.3613 9.929
18.3764 9.839
18.3916 9.699
18.4068 9.794
18.4220 9.979
18.4371 9.875
18.4523 9.843
18.4675 9.862
18.4827 9.764
18.4978 9.753
18.5130 9.698
18.5282 9.871
18.5434 9.995
18.5585 9.694
18.5737 9.793
18.5889 9.814
18.6041 9.888
18.6192 9.997
18.6344 9.937
18.6496 9.737
18.6648 9.627
18.6799 9.850
18.6951 9.770
18.7103 9.708
18.7255 9.631
18.7406 9.694
18.7558 9.931
18.7710 10.021
18.7862 9.947
18.8013 9.774
18.8165 9.546
18.8317 9.740
18.8469 9.741
18.8620 9.917
18.8772 10.191
18.8924 10.275
18.9076 10.297
18.9227 10.199
18.9379 10.261
18.9531 10.011
18.9683 10.074
18.9834 10.111
18.9986 10.119
19.0138 10.082
19.0290 10.191
19.0441 10.321
19.0593 10.093
19.0745 10.198
19.0897 10.281
19.1048 10.264
19.1200 10.310
19.1352 10.343
19.1504 10.493
19.1655 10.738
19.1807 10.615
19.1959 10.620
19.2111 10.791
19.2262 10.755
19.2414 10.810
19.2566 10.718
19.2718 10.719
19.2869 10.948
19.3021 11.047
19.3173 11.091
19.3325 10.817
19.3476 10.796
19.3628 11.108
19.3780 11.060
19.3932 11.124
19.4083 11.331
19.4235 11.379
19.4387 11.381
19.4539 11.524
19.4690 11.558
19.4842 11.568
19.4994 11.643
19.5146 11.615
19.5297 11.643
19.5449 11.581
19.5601 11.565
19.5753 11.559
19.5904 11.695
19.6056 11.534
19.6208 11.464
19.6360 11.648
19.6511 11.602
19.6663 11.609
19.6815 11.755
19.6967 11.854
19.7118 11.738
19.7270 11.740
19.7422 11.820
19.7574 11.596
19.7725 11.665
19.7877 11.771
19.8029 11.801
19.8180 11.986
19.8332 12.235
19.8484 12.366
19.8636 12.302
19.8787 12.223
19.8939 12.568
19.9091 12.912
19.9243 13.091
19.9394 13.597
19.9546 14.036
19.9698 14.029
19.9850 14.500
20.0001 14.606
20.0153 14.226
20.0305 13.973
20.0457 13.743
20.0608 13.609
20.0760 13.539
20.0912 13.590
20.1064 13.483
20.1215 13.196
20.1367 13.403
20.1519 13.234
20.1671 12.912
20.1822 12.787
20.1974 12.886
20.2126 12.937
20.2278 12.901
20.2429 12.708
20.2581 12.447
20.2733 12.146
20.2885 11.801
20.3036 11.599
20.3188 11.652
20.3340 11.656
20.3492 11.686
20.3643 11.620
20.3795 11.334
20.3947 11.255
20.4099 11.010
20.4250 10.853
20.4402 10.590
20.4554 10.574
20.4706 10.644
20.4857 10.564
20.5009 10.682
20.5161 10.523
20.5313 10.800
20.5464 10.537
20.5616 10.536
20.5768 10.830
20.5920 10.918
20.6071 10.750
20.6223 10.608
20.6375 10.457
20.6527 10.470
20.6678 10.660
20.6830 10.409
20.6982 10.477
20.7134 10.371
20.7285 10.396
20.7437 10.443
20.7589 10.389
20.7741 10.512
20.7892 10.406
20.8044 10.317
20.8196 10.388
20.8348 10.379
20.8499 10.225
20.8651 10.372
20.8803 10.463
20.8955 10.300
20.9106 10.103
20.9258 10.004
20.9410 10.217
20.9562 10.269
20.9713 10.122
20.9865 9.887
21.0017 9.962
21.0169 10.166
21.0320 10.207
21.0472 9.787
21.0624 9.788
21.0776 10.196
21.0927 10.111
21.1079 9.720
21.1231 9.654
21.1383 9.930
21.1534 9.599
21.1686 9.673
21.1838 9.793
21.1990 9.925
21.2141 9.808
21.2293 9.437
21.2445 9.531
21.2597 9.848
21.2748 9.783
21.2900 9.571
21.3052 9.531
21.3204 9.578
21.3355 9.702
21.3507 9.537
21.3659 9.512
21.3811 9.612
21.3962 9.391
21.4114 9.304
21.4266 9.317
21.4418 9.506
21.4569 9.348
21.4721 9.308
21.4873 9.216
21.5025 9.302
21.5176 9.219
21.5328 9.208
21.5480 9.345
21.5632 9.454
21.5783 9.226
21.5935 9.128
21.6087 9.408
21.6239 9.351
21.6390 9.246
21.6542 9.217
21.6694 9.052
21.6846 9.217
21.6997 9.015
21.7149 9.033
21.7301 9.031
21.7453 9.074
21.7604 9.183
21.7756 9.182
21.7908 9.161
21.8060 8.946
21.8211 8.904
21.8363 8.927
21.8515 8.943
21.8667 9.026
21.8818 9.033
21.8970 9.100
21.9122 9.109
21.9274 9.122
21.9425 8.962
21.9577 8.713
21.9729 8.868
21.9881 9.012
22.0032 8.853
22.0184 8.806
22.0336 8.915
22.0488 8.823
22.0639 8.854
22.0791 9.001
22.0943 8.833
22.1095 8.714
22.1246 8.639
22.1398 8.754
22.1550 8.762
22.1702 8.715
22.1853 8.723
22.2005 8.774
22.2157 8.904
22.2309 8.882
22.2460 8.629
22.2612 8.643
22.2764 8.815
22.2916 8.837
22.3067 8.804
22.3219 8.700
22.3371 8.587
22.3523 8.597
22.3674 8.914
22.3826 8.638
22.3978 8.311
22.4130 8.586
22.4281 8.595
22.4433 8.707
22.4585 8.548
22.4737 8.474
22.4888 8.379
22.5040 8.640
22.5192 8.359
22.5344 8.303
22.5495 8.404
22.5647 8.564
22.5799 8.252
22.5951 8.528
22.6102 8.722
22.6254 8.811
22.6406 8.505
22.6558 8.711
22.6709 8.708
22.6861 8.370
22.7013 8.390
22.7165 7.773
22.7316 6.554
