'Id: "" Comment: "" Operator: "Lab Manager" Anode: "Mo" Scantype: "Still (Eiger2R_500K (1D mode))" TimePerStep: "300" X: "11.8" Y: "9.4" Z: "11.284" 
7.2532 18.606
7.2684 18.611
7.2836 18.523
7.2987 19.119
7.3139 18.691
7.3291 18.999
7.3443 19.255
7.3594 19.050
7.3746 19.081
7.3898 19.348
7.4050 19.153
7.4201 19.483
7.4353 19.348
7.4505 19.601
7.4657 19.829
7.4808 19.634
7.4960 19.213
7.5112 19.503
7.5264 19.708
7.5415 19.537
7.5567 19.923
7.5719 19.745
7.5871 19.660
7.6022 19.767
7.6174 19.870
7.6326 19.824
7.6478 19.856
7.6629 20.019
7.6781 20.161
7.6933 20.431
7.7085 20.624
7.7236 20.613
7.7388 20.548
7.7540 20.368
7.7692 20.056
7.7843 20.099
7.7995 20.287
7.8147 20.468
7.8299 20.506
7.8450 20.564
7.8602 20.594
7.8754 20.561
7.8905 20.880
7.9057 20.691
7.9209 20.635
7.9361 20.523
7.9512 20.696
7.9664 20.814
7.9816 20.780
7.9968 20.843
8.0119 20.923
8.0271 20.900
8.0423 20.749
8.0575 21.009
8.0726 21.205
8.0878 20.860
8.1030 20.660
8.1182 20.954
8.1333 20.794
8.1485 21.302
8.1637 21.099
8.1789 20.738
8.1940 21.339
8.2092 21.323
8.2244 21.205
8.2396 21.537
8.2547 21.241
8.2699 21.323
8.2851 21.767
8.3003 21.359
8.3154 21.309
8.3306 21.522
8.3458 21.411
8.3610 21.390
8.3761 22.132
8.3913 21.731
8.4065 21.596
8.4217 21.391
8.4368 21.675
8.4520 21.605
8.4672 21.585
8.4824 21.579
8.4975 21.979
8.5127 21.329
8.5279 21.661
8.5431 21.829
8.5582 22.261
8.5734 21.349
8.5886 21.596
8.6038 21.803
8.6189 22.053
8.6341 21.971
8.6493 21.809
8.6645 22.434
8.6796 22.610
8.6948 22.533
8.7100 21.930
8.7252 22.336
8.7403 21.890
8.7555 22.361
8.7707 22.593
8.7859 22.346
8.8010 22.278
8.8162 22.384
8.8314 22.133
8.8466 21.969
8.8617 22.647
8.8769 22.367
8.8921 22.632
8.9073 22.563
8.9224 22.834
8.9376 22.826
8.9528 22.471
8.9680 22.483
8.9831 22.420
8.9983 22.513
9.0135 22.465
9.0287 22.748
9.0438 22.430
9.0590 22.617
9.0742 22.664
9.0894 22.455
9.1045 22.397
9.1197 22.839
9.1349 22.509
9.1501 22.539
9.1652 22.436
9.1804 22.802
9.1956 22.801
9.2108 22.216
9.2259 22.583
9.2411 22.884
9.2563 22.546
9.2715 22.711
9.2866 23.172
9.3018 23.056
9.3170 22.968
9.3322 22.955
9.3473 22.765
9.3625 22.626
9.3777 22.718
9.3929 22.631
9.4080 22.622
9.4232 22.827
9.4384 22.894
9.4536 23.023
9.4687 23.031
9.4839 22.890
9.4991 23.039
9.5143 23.236
9.5294 22.905
9.5446 22.862
9.5598 23.245
9.5750 23.287
9.5901 23.122
9.6053 23.066
9.6205 23.056
9.6357 22.869
9.6508 23.018
9.6660 23.174
9.6812 23.337
9.6964 23.348
9.7115 23.257
9.7267 23.497
9.7419 23.473
9.7571 23.473
9.7722 23.818
9.7874 23.702
9.8026 23.591
9.8178 23.605
9.8329 23.520
9.8481 23.323
9.8633 22.906
9.8785 22.593
9.8936 22.751
9.9088 23.246
9.9240 23.070
9.9392 22.878
9.9543 22.919
9.9695 22.969
9.9847 22.922
9.9999 23.110
10.0150 23.059
10.0302 22.924
10.0454 22.820
10.0606 22.923
10.0757 23.237
10.0909 23.181
10.1061 23.038
10.1213 23.314
10.1364 23.523
10.1516 23.280
10.1668 23.419
10.1820 23.506
10.1971 23.314
10.2123 22.895
10.2275 22.757
10.2427 22.864
10.2578 22.807
10.2730 22.741
10.2882 22.434
10.3034 22.678
10.3185 22.659
10.3337 22.622
10.3489 22.648
10.3641 22.945
10.3792 22.836
10.3944 22.902
10.4096 22.593
10.4248 22.521
10.4399 22.825
10.4551 22.549
10.4703 22.539
10.4855 22.753
10.5006 22.820
10.5158 22.695
10.5310 22.727
10.5462 22.673
10.5613 22.250
10.5765 22.162
10.5917 22.306
10.6069 22.175
10.6220 22.278
10.6372 22.037
10.6524 22.438
10.6676 22.728
10.6827 22.077
10.6979 22.354
10.7131 22.246
10.7283 22.161
10.7434 22.112
10.7586 22.173
10.7738 21.945
10.7890 22.280
10.8041 22.444
10.8193 22.313
10.8345 22.298
10.8497 22.183
10.8648 22.131
10.8800 22.006
10.8952 21.809
10.9104 22.226
10.9255 22.048
10.9407 21.672
10.9559 21.834
10.9711 21.970
10.9862 22.042
11.0014 22.338
11.0166 22.262
11.0318 22.074
11.0469 21.796
11.0621 21.629
11.0773 21.687
11.0925 21.765
11.1076 21.631
11.1228 21.273
11.1380 21.494
11.1532 21.400
11.1683 21.971
11.1835 21.806
11.1987 21.606
11.2139 21.837
11.2290 21.677
11.2442 21.018
11.2594 21.308
11.2746 21.203
11.2897 21.438
11.3049 21.548
11.3201 21.444
11.3353 21.415
11.3504 21.325
11.3656 21.093
11.3808 21.277
11.3960 21.344
11.4111 21.259
11.4263 21.260
11.4415 21.082
11.4567 20.821
11.4718 20.872
11.4870 20.895
11.5022 21.030
11.5174 21.256
11.5325 21.181
11.5477 21.109
11.5629 20.889
11.5781 20.772
11.5932 20.537
11.6084 20.699
11.6236 20.571
11.6388 20.256
11.6539 20.371
11.6691 20.352
11.6843 20.276
11.6995 20.522
11.7146 20.382
11.7298 20.093
11.7450 20.391
11.7602 20.543
11.7753 20.259
11.7905 20.106
11.8057 19.592
11.8209 19.810
11.8360 19.945
11.8512 19.948
11.8664 19.675
11.8816 19.483
11.8967 19.433
11.9119 19.300
11.9271 19.460
11.9423 19.497
11.9574 19.392
11.9726 19.371
11.9878 19.141
12.0030 18.966
12.0181 19.179
12.0333 19.061
12.0485 18.624
12.0637 18.795
12.0788 18.872
12.0940 18.652
12.1092 18.619
12.1244 18.599
12.1395 18.336
12.1547 18.458
12.1699 18.342
12.1851 18.135
12.2002 18.270
12.2154 17.974
12.2306 18.010
12.2458 18.032
12.2609 17.949
12.2761 17.785
12.2913 17.753
12.3065 17.490
12.3216 17.302
12.3368 17.284
12.3520 17.344
12.3672 17.303
12.3823 17.210
12.3975 16.975
12.4127 16.739
12.4279 16.948
12.4430 16.921
12.4582 16.718
12.4734 16.979
12.4886 16.494
12.5037 16.317
12.5189 16.515
12.5341 16.548
12.5493 16.536
12.5644 16.279
12.5796 16.270
12.5948 16.131
12.6100 15.950
12.6251 16.002
12.6403 15.820
12.6555 15.591
12.6707 15.683
12.6858 15.809
12.7010 15.664
12.7162 15.589
12.7314 15.521
12.7465 15.464
12.7617 15.389
12.7769 15.246
12.7921 15.062
12.8072 14.688
12.8224 14.609
12.8376 14.722
12.8528 14.743
12.8679 14.743
12.8831 14.690
12.8983 14.706
12.9135 14.622
12.9286 14.734
12.9438 14.514
12.9590 14.348
12.9742 14.221
12.9893 14.142
13.0045 14.159
13.0197 14.093
13.0349 13.946
13.0500 13.722
13.0652 13.774
13.0804 13.899
13.0956 13.711
13.1107 13.705
13.1259 13.851
13.1411 13.523
13.1563 13.317
13.1714 13.527
13.1866 13.634
13.2018 13.555
13.2170 13.391
13.2321 13.323
13.2473 13.466
13.2625 13.363
13.2777 13.113
13.2928 13.040
13.3080 13.049
13.3232 13.052
13.3384 13.074
13.3535 12.975
13.3687 12.942
13.3839 13.228
13.3991 13.173
13.4142 13.023
13.4294 13.000
13.4446 12.918
13.4598 12.841
13.4749 12.718
13.4901 12.641
13.5053 12.401
13.5205 12.499
13.5356 12.631
13.5508 12.532
13.5660 12.449
13.5812 12.397
13.5963 12.404
13.6115 12.395
13.6267 12.405
13.6419 12.387
13.6570 12.127
13.6722 11.995
13.6874 11.803
13.7026 11.896
13.7177 11.880
13.7329 11.801
13.7481 11.862
13.7633 12.105
13.7784 12.021
13.7936 12.053
13.8088 12.176
13.8239 12.066
13.8391 12.277
13.8543 12.446
13.8695 12.249
13.8846 12.273
13.8998 12.138
13.9150 12.061
13.9302 12.070
13.9453 11.910
13.9605 11.619
13.9757 11.547
13.9909 11.573
14.0060 11.623
14.0212 11.620
14.0364 11.507
14.0516 11.552
14.0667 11.263
14.0819 11.318
14.0971 11.229
14.1123 11.286
14.1274 11.151
14.1426 11.205
14.1578 11.390
14.1730 11.422
14.1881 11.271
14.2033 11.419
14.2185 11.583
14.2337 11.358
14.2488 11.353
14.2640 11.677
14.2792 11.539
14.2944 11.626
14.3095 11.571
14.3247 11.767
14.3399 12.031
14.3551 12.256
14.3702 12.682
14.3854 12.771
14.4006 13.195
14.4158 13.131
14.4309 13.344
14.4461 12.988
14.4613 12.870
14.4765 12.757
14.4916 12.320
14.5068 12.072
14.5220 12.193
14.5372 12.035
14.5523 11.730
14.5675 11.676
14.5827 11.254
14.5979 10.880
14.6130 10.896
14.6282 10.707
14.6434 10.811
14.6586 11.000
14.6737 11.030
14.6889 10.616
14.7041 10.698
14.7193 10.865
14.7344 10.651
14.7496 10.729
14.7648 10.674
14.7800 10.253
14.7951 10.600
14.8103 10.282
14.8255 10.401
14.8407 10.582
14.8558 10.575
14.8710 10.391
14.8862 10.275
14.9014 10.379
14.9165 10.372
14.9317 10.625
14.9469 10.426
14.9621 10.329
14.9772 10.223
14.9924 10.314
15.0076 10.497
15.0228 10.240
15.0379 10.521
15.0531 10.516
15.0683 10.136
15.0835 10.040
15.0986 10.038
15.1138 10.220
15.1290 10.054
15.1442 10.150
15.1593 9.799
15.1745 10.290
15.1897 9.863
15.2049 10.259
15.2200 9.872
15.2352 10.113
15.2504 9.930
15.2656 10.303
15.2807 10.205
15.2959 10.042
15.3111 9.973
15.3263 9.734
15.3414 9.983
15.3566 10.184
15.3718 10.426
15.3870 10.306
15.4021 10.467
15.4173 10.087
15.4325 10.333
15.4477 10.514
15.4628 10.472
15.4780 10.175
15.4932 10.121
15.5084 10.143
15.5235 9.949
15.5387 10.245
15.5539 10.122
15.5691 10.096
15.5842 9.916
15.5994 9.792
15.6146 9.869
15.6298 9.868
15.6449 9.629
15.6601 9.899
15.6753 9.800
15.6905 9.823
15.7056 9.515
15.7208 9.691
15.7360 9.565
15.7512 9.977
15.7663 9.727
15.7815 9.926
15.7967 9.678
15.8119 9.742
15.8270 9.722
15.8422 9.853
15.8574 9.712
15.8726 9.608
15.8877 9.550
15.9029 9.581
15.9181 9.561
15.9333 9.638
15.9484 9.484
15.9636 9.529
15.9788 9.448
15.9940 9.860
16.0091 9.606
16.0243 9.726
16.0395 9.716
16.0547 9.589
16.0698 9.315
16.0850 9.656
16.1002 9.549
16.1154 9.774
16.1305 9.729
16.1457 9.656
16.1609 9.535
16.1761 9.679
16.1912 9.580
16.2064 9.606
16.2216 10.007
16.2368 9.981
16.2519 9.980
16.2671 9.704
16.2823 9.620
16.2975 9.602
16.3126 9.829
16.3278 9.751
16.3430 9.734
16.3582 10.300
16.3733 9.967
16.3885 9.891
16.4037 9.504
16.4189 9.490
16.4340 9.524
16.4492 9.619
16.4644 9.718
16.4796 9.663
16.4947 9.422
16.5099 9.483
16.5251 9.589
16.5403 9.658
16.5554 9.695
16.5706 9.684
16.5858 9.744
16.6010 9.776
16.6161 9.668
16.6313 9.600
16.6465 9.533
16.6617 9.673
16.6768 9.663
16.6920 9.606
16.7072 9.912
16.7224 9.952
16.7375 9.971
16.7527 10.124
16.7679 9.962
16.7831 9.845
16.7982 9.868
16.8134 9.800
16.8286 9.914
16.8438 9.709
16.8589 9.611
16.8741 9.539
16.8893 9.472
16.9045 9.642
16.9196 9.733
16.9348 9.693
16.9500 9.696
16.9652 9.736
16.9803 9.436
16.9955 9.440
17.0107 9.830
17.0259 9.868
17.0410 9.882
17.0562 9.991
17.0714 10.072
17.0866 10.326
17.1017 10.507
17.1169 10.373
17.1321 10.651
17.1473 11.416
17.1624 11.673
17.1776 11.985
17.1928 12.947
17.2080 13.877
17.2231 14.828
17.2383 16.050
17.2535 17.361
17.2687 18.243
17.2838 18.224
17.2990 17.609
17.3142 17.012
17.3294 16.321
17.3445 15.842
17.3597 15.847
17.3749 15.518
17.3901 14.832
17.4052 14.020
17.4204 12.953
17.4356 12.236
17.4508 11.887
17.4659 11.463
17.4811 11.113
17.4963 10.985
17.5115 10.958
17.5266 10.723
17.5418 10.645
17.5570 10.601
17.5722 10.483
17.5873 10.486
17.6025 10.528
17.6177 10.721
17.6329 10.864
17.6480 10.991
17.6632 11.257
17.6784 11.681
17.6936 11.748
17.7087 11.747
17.7239 11.791
17.7391 11.619
17.7543 11.271
17.7694 11.131
17.7846 11.331
17.7998 11.330
17.8150 11.381
17.8301 11.034
17.8453 10.721
17.8605 10.763
17.8757 10.545
17.8908 10.370
17.9060 10.487
17.9212 10.383
17.9364 10.189
17.9515 10.069
17.9667 10.024
17.9819 10.160
17.9971 10.321
18.0122 10.254
18.0274 10.394
18.0426 10.279
18.0578 10.170
18.0729 10.061
18.0881 9.919
18.1033 9.876
18.1185 9.948
18.1336 10.352
18.1488 10.251
18.1640 9.923
18.1792 9.884
18.1943 10.024
18.2095 10.031
18.2247 9.750
18.2399 9.663
18.2550 9.611
18.2702 9.759
18.2854 9.800
18.3006 9.786
18.3157 9.716
18.3309 9.876
18.3461 9.832
18.3613 9.679
18.3764 9.929
18.3916 9.863
18.4068 9.640
18.4220 9.475
18.4371 9.491
18.4523 9.683
18.4675 9.686
18.4827 9.617
18.4978 9.693
18.5130 9.650
18.5282 9.799
18.5434 9.701
18.5585 9.879
18.5737 9.764
18.5889 9.496
18.6041 9.443
18.6192 9.400
18.6344 9.684
18.6496 9.815
18.6648 9.841
18.6799 9.675
18.6951 9.634
18.7103 9.675
18.7255 9.691
18.7406 9.710
18.7558 9.494
18.7710 9.521
18.7862 9.855
18.8013 9.621
18.8165 9.434
18.8317 9.877
18.8469 10.093
18.8620 9.947
18.8772 9.875
18.8924 9.625
18.9076 9.483
18.9227 9.678
18.9379 9.938
18.9531 10.059
18.9683 9.951
18.9834 9.866
18.9986 9.922
19.0138 10.028
19.0290 10.045
19.0441 10.006
19.0593 10.121
19.0745 10.221
19.0897 10.125
19.1048 10.186
19.1200 10.167
19.1352 10.328
19.1504 10.532
19.1655 10.535
19.1807 10.442
19.1959 10.637
19.2111 10.831
19.2262 10.863
19.2414 10.934
19.2566 10.902
19.2718 10.754
19.2869 10.781
19.3021 10.847
19.3173 10.955
19.3325 10.954
19.3476 10.938
19.3628 10.893
19.3780 10.850
19.3932 10.844
19.4083 10.921
19.4235 11.005
19.4387 11.233
19.4539 11.418
19.4690 11.175
19.4842 11.231
19.4994 11.423
19.5146 11.506
19.5297 11.387
19.5449 11.291
19.5601 11.554
19.5753 11.430
19.5904 11.318
19.6056 11.515
19.6208 11.564
19.6360 11.523
19.6511 11.769
19.6663 11.728
19.6815 11.359
19.6967 11.596
19.7118 11.637
19.7270 11.741
19.7422 11.841
19.7574 11.555
19.7725 11.683
19.7877 11.778
19.8029 11.860
19.8180 11.903
19.8332 11.913
19.8484 12.052
19.8636 12.153
19.8787 12.387
19.8939 12.565
19.9091 12.885
19.9243 13.363
19.9394 13.621
19.9546 13.820
19.9698 14.339
19.9850 14.572
20.0001 14.269
20.0153 13.976
20.0305 13.916
20.0457 13.809
20.0608 13.430
20.0760 13.039
20.0912 13.318
20.1064 13.415
20.1215 13.157
20.1367 13.157
20.1519 12.990
20.1671 12.601
20.1822 12.593
20.1974 12.717
20.2126 12.751
20.2278 12.803
20.2429 12.585
20.2581 12.342
20.2733 12.066
20.2885 11.708
20.3036 11.514
20.3188 11.572
20.3340 11.928
20.3492 11.943
20.3643 11.658
20.3795 11.308
20.3947 11.156
20.4099 11.289
20.4250 11.401
20.4402 11.625
20.4554 11.862
20.4706 11.787
20.4857 11.785
20.5009 11.934
20.5161 11.726
20.5313 11.572
20.5464 11.363
20.5616 11.328
20.5768 11.273
20.5920 11.448
20.6071 11.417
20.6223 11.149
20.6375 11.015
20.6527 10.973
20.6678 10.829
20.6830 10.706
20.6982 10.563
20.7134 10.397
20.7285 10.488
20.7437 10.284
20.7589 10.264
20.7741 10.380
20.7892 10.475
20.8044 10.567
20.8196 10.097
20.8348 10.339
20.8499 10.184
20.8651 10.027
20.8803 10.418
20.8955 10.121
20.9106 10.104
20.9258 10.074
20.9410 9.829
20.9562 9.943
20.9713 9.955
20.9865 9.745
21.0017 10.098
21.0169 9.880
21.0320 9.686
21.0472 10.030
21.0624 9.947
21.0776 9.900
21.0927 9.656
21.1079 9.872
21.1231 9.537
21.1383 9.725
21.1534 9.594
21.1686 9.357
21.1838 9.849
21.1990 9.727
21.2141 9.978
21.2293 9.700
21.2445 9.681
21.2597 9.243
21.2748 9.358
21.2900 9.507
21.3052 9.431
21.3204 9.585
21.3355 9.656
21.3507 9.619
21.3659 9.459
21.3811 9.443
21.3962 9.313
21.4114 9.538
21.4266 9.433
21.4418 9.578
21.4569 9.438
21.4721 9.509
21.4873 9.400
21.5025 9.155
21.5176 9.213
21.5328 9.298
21.5480 9.290
21.5632 9.078
21.5783 8.915
21.5935 9.063
21.6087 9.039
21.6239 9.094
21.6390 9.053
21.6542 9.054
21.6694 8.986
21.6846 8.863
21.6997 8.930
21.7149 9.091
21.7301 8.995
21.7453 9.135
21.7604 9.026
21.7756 8.821
21.7908 8.988
21.8060 9.040
21.8211 9.047
21.8363 9.065
21.8515 9.072
21.8667 8.858
21.8818 8.948
21.8970 9.000
21.9122 9.059
21.9274 9.138
21.9425 8.953
21.9577 8.766
21.9729 8.968
21.9881 8.967
22.0032 8.747
22.0184 8.681
22.0336 8.775
22.0488 8.883
22.0639 8.835
22.0791 8.738
22.0943 8.563
22.1095 8.676
22.1246 8.774
22.1398 8.504
22.1550 8.638
22.1702 8.701
22.1853 8.237
22.2005 8.254
22.2157 8.482
22.2309 8.379
22.2460 8.435
22.2612 8.519
22.2764 8.610
22.2916 8.560
22.3067 8.684
22.3219 8.328
22.3371 8.297
22.3523 8.330
22.3674 8.217
22.3826 8.408
22.3978 8.214
22.4130 8.427
22.4281 8.403
22.4433 8.299
22.4585 8.546
22.4737 8.381
22.4888 8.309
22.5040 8.356
22.5192 8.358
22.5344 8.338
22.5495 8.412
22.5647 8.468
22.5799 8.474
22.5951 8.229
22.6102 8.357
22.6254 8.369
22.6406 8.529
22.6558 8.241
22.6709 8.161
22.6861 8.089
22.7013 7.959
22.7165 7.920
22.7316 6.197
