'Id: "" Comment: "" Operator: "Lab Manager" Anode: "Mo" Scantype: "Still (Eiger2R_500K (1D mode))" TimePerStep: "300" X: "11.8" Y: "9.4" Z: "11.284" 
7.2532 18.895
7.2684 19.097
7.2836 19.240
7.2987 18.711
7.3139 19.355
7.3291 18.934
7.3443 19.174
7.3594 18.984
7.3746 19.154
7.3898 19.342
7.4050 19.063
7.4201 19.590
7.4353 19.513
7.4505 19.551
7.4657 19.367
7.4808 19.774
7.4960 19.425
7.5112 19.238
7.5264 19.479
7.5415 19.279
7.5567 19.595
7.5719 19.789
7.5871 19.984
7.6022 20.076
7.6174 20.293
7.6326 19.945
7.6478 20.342
7.6629 20.483
7.6781 20.240
7.6933 20.414
7.7085 20.362
7.7236 20.142
7.7388 20.154
7.7540 20.358
7.7692 20.719
7.7843 20.567
7.7995 20.496
7.8147 20.611
7.8299 20.686
7.8450 20.849
7.8602 20.816
7.8754 20.890
7.8905 20.898
7.9057 20.803
7.9209 20.888
7.9361 20.940
7.9512 20.924
7.9664 20.924
7.9816 20.993
7.9968 21.006
8.0119 21.201
8.0271 21.138
8.0423 21.078
8.0575 21.020
8.0726 21.422
8.0878 21.390
8.1030 21.387
8.1182 21.599
8.1333 21.607
8.1485 21.352
8.1637 21.208
8.1789 21.253
8.1940 21.691
8.2092 21.175
8.2244 21.718
8.2396 21.497
8.2547 21.807
8.2699 21.429
8.2851 21.453
8.3003 21.723
8.3154 21.438
8.3306 21.169
8.3458 21.485
8.3610 21.651
8.3761 21.691
8.3913 22.034
8.4065 21.904
8.4217 22.146
8.4368 22.209
8.4520 21.743
8.4672 22.067
8.4824 22.467
8.4975 22.276
8.5127 22.049
8.5279 22.434
8.5431 22.046
8.5582 22.200
8.5734 21.883
8.5886 22.515
8.6038 22.255
8.6189 22.138
8.6341 22.999
8.6493 22.440
8.6645 22.306
8.6796 22.597
8.6948 22.672
8.7100 22.456
8.7252 22.054
8.7403 22.525
8.7555 22.731
8.7707 23.176
8.7859 22.517
8.8010 22.723
8.8162 22.211
8.8314 22.379
8.8466 22.442
8.8617 22.385
8.8769 22.345
8.8921 22.566
8.9073 22.726
8.9224 22.518
8.9376 22.795
8.9528 23.003
8.9680 22.768
8.9831 22.691
8.9983 22.893
9.0135 22.675
9.0287 22.528
9.0438 23.108
9.0590 22.768
9.0742 22.633
9.0894 22.640
9.1045 22.733
9.1197 22.860
9.1349 22.880
9.1501 22.926
9.1652 23.192
9.1804 23.214
9.1956 22.846
9.2108 22.829
9.2259 23.244
9.2411 23.276
9.2563 23.183
9.2715 22.878
9.2866 23.057
9.3018 23.057
9.3170 23.192
9.3322 23.392
9.3473 23.027
9.3625 22.994
9.3777 23.194
9.3929 23.472
9.4080 23.244
9.4232 22.959
9.4384 23.207
9.4536 23.141
9.4687 23.047
9.4839 23.162
9.4991 23.391
9.5143 23.445
9.5294 23.504
9.5446 23.151
9.5598 23.137
9.5750 23.438
9.5901 23.610
9.6053 23.227
9.6205 23.177
9.6357 23.506
9.6508 23.865
9.6660 23.919
9.6812 23.763
9.6964 23.925
9.7115 24.008
9.7267 23.861
9.7419 23.957
9.7571 24.213
9.7722 24.034
9.7874 23.853
9.8026 23.761
9.8178 23.717
9.8329 23.361
9.8481 23.137
9.8633 23.130
9.8785 23.307
9.8936 23.452
9.9088 23.136
9.9240 23.086
9.9392 23.137
9.9543 23.377
9.9695 23.346
9.9847 23.144
9.9999 23.345
10.0150 23.351
10.0302 23.041
10.0454 23.331
10.0606 23.373
10.0757 23.290
10.0909 23.420
10.1061 23.571
10.1213 23.512
10.1364 23.437
10.1516 23.232
10.1668 23.152
10.1820 23.589
10.1971 23.434
10.2123 23.314
10.2275 23.593
10.2427 23.624
10.2578 23.259
10.2730 22.925
10.2882 22.639
10.3034 22.617
10.3185 22.654
10.3337 22.754
10.3489 22.754
10.3641 23.109
10.3792 23.244
10.3944 22.923
10.4096 22.702
10.4248 22.885
10.4399 22.920
10.4551 22.808
10.4703 22.781
10.4855 22.878
10.5006 23.028
10.5158 22.601
10.5310 22.579
10.5462 22.731
10.5613 22.857
10.5765 22.774
10.5917 22.709
10.6069 22.569
10.6220 22.613
10.6372 22.694
10.6524 22.352
10.6676 22.688
10.6827 22.901
10.6979 22.412
10.7131 22.782
10.7283 22.478
10.7434 22.053
10.7586 22.735
10.7738 22.447
10.7890 22.138
10.8041 22.534
10.8193 22.393
10.8345 22.270
10.8497 22.316
10.8648 22.166
10.8800 21.704
10.8952 22.275
10.9104 22.270
10.9255 22.185
10.9407 22.107
10.9559 22.009
10.9711 22.171
10.9862 22.053
11.0014 22.077
11.0166 22.010
11.0318 22.171
11.0469 22.247
11.0621 22.247
11.0773 22.094
11.0925 22.023
11.1076 21.781
11.1228 21.915
11.1380 22.125
11.1532 22.444
11.1683 21.832
11.1835 21.866
11.1987 21.847
11.2139 21.500
11.2290 21.916
11.2442 21.845
11.2594 21.973
11.2746 21.870
11.2897 21.874
11.3049 21.781
11.3201 21.565
11.3353 21.086
11.3504 20.877
11.3656 21.479
11.3808 21.624
11.3960 21.512
11.4111 21.399
11.4263 21.216
11.4415 21.186
11.4567 21.495
11.4718 21.445
11.4870 20.971
11.5022 21.204
11.5174 21.099
11.5325 21.113
11.5477 21.127
11.5629 21.238
11.5781 21.143
11.5932 20.761
11.6084 20.679
11.6236 20.908
11.6388 20.907
11.6539 20.587
11.6691 20.707
11.6843 20.609
11.6995 20.671
11.7146 20.607
11.7298 20.469
11.7450 20.446
11.7602 20.421
11.7753 20.042
11.7905 19.937
11.8057 20.241
11.8209 19.958
11.8360 20.086
11.8512 19.871
11.8664 20.058
11.8816 20.258
11.8967 20.177
11.9119 19.823
11.9271 19.438
11.9423 19.345
11.9574 19.310
11.9726 19.559
11.9878 19.632
12.0030 19.259
12.0181 19.269
12.0333 19.410
12.0485 18.995
12.0637 18.820
12.0788 19.046
12.0940 18.996
12.1092 18.821
12.1244 18.679
12.1395 18.609
12.1547 18.541
12.1699 18.424
12.1851 18.290
12.2002 18.392
12.2154 18.372
12.2306 18.246
12.2458 17.991
12.2609 17.901
12.2761 17.791
12.2913 17.760
12.3065 17.506
12.3216 17.303
12.3368 17.413
12.3520 17.288
12.3672 17.389
12.3823 17.468
12.3975 17.429
12.4127 17.279
12.4279 17.212
12.4430 16.737
12.4582 16.505
12.4734 16.707
12.4886 16.766
12.5037 16.595
12.5189 16.753
12.5341 16.743
12.5493 16.717
12.5644 16.814
12.5796 16.529
12.5948 16.285
12.6100 16.228
12.6251 16.135
12.6403 16.041
12.6555 16.049
12.6707 15.746
12.6858 15.635
12.7010 16.066
12.7162 16.038
12.7314 15.586
12.7465 15.504
12.7617 15.401
12.7769 15.357
12.7921 15.608
12.8072 15.398
12.8224 15.148
12.8376 15.149
12.8528 15.127
12.8679 14.940
12.8831 14.735
12.8983 14.700
12.9135 14.980
12.9286 14.996
12.9438 14.815
12.9590 14.637
12.9742 14.574
12.9893 14.555
13.0045 14.379
13.0197 14.270
13.0349 14.186
13.0500 14.123
13.0652 14.159
13.0804 13.945
13.0956 13.599
13.1107 13.640
13.1259 13.891
13.1411 13.928
13.1563 13.842
13.1714 13.741
13.1866 13.832
13.2018 13.799
13.2170 13.614
13.2321 13.441
13.2473 13.234
13.2625 13.297
13.2777 13.429
13.2928 13.522
13.3080 13.401
13.3232 13.386
13.3384 13.269
13.3535 13.007
13.3687 13.070
13.3839 13.240
13.3991 13.144
13.4142 12.947
13.4294 12.897
13.4446 12.722
13.4598 12.880
13.4749 12.854
13.4901 12.644
13.5053 12.861
13.5205 12.779
13.5356 12.661
13.5508 12.487
13.5660 12.259
13.5812 12.431
13.5963 12.431
13.6115 12.127
13.6267 12.101
13.6419 12.353
13.6570 12.445
13.6722 12.453
13.6874 12.321
13.7026 12.331
13.7177 12.191
13.7329 11.899
13.7481 11.879
13.7633 12.173
13.7784 12.168
13.7936 12.031
13.8088 12.265
13.8239 12.028
13.8391 12.316
13.8543 12.349
13.8695 12.539
13.8846 12.642
13.8998 12.145
13.9150 12.103
13.9302 11.921
13.9453 12.146
13.9605 12.046
13.9757 11.761
13.9909 11.737
14.0060 11.848
14.0212 11.663
14.0364 11.937
14.0516 11.576
14.0667 11.453
14.0819 11.426
14.0971 11.447
14.1123 11.507
14.1274 11.368
14.1426 11.289
14.1578 11.250
14.1730 11.213
14.1881 11.534
14.2033 11.657
14.2185 11.536
14.2337 11.407
14.2488 11.419
14.2640 11.756
14.2792 11.779
14.2944 11.743
14.3095 12.443
14.3247 12.400
14.3399 12.944
14.3551 12.979
14.3702 13.243
14.3854 13.408
14.4006 13.890
14.4158 13.510
14.4309 13.374
14.4461 13.400
14.4613 13.073
14.4765 12.874
14.4916 12.491
14.5068 12.363
14.5220 12.279
14.5372 11.696
14.5523 11.286
14.5675 11.393
14.5827 11.289
14.5979 10.968
14.6130 10.924
14.6282 11.213
14.6434 10.678
14.6586 10.739
14.6737 10.806
14.6889 10.933
14.7041 10.803
14.7193 10.545
14.7344 10.305
14.7496 10.525
14.7648 10.821
14.7800 10.910
14.7951 10.651
14.8103 10.577
14.8255 10.587
14.8407 10.621
14.8558 10.757
14.8710 10.838
14.8862 10.482
14.9014 10.224
14.9165 10.737
14.9317 10.666
14.9469 10.377
14.9621 10.666
14.9772 10.266
14.9924 10.311
15.0076 10.819
15.0228 10.307
15.0379 10.461
15.0531 10.260
15.0683 10.168
15.0835 10.358
15.0986 10.625
15.1138 10.138
15.1290 10.487
15.1442 10.553
15.1593 10.103
15.1745 10.533
15.1897 10.677
15.2049 10.476
15.2200 10.321
15.2352 10.155
15.2504 10.273
15.2656 10.140
15.2807 10.586
15.2959 10.209
15.3111 10.362
15.3263 10.284
15.3414 10.544
15.3566 10.213
15.3718 9.972
15.3870 10.449
15.4021 10.445
15.4173 10.316
15.4325 10.589
15.4477 10.417
15.4628 10.214
15.4780 10.278
15.4932 9.999
15.5084 10.308
15.5235 10.005
15.5387 10.366
15.5539 10.126
15.5691 10.000
15.5842 10.096
15.5994 9.934
15.6146 9.813
15.6298 9.853
15.6449 10.020
15.6601 10.184
15.6753 10.111
15.6905 9.793
15.7056 9.845
15.7208 9.939
15.7360 9.809
15.7512 9.772
15.7663 9.840
15.7815 9.744
15.7967 10.000
15.8119 9.936
15.8270 9.855
15.8422 9.761
15.8574 9.774
15.8726 9.819
15.8877 9.730
15.9029 9.613
15.9181 9.580
15.9333 9.665
15.9484 9.757
15.9636 9.730
15.9788 9.754
15.9940 10.034
16.0091 9.763
16.0243 9.593
16.0395 9.727
16.0547 10.067
16.0698 10.081
16.0850 9.775
16.1002 9.729
16.1154 9.756
16.1305 9.694
16.1457 9.579
16.1609 9.555
16.1761 9.669
16.1912 9.565
16.2064 9.531
16.2216 9.851
16.2368 10.003
16.2519 9.860
16.2671 10.017
16.2823 10.047
16.2975 9.952
16.3126 9.956
16.3278 9.840
16.3430 9.939
16.3582 10.220
16.3733 10.399
16.3885 10.110
16.4037 9.945
16.4189 9.979
16.4340 9.750
16.4492 9.863
16.4644 9.918
16.4796 10.131
16.4947 9.786
16.5099 9.527
16.5251 9.738
16.5403 9.664
16.5554 9.554
16.5706 9.672
16.5858 9.973
16.6010 9.700
16.6161 9.672
16.6313 9.709
16.6465 9.591
16.6617 9.544
16.6768 9.835
16.6920 9.991
16.7072 9.923
16.7224 10.113
16.7375 10.236
16.7527 10.228
16.7679 9.919
16.7831 9.985
16.7982 9.996
16.8134 10.068
16.8286 9.960
16.8438 9.772
16.8589 9.784
16.8741 9.900
16.8893 9.838
16.9045 9.782
16.9196 9.954
16.9348 9.890
16.9500 9.805
16.9652 9.963
16.9803 9.954
16.9955 9.963
17.0107 10.019
17.0259 10.016
17.0410 9.973
17.0562 10.139
17.0714 10.256
17.0866 10.205
17.1017 10.418
17.1169 10.704
17.1321 11.049
17.1473 11.409
17.1624 11.616
17.1776 12.300
17.1928 13.072
17.2080 14.019
17.2231 15.169
17.2383 16.162
17.2535 17.478
17.2687 18.390
17.2838 18.672
17.2990 17.934
17.3142 16.683
17.3294 16.130
17.3445 15.948
17.3597 15.916
17.3749 15.904
17.3901 15.509
17.4052 14.451
17.4204 13.209
17.4356 12.207
17.4508 11.870
17.4659 11.800
17.4811 11.567
17.4963 11.236
17.5115 10.924
17.5266 10.841
17.5418 10.761
17.5570 10.726
17.5722 10.658
17.5873 10.797
17.6025 11.037
17.6177 11.271
17.6329 11.327
17.6480 11.341
17.6632 11.686
17.6784 11.916
17.6936 12.008
17.7087 11.909
17.7239 11.484
17.7391 11.253
17.7543 11.138
17.7694 11.176
17.7846 11.194
17.7998 10.816
17.8150 10.619
17.8301 10.578
17.8453 10.452
17.8605 10.286
17.8757 10.252
17.8908 10.281
17.9060 10.374
17.9212 10.403
17.9364 10.140
17.9515 10.190
17.9667 10.372
17.9819 10.393
17.9971 10.196
18.0122 10.276
18.0274 10.256
18.0426 10.352
18.0578 10.251
18.0729 10.119
18.0881 10.411
18.1033 10.319
18.1185 10.224
18.1336 10.135
18.1488 9.947
18.1640 10.110
18.1792 10.023
18.1943 10.066
18.2095 10.026
18.2247 9.908
18.2399 9.973
18.2550 9.879
18.2702 9.771
18.2854 9.750
18.3006 9.793
18.3157 10.055
18.3309 9.947
18.3461 9.808
18.3613 9.831
18.3764 9.878
18.3916 10.014
18.4068 10.151
18.4220 9.843
18.4371 9.817
18.4523 9.926
18.4675 10.019
18.4827 9.944
18.4978 9.723
18.5130 9.704
18.5282 9.833
18.5434 9.886
18.5585 9.717
18.5737 9.767
18.5889 10.030
18.6041 9.845
18.6192 9.833
18.6344 9.758
18.6496 9.766
18.6648 9.947
18.6799 9.895
18.6951 9.701
18.7103 9.911
18.7255 9.771
18.7406 9.566
18.7558 9.644
18.7710 9.702
18.7862 9.865
18.8013 9.994
18.8165 9.885
18.8317 10.277
18.8469 10.132
18.8620 10.116
18.8772 10.153
18.8924 9.990
18.9076 9.930
18.9227 9.910
18.9379 10.023
18.9531 10.142
18.9683 10.084
18.9834 10.100
18.9986 10.310
19.0138 10.374
19.0290 10.201
19.0441 10.072
19.0593 10.245
19.0745 10.288
19.0897 10.338
19.1048 10.445
19.1200 10.459
19.1352 10.406
19.1504 10.524
19.1655 10.738
19.1807 10.725
19.1959 10.709
19.2111 10.856
19.2262 11.106
19.2414 10.941
19.2566 10.723
19.2718 10.757
19.2869 10.973
19.3021 10.921
19.3173 10.756
19.3325 11.100
19.3476 11.492
19.3628 11.407
19.3780 11.194
19.3932 11.269
19.4083 10.961
19.4235 10.779
19.4387 11.126
19.4539 11.386
19.4690 11.382
19.4842 11.314
19.4994 11.200
19.5146 11.398
19.5297 11.586
19.5449 11.516
19.5601 11.586
19.5753 11.573
19.5904 11.518
19.6056 11.776
19.6208 11.699
19.6360 11.661
19.6511 11.771
19.6663 11.687
19.6815 11.805
19.6967 11.888
19.7118 11.860
19.7270 12.044
19.7422 11.981
19.7574 11.879
19.7725 11.868
19.7877 11.920
19.8029 12.119
19.8180 12.048
19.8332 12.031
19.8484 12.184
19.8636 12.541
19.8787 12.736
19.8939 12.789
19.9091 13.049
19.9243 13.165
19.9394 13.452
19.9546 14.040
19.9698 14.468
19.9850 14.422
20.0001 14.209
20.0153 14.044
20.0305 13.810
20.0457 13.655
20.0608 13.636
20.0760 13.813
20.0912 14.013
20.1064 13.737
20.1215 13.384
20.1367 13.180
20.1519 12.788
20.1671 12.806
20.1822 12.697
20.1974 12.580
20.2126 12.355
20.2278 12.491
20.2429 12.596
20.2581 12.206
20.2733 11.846
20.2885 11.918
20.3036 11.830
20.3188 11.816
20.3340 11.821
20.3492 11.859
20.3643 11.676
20.3795 11.808
20.3947 11.937
20.4099 11.800
20.4250 11.964
20.4402 12.012
20.4554 12.052
20.4706 11.925
20.4857 12.259
20.5009 12.055
20.5161 12.070
20.5313 11.702
20.5464 11.513
20.5616 11.378
20.5768 11.120
20.5920 10.943
20.6071 11.140
20.6223 11.170
20.6375 11.146
20.6527 10.763
20.6678 10.563
20.6830 10.823
20.6982 10.390
20.7134 10.668
20.7285 10.808
20.7437 10.511
20.7589 10.515
20.7741 10.468
20.7892 10.311
20.8044 10.409
20.8196 10.224
20.8348 10.118
20.8499 10.519
20.8651 10.322
20.8803 10.212
20.8955 10.144
20.9106 10.219
20.9258 9.775
20.9410 10.313
20.9562 10.485
20.9713 10.169
20.9865 10.038
21.0017 10.161
21.0169 10.042
21.0320 9.814
21.0472 9.977
21.0624 10.125
21.0776 9.719
21.0927 10.195
21.1079 10.043
21.1231 9.841
21.1383 9.883
21.1534 9.859
21.1686 9.802
21.1838 10.088
21.1990 9.661
21.2141 9.831
21.2293 9.479
21.2445 10.004
21.2597 10.395
21.2748 9.882
21.2900 9.550
21.3052 9.419
21.3204 9.713
21.3355 9.642
21.3507 9.371
21.3659 9.480
21.3811 9.355
21.3962 9.309
21.4114 9.267
21.4266 9.523
21.4418 9.787
21.4569 9.305
21.4721 9.267
21.4873 9.525
21.5025 9.152
21.5176 9.163
21.5328 9.387
21.5480 9.060
21.5632 9.393
21.5783 9.511
21.5935 9.364
21.6087 9.397
21.6239 9.378
21.6390 9.399
21.6542 9.060
21.6694 8.855
21.6846 9.240
21.6997 9.443
21.7149 9.140
21.7301 8.811
21.7453 9.161
21.7604 8.993
21.7756 9.222
21.7908 9.187
21.8060 8.869
21.8211 8.954
21.8363 8.957
21.8515 9.037
21.8667 8.755
21.8818 8.816
21.8970 9.021
21.9122 9.017
21.9274 9.066
21.9425 8.938
21.9577 8.897
21.9729 8.854
21.9881 8.719
22.0032 8.707
22.0184 8.831
22.0336 8.872
22.0488 8.764
22.0639 8.719
22.0791 8.858
22.0943 8.865
22.1095 8.826
22.1246 8.995
22.1398 8.546
22.1550 8.353
22.1702 8.500
22.1853 8.542
22.2005 8.746
22.2157 8.688
22.2309 8.723
22.2460 8.678
22.2612 8.521
22.2764 8.662
22.2916 8.422
22.3067 8.284
22.3219 8.446
22.3371 8.464
22.3523 8.543
22.3674 8.461
22.3826 8.499
22.3978 8.649
22.4130 8.409
22.4281 8.687
22.4433 8.534
22.4585 8.678
22.4737 8.574
22.4888 8.614
22.5040 8.565
22.5192 8.531
22.5344 8.353
22.5495 8.397
22.5647 8.355
22.5799 8.338
22.5951 8.411
22.6102 8.033
22.6254 8.425
22.6406 8.642
22.6558 8.320
22.6709 8.315
22.6861 8.461
22.7013 8.250
22.7165 7.969
22.7316 6.419
