'Id: "" Comment: "" Operator: "Lab Manager" Anode: "Mo" Scantype: "Still (Eiger2R_500K (1D mode))" TimePerStep: "300" X: "11.8" Y: "9.4" Z: "11.284" 
7.2532 18.868
7.2684 19.226
7.2836 19.099
7.2987 18.920
7.3139 19.007
7.3291 19.445
7.3443 19.258
7.3594 19.059
7.3746 19.324
7.3898 19.379
7.4050 19.652
7.4201 19.636
7.4353 19.267
7.4505 19.451
7.4657 19.571
7.4808 19.210
7.4960 19.541
7.5112 19.233
7.5264 19.541
7.5415 19.684
7.5567 19.611
7.5719 19.840
7.5871 20.132
7.6022 19.991
7.6174 20.173
7.6326 20.047
7.6478 19.892
7.6629 19.989
7.6781 20.250
7.6933 20.488
7.7085 20.575
7.7236 20.429
7.7388 20.161
7.7540 20.356
7.7692 20.697
7.7843 20.631
7.7995 20.367
7.8147 20.518
7.8299 20.846
7.8450 20.587
7.8602 20.735
7.8754 20.905
7.8905 20.894
7.9057 20.888
7.9209 20.809
7.9361 20.697
7.9512 20.965
7.9664 21.137
7.9816 21.039
7.9968 21.014
8.0119 21.153
8.0271 21.056
8.0423 21.225
8.0575 21.262
8.0726 21.153
8.0878 21.206
8.1030 21.120
8.1182 21.536
8.1333 21.483
8.1485 21.367
8.1637 21.435
8.1789 21.516
8.1940 21.729
8.2092 21.782
8.2244 21.492
8.2396 21.760
8.2547 21.487
8.2699 21.565
8.2851 21.427
8.3003 21.706
8.3154 22.026
8.3306 21.642
8.3458 21.626
8.3610 21.804
8.3761 21.931
8.3913 21.985
8.4065 21.749
8.4217 22.086
8.4368 22.261
8.4520 22.179
8.4672 22.006
8.4824 21.914
8.4975 22.205
8.5127 22.274
8.5279 22.181
8.5431 22.142
8.5582 22.130
8.5734 21.828
8.5886 22.631
8.6038 22.560
8.6189 22.270
8.6341 22.241
8.6493 22.841
8.6645 22.346
8.6796 22.415
8.6948 22.058
8.7100 22.501
8.7252 22.552
8.7403 22.401
8.7555 21.962
8.7707 22.300
8.7859 22.684
8.8010 22.356
8.8162 22.915
8.8314 22.521
8.8466 22.719
8.8617 22.636
8.8769 22.423
8.8921 22.556
8.9073 22.491
8.9224 22.849
8.9376 22.197
8.9528 22.372
8.9680 22.749
8.9831 22.831
8.9983 22.494
9.0135 22.380
9.0287 22.553
9.0438 22.776
9.0590 22.859
9.0742 23.036
9.0894 23.061
9.1045 23.008
9.1197 23.060
9.1349 23.245
9.1501 23.348
9.1652 23.151
9.1804 23.074
9.1956 23.196
9.2108 23.085
9.2259 23.059
9.2411 22.960
9.2563 23.382
9.2715 23.411
9.2866 23.162
9.3018 23.006
9.3170 22.868
9.3322 22.995
9.3473 22.855
9.3625 22.971
9.3777 23.389
9.3929 22.824
9.4080 22.690
9.4232 22.669
9.4384 22.785
9.4536 22.639
9.4687 22.788
9.4839 23.241
9.4991 23.331
9.5143 23.245
9.5294 23.450
9.5446 23.368
9.5598 23.315
9.5750 23.010
9.5901 23.180
9.6053 23.410
9.6205 23.485
9.6357 23.269
9.6508 23.325
9.6660 23.646
9.6812 23.629
9.6964 23.867
9.7115 24.369
9.7267 24.515
9.7419 24.165
9.7571 24.064
9.7722 24.214
9.7874 23.954
9.8026 23.824
9.8178 24.008
9.8329 23.880
9.8481 23.642
9.8633 23.823
9.8785 23.824
9.8936 23.593
9.9088 23.750
9.9240 23.827
9.9392 23.970
9.9543 23.901
9.9695 23.472
9.9847 23.660
9.9999 23.782
10.0150 23.310
10.0302 22.977
10.0454 22.940
10.0606 23.012
10.0757 23.335
10.0909 23.541
10.1061 23.347
10.1213 23.446
10.1364 23.468
10.1516 23.432
10.1668 23.382
10.1820 23.336
10.1971 23.252
10.2123 22.999
10.2275 23.224
10.2427 23.550
10.2578 23.376
10.2730 23.130
10.2882 23.005
10.3034 22.768
10.3185 22.887
10.3337 23.034
10.3489 23.059
10.3641 22.663
10.3792 22.593
10.3944 22.841
10.4096 23.013
10.4248 22.911
10.4399 22.686
10.4551 22.792
10.4703 22.689
10.4855 23.025
10.5006 23.105
10.5158 22.963
10.5310 22.752
10.5462 22.789
10.5613 22.662
10.5765 22.701
10.5917 22.875
10.6069 22.708
10.6220 22.418
10.6372 22.381
10.6524 22.669
10.6676 22.822
10.6827 22.732
10.6979 22.489
10.7131 22.249
10.7283 22.599
10.7434 22.652
10.7586 22.571
10.7738 22.552
10.7890 22.481
10.8041 22.069
10.8193 22.054
10.8345 22.255
10.8497 21.994
10.8648 21.989
10.8800 22.175
10.8952 22.043
10.9104 21.863
10.9255 21.945
10.9407 22.195
10.9559 22.512
10.9711 22.433
10.9862 22.172
11.0014 21.821
11.0166 22.210
11.0318 22.092
11.0469 21.972
11.0621 21.878
11.0773 21.973
11.0925 21.605
11.1076 21.917
11.1228 21.611
11.1380 21.629
11.1532 21.562
11.1683 21.430
11.1835 21.632
11.1987 21.940
11.2139 21.563
11.2290 21.397
11.2442 21.716
11.2594 21.649
11.2746 21.773
11.2897 21.702
11.3049 21.755
11.3201 21.650
11.3353 21.651
11.3504 21.643
11.3656 21.506
11.3808 21.440
11.3960 21.434
11.4111 21.675
11.4263 21.588
11.4415 21.168
11.4567 21.189
11.4718 21.047
11.4870 21.136
11.5022 21.223
11.5174 21.259
11.5325 21.174
11.5477 20.915
11.5629 21.252
11.5781 21.320
11.5932 20.940
11.6084 20.985
11.6236 21.389
11.6388 20.763
11.6539 20.914
11.6691 20.873
11.6843 20.615
11.6995 20.881
11.7146 21.038
11.7298 20.561
11.7450 20.411
11.7602 20.275
11.7753 20.227
11.7905 20.300
11.8057 20.117
11.8209 19.884
11.8360 19.729
11.8512 19.868
11.8664 19.853
11.8816 19.844
11.8967 19.743
11.9119 19.652
11.9271 19.460
11.9423 19.726
11.9574 19.625
11.9726 19.123
11.9878 19.240
12.0030 19.231
12.0181 19.340
12.0333 19.257
12.0485 19.058
12.0637 18.956
12.0788 18.960
12.0940 19.296
12.1092 18.587
12.1244 18.726
12.1395 18.684
12.1547 18.474
12.1699 18.704
12.1851 18.459
12.2002 18.394
12.2154 18.515
12.2306 18.113
12.2458 18.179
12.2609 18.017
12.2761 17.878
12.2913 17.920
12.3065 17.472
12.3216 17.389
12.3368 17.469
12.3520 17.527
12.3672 17.435
12.3823 17.446
12.3975 17.524
12.4127 17.199
12.4279 17.031
12.4430 16.849
12.4582 16.913
12.4734 17.008
12.4886 16.710
12.5037 16.441
12.5189 16.787
12.5341 16.843
12.5493 16.803
12.5644 16.469
12.5796 16.354
12.5948 16.414
12.6100 16.263
12.6251 16.124
12.6403 15.991
12.6555 15.858
12.6707 15.715
12.6858 15.597
12.7010 15.418
12.7162 15.576
12.7314 15.686
12.7465 15.293
12.7617 15.316
12.7769 15.347
12.7921 15.286
12.8072 15.097
12.8224 15.058
12.8376 15.123
12.8528 15.065
12.8679 15.105
12.8831 15.105
12.8983 14.900
12.9135 14.766
12.9286 14.623
12.9438 14.591
12.9590 14.681
12.9742 14.606
12.9893 14.591
13.0045 14.479
13.0197 14.294
13.0349 14.055
13.0500 14.027
13.0652 14.066
13.0804 14.092
13.0956 14.140
13.1107 14.092
13.1259 13.917
13.1411 13.592
13.1563 13.566
13.1714 13.619
13.1866 13.722
13.2018 13.602
13.2170 13.225
13.2321 13.427
13.2473 13.475
13.2625 13.362
13.2777 13.429
13.2928 13.293
13.3080 13.205
13.3232 13.017
13.3384 13.104
13.3535 13.255
13.3687 13.141
13.3839 13.246
13.3991 13.215
13.4142 13.026
13.4294 12.943
13.4446 12.642
13.4598 12.634
13.4749 12.679
13.4901 12.699
13.5053 12.685
13.5205 12.526
13.5356 12.638
13.5508 12.534
13.5660 12.530
13.5812 12.324
13.5963 12.251
13.6115 12.433
13.6267 12.626
13.6419 12.435
13.6570 12.303
13.6722 12.157
13.6874 12.167
13.7026 12.324
13.7177 12.113
13.7329 12.095
13.7481 12.007
13.7633 12.055
13.7784 12.159
13.7936 12.287
13.8088 12.361
13.8239 12.274
13.8391 12.455
13.8543 12.331
13.8695 12.288
13.8846 12.394
13.8998 12.191
13.9150 11.705
13.9302 11.948
13.9453 12.042
13.9605 11.894
13.9757 11.630
13.9909 11.700
14.0060 11.867
14.0212 11.625
14.0364 11.469
14.0516 11.242
14.0667 11.356
14.0819 11.627
14.0971 11.641
14.1123 11.441
14.1274 11.358
14.1426 11.314
14.1578 11.162
14.1730 11.386
14.1881 11.193
14.2033 11.300
14.2185 11.371
14.2337 11.466
14.2488 11.337
14.2640 11.423
14.2792 11.475
14.2944 11.840
14.3095 12.186
14.3247 12.033
14.3399 12.251
14.3551 12.560
14.3702 12.833
14.3854 12.975
14.4006 13.093
14.4158 13.255
14.4309 13.293
14.4461 12.779
14.4613 12.800
14.4765 12.707
14.4916 12.264
14.5068 12.330
14.5220 11.690
14.5372 11.708
14.5523 11.559
14.5675 11.477
14.5827 11.407
14.5979 11.140
14.6130 11.207
14.6282 11.059
14.6434 11.101
14.6586 10.765
14.6737 10.772
14.6889 11.174
14.7041 11.161
14.7193 10.884
14.7344 10.950
14.7496 10.974
14.7648 11.031
14.7800 10.878
14.7951 10.748
14.8103 10.829
14.8255 10.595
14.8407 10.819
14.8558 10.703
14.8710 10.942
14.8862 10.454
14.9014 10.729
14.9165 10.886
14.9317 11.052
14.9469 10.490
14.9621 10.843
14.9772 10.575
14.9924 10.364
15.0076 10.058
15.0228 10.539
15.0379 10.669
15.0531 10.337
15.0683 10.334
15.0835 10.329
15.0986 10.357
15.1138 10.704
15.1290 10.233
15.1442 10.011
15.1593 10.212
15.1745 10.294
15.1897 10.347
15.2049 10.265
15.2200 10.061
15.2352 10.472
15.2504 9.955
15.2656 10.197
15.2807 10.127
15.2959 10.372
15.3111 10.317
15.3263 10.375
15.3414 10.418
15.3566 10.328
15.3718 10.072
15.3870 10.379
15.4021 10.100
15.4173 10.616
15.4325 10.464
15.4477 10.424
15.4628 10.381
15.4780 10.098
15.4932 10.269
15.5084 9.888
15.5235 10.631
15.5387 10.693
15.5539 10.221
15.5691 10.287
15.5842 10.237
15.5994 10.233
15.6146 10.312
15.6298 10.188
15.6449 10.182
15.6601 9.826
15.6753 9.889
15.6905 9.829
15.7056 9.908
15.7208 10.166
15.7360 9.954
15.7512 9.754
15.7663 9.859
15.7815 9.730
15.7967 9.852
15.8119 9.706
15.8270 9.985
15.8422 9.752
15.8574 9.758
15.8726 9.885
15.8877 9.565
15.9029 9.707
15.9181 9.684
15.9333 9.687
15.9484 9.770
15.9636 10.043
15.9788 9.973
15.9940 9.940
16.0091 9.652
16.0243 9.753
16.0395 9.553
16.0547 9.501
16.0698 9.511
16.0850 9.574
16.1002 9.781
16.1154 9.819
16.1305 9.899
16.1457 9.859
16.1609 9.961
16.1761 9.928
16.1912 9.730
16.2064 9.634
16.2216 9.797
16.2368 9.815
16.2519 9.641
16.2671 9.610
16.2823 9.685
16.2975 9.837
16.3126 10.023
16.3278 9.883
16.3430 9.822
16.3582 10.030
16.3733 10.183
16.3885 10.318
16.4037 10.466
16.4189 10.334
16.4340 9.926
16.4492 10.045
16.4644 10.153
16.4796 10.188
16.4947 9.908
16.5099 9.756
16.5251 10.040
16.5403 10.070
16.5554 9.928
16.5706 9.766
16.5858 9.792
16.6010 9.748
16.6161 9.696
16.6313 9.643
16.6465 9.832
16.6617 9.988
16.6768 10.012
16.6920 10.035
16.7072 9.911
16.7224 10.200
16.7375 10.227
16.7527 10.171
16.7679 10.016
16.7831 10.027
16.7982 9.899
16.8134 9.815
16.8286 10.150
16.8438 9.935
16.8589 9.665
16.8741 9.967
16.8893 10.132
16.9045 9.851
16.9196 9.629
16.9348 9.823
16.9500 9.898
16.9652 10.024
16.9803 10.131
16.9955 9.922
17.0107 9.901
17.0259 10.214
17.0410 10.208
17.0562 10.145
17.0714 10.277
17.0866 10.458
17.1017 10.643
17.1169 11.057
17.1321 11.345
17.1473 11.409
17.1624 11.895
17.1776 12.393
17.1928 12.945
17.2080 13.959
17.2231 15.170
17.2383 16.270
17.2535 17.573
17.2687 18.699
17.2838 18.835
17.2990 18.093
17.3142 17.001
17.3294 16.426
17.3445 16.271
17.3597 15.904
17.3749 15.739
17.3901 15.340
17.4052 14.148
17.4204 13.189
17.4356 12.350
17.4508 11.644
17.4659 11.655
17.4811 11.423
17.4963 11.261
17.5115 11.091
17.5266 10.671
17.5418 10.736
17.5570 10.622
17.5722 10.575
17.5873 10.737
17.6025 10.737
17.6177 10.606
17.6329 10.527
17.6480 10.552
17.6632 10.537
17.6784 10.672
17.6936 10.598
17.7087 10.600
17.7239 10.701
17.7391 10.598
17.7543 10.645
17.7694 10.607
17.7846 10.636
17.7998 10.889
17.8150 10.999
17.8301 10.985
17.8453 10.810
17.8605 10.667
17.8757 10.765
17.8908 10.923
17.9060 11.159
17.9212 10.929
17.9364 10.578
17.9515 10.397
17.9667 10.222
17.9819 10.482
17.9971 10.544
18.0122 10.551
18.0274 10.546
18.0426 10.187
18.0578 10.017
18.0729 9.989
18.0881 10.111
18.1033 10.399
18.1185 10.405
18.1336 10.238
18.1488 10.062
18.1640 10.106
18.1792 10.003
18.1943 9.843
18.2095 9.772
18.2247 9.925
18.2399 10.138
18.2550 9.938
18.2702 9.755
18.2854 10.012
18.3006 10.262
18.3157 9.988
18.3309 10.005
18.3461 10.146
18.3613 9.976
18.3764 9.810
18.3916 9.802
18.4068 9.896
18.4220 9.967
18.4371 9.846
18.4523 9.865
18.4675 9.886
18.4827 9.849
18.4978 9.805
18.5130 9.621
18.5282 9.808
18.5434 9.810
18.5585 9.875
18.5737 9.998
18.5889 9.813
18.6041 9.924
18.6192 9.917
18.6344 9.801
18.6496 9.785
18.6648 9.828
18.6799 9.878
18.6951 9.731
18.7103 9.797
18.7255 9.858
18.7406 9.584
18.7558 9.695
18.7710 9.911
18.7862 9.952
18.8013 9.905
18.8165 9.719
18.8317 9.835
18.8469 9.941
18.8620 9.808
18.8772 9.802
18.8924 9.834
18.9076 9.641
18.9227 9.693
18.9379 9.915
18.9531 10.077
18.9683 10.071
18.9834 10.128
18.9986 10.047
19.0138 10.223
19.0290 10.251
19.0441 10.418
19.0593 10.473
19.0745 10.234
19.0897 10.318
19.1048 10.455
19.1200 10.471
19.1352 10.540
19.1504 10.611
19.1655 10.586
19.1807 10.458
19.1959 10.512
19.2111 10.546
19.2262 10.781
19.2414 10.930
19.2566 10.683
19.2718 10.685
19.2869 10.810
19.3021 10.904
19.3173 10.940
19.3325 10.980
19.3476 11.036
19.3628 11.185
19.3780 11.172
19.3932 11.148
19.4083 11.382
19.4235 11.411
19.4387 11.464
19.4539 11.473
19.4690 11.457
19.4842 11.424
19.4994 11.494
19.5146 11.639
19.5297 11.590
19.5449 11.546
19.5601 11.594
19.5753 11.522
19.5904 11.551
19.6056 11.613
19.6208 11.758
19.6360 11.848
19.6511 11.745
19.6663 11.515
19.6815 11.427
19.6967 11.542
19.7118 11.659
19.7270 11.668
19.7422 11.758
19.7574 11.800
19.7725 11.722
19.7877 11.574
19.8029 11.638
19.8180 11.891
19.8332 12.116
19.8484 12.433
19.8636 12.591
19.8787 12.690
19.8939 13.106
19.9091 13.160
19.9243 13.509
19.9394 13.875
19.9546 14.098
19.9698 14.412
19.9850 14.594
20.0001 14.522
20.0153 14.528
20.0305 14.332
20.0457 13.875
20.0608 13.941
20.0760 13.839
20.0912 13.614
20.1064 13.615
20.1215 13.557
20.1367 13.201
20.1519 12.932
20.1671 13.006
20.1822 12.684
20.1974 12.508
20.2126 12.559
20.2278 12.704
20.2429 12.740
20.2581 12.424
20.2733 12.077
20.2885 11.848
20.3036 11.733
20.3188 11.795
20.3340 11.818
20.3492 11.713
20.3643 11.622
20.3795 11.486
20.3947 11.292
20.4099 11.057
20.4250 10.934
20.4402 11.078
20.4554 10.836
20.4706 10.570
20.4857 10.720
20.5009 10.741
20.5161 10.777
20.5313 11.078
20.5464 10.969
20.5616 10.755
20.5768 10.632
20.5920 10.772
20.6071 10.829
20.6223 10.778
20.6375 10.677
20.6527 10.706
20.6678 10.696
20.6830 10.535
20.6982 10.568
20.7134 10.417
20.7285 10.724
20.7437 10.533
20.7589 10.549
20.7741 10.307
20.7892 10.324
20.8044 10.490
20.8196 10.329
20.8348 10.224
20.8499 9.937
20.8651 10.495
20.8803 10.475
20.8955 10.405
20.9106 10.543
20.9258 10.126
20.9410 10.116
20.9562 10.293
20.9713 10.178
20.9865 10.336
21.0017 10.308
21.0169 10.642
21.0320 10.329
21.0472 9.845
21.0624 10.059
21.0776 10.257
21.0927 9.988
21.1079 10.012
21.1231 9.538
21.1383 9.648
21.1534 9.904
21.1686 10.000
21.1838 9.984
21.1990 9.694
21.2141 9.914
21.2293 9.836
21.2445 9.701
21.2597 9.684
21.2748 9.480
21.2900 9.535
21.3052 9.602
21.3204 9.949
21.3355 9.597
21.3507 9.433
21.3659 9.624
21.3811 9.619
21.3962 9.347
21.4114 9.413
21.4266 9.613
21.4418 9.510
21.4569 9.180
21.4721 9.068
21.4873 9.062
21.5025 9.529
21.5176 9.261
21.5328 9.467
21.5480 9.084
21.5632 9.376
21.5783 9.108
21.5935 9.280
21.6087 9.311
21.6239 9.285
21.6390 9.198
21.6542 9.409
21.6694 9.159
21.6846 9.006
21.6997 9.056
21.7149 9.048
21.7301 9.015
21.7453 8.971
21.7604 9.302
21.7756 9.263
21.7908 9.198
21.8060 9.120
21.8211 8.985
21.8363 9.029
21.8515 8.960
21.8667 9.030
21.8818 9.074
21.8970 9.037
21.9122 8.972
21.9274 8.900
21.9425 8.991
21.9577 8.924
21.9729 8.810
21.9881 8.793
22.0032 8.915
22.0184 8.858
22.0336 8.655
22.0488 8.670
22.0639 8.650
22.0791 8.721
22.0943 8.780
22.1095 8.785
22.1246 8.714
22.1398 8.797
22.1550 8.810
22.1702 8.741
22.1853 8.638
22.2005 8.480
22.2157 8.337
22.2309 8.553
22.2460 8.714
22.2612 8.661
22.2764 8.569
22.2916 8.725
22.3067 8.870
22.3219 8.438
22.3371 8.618
22.3523 8.848
22.3674 8.535
22.3826 8.673
22.3978 8.425
22.4130 8.331
22.4281 8.674
22.4433 8.537
22.4585 8.431
22.4737 8.310
22.4888 8.554
22.5040 8.538
22.5192 8.719
22.5344 8.459
22.5495 8.514
22.5647 8.477
22.5799 8.546
22.5951 8.532
22.6102 8.521
22.6254 8.394
22.6406 8.579
22.6558 8.539
22.6709 8.524
22.6861 8.276
22.7013 8.495
22.7165 8.054
22.7316 6.249
