'Id: "" Comment: "" Operator: "Lab Manager" Anode: "Mo" Scantype: "Still (Eiger2R_500K (1D mode))" TimePerStep: "300" X: "11.8" Y: "9.4" Z: "11.284" 
7.2532 18.551
7.2684 19.308
7.2836 19.398
7.2987 19.383
7.3139 19.452
7.3291 19.152
7.3443 19.760
7.3594 20.068
7.3746 19.860
7.3898 19.688
7.4050 19.420
7.4201 19.354
7.4353 19.595
7.4505 19.729
7.4657 19.820
7.4808 19.623
7.4960 20.198
7.5112 20.124
7.5264 19.833
7.5415 19.978
7.5567 20.135
7.5719 19.783
7.5871 20.051
7.6022 20.105
7.6174 20.088
7.6326 20.016
7.6478 20.330
7.6629 20.665
7.6781 20.486
7.6933 20.354
7.7085 20.504
7.7236 20.610
7.7388 20.499
7.7540 20.527
7.7692 20.363
7.7843 20.407
7.7995 20.651
7.8147 20.734
7.8299 20.531
7.8450 20.776
7.8602 20.817
7.8754 20.525
7.8905 20.652
7.9057 20.890
7.9209 20.646
7.9361 20.893
7.9512 21.004
7.9664 21.132
7.9816 21.362
7.9968 21.144
8.0119 20.719
8.0271 21.084
8.0423 21.385
8.0575 21.467
8.0726 21.705
8.0878 21.439
8.1030 21.651
8.1182 21.530
8.1333 21.605
8.1485 21.932
8.1637 21.522
8.1789 21.542
8.1940 21.505
8.2092 21.937
8.2244 21.879
8.2396 21.861
8.2547 21.544
8.2699 21.829
8.2851 21.927
8.3003 21.852
8.3154 21.812
8.3306 21.709
8.3458 21.804
8.3610 21.806
8.3761 21.973
8.3913 22.272
8.4065 22.531
8.4217 22.069
8.4368 22.007
8.4520 22.092
8.4672 21.917
8.4824 22.098
8.4975 22.273
8.5127 22.444
8.5279 22.022
8.5431 21.742
8.5582 22.791
8.5734 22.617
8.5886 22.203
8.6038 22.380
8.6189 22.252
8.6341 21.939
8.6493 21.920
8.6645 22.369
8.6796 21.941
8.6948 22.163
8.7100 22.385
8.7252 22.502
8.7403 22.321
8.7555 22.350
8.7707 22.157
8.7859 22.170
8.8010 22.762
8.8162 22.371
8.8314 22.914
8.8466 22.062
8.8617 22.281
8.8769 22.888
8.8921 22.783
8.9073 22.894
8.9224 22.314
8.9376 22.415
8.9528 22.647
8.9680 22.662
8.9831 22.733
8.9983 22.495
9.0135 22.527
9.0287 22.560
9.0438 22.515
9.0590 22.953
9.0742 22.673
9.0894 22.594
9.1045 22.682
9.1197 22.643
9.1349 22.665
9.1501 22.980
9.1652 23.507
9.1804 23.099
9.1956 22.972
9.2108 23.295
9.2259 22.932
9.2411 22.979
9.2563 22.868
9.2715 23.163
9.2866 22.943
9.3018 22.908
9.3170 23.240
9.3322 23.094
9.3473 23.090
9.3625 22.719
9.3777 22.635
9.3929 22.748
9.4080 22.793
9.4232 23.061
9.4384 23.263
9.4536 23.105
9.4687 23.268
9.4839 23.354
9.4991 23.370
9.5143 23.356
9.5294 23.043
9.5446 23.099
9.5598 23.147
9.5750 23.245
9.5901 23.539
9.6053 23.762
9.6205 23.599
9.6357 23.436
9.6508 23.357
9.6660 23.590
9.6812 23.961
9.6964 24.016
9.7115 24.256
9.7267 24.313
9.7419 24.253
9.7571 24.284
9.7722 24.031
9.7874 23.844
9.8026 23.755
9.8178 24.021
9.8329 24.107
9.8481 24.010
9.8633 23.717
9.8785 23.764
9.8936 23.948
9.9088 23.990
9.9240 24.379
9.9392 24.395
9.9543 24.143
9.9695 24.171
9.9847 24.282
9.9999 23.854
10.0150 23.888
10.0302 23.634
10.0454 23.601
10.0606 23.623
10.0757 23.803
10.0909 23.648
10.1061 23.320
10.1213 23.568
10.1364 23.880
10.1516 23.603
10.1668 23.632
10.1820 23.693
10.1971 23.464
10.2123 23.618
10.2275 23.701
10.2427 23.245
10.2578 23.732
10.2730 23.648
10.2882 23.458
10.3034 23.392
10.3185 23.078
10.3337 23.308
10.3489 23.456
10.3641 23.374
10.3792 23.090
10.3944 23.207
10.4096 23.440
10.4248 23.227
10.4399 22.943
10.4551 22.965
10.4703 23.218
10.4855 22.889
10.5006 23.015
10.5158 22.883
10.5310 22.903
10.5462 23.120
10.5613 23.084
10.5765 22.630
10.5917 22.740
10.6069 22.862
10.6220 22.897
10.6372 22.889
10.6524 22.882
10.6676 22.801
10.6827 22.478
10.6979 22.422
10.7131 22.513
10.7283 22.324
10.7434 22.363
10.7586 22.305
10.7738 22.470
10.7890 22.164
10.8041 22.297
10.8193 22.599
10.8345 22.442
10.8497 22.134
10.8648 22.073
10.8800 22.137
10.8952 22.451
10.9104 22.483
10.9255 22.220
10.9407 21.847
10.9559 21.901
10.9711 21.766
10.9862 21.894
11.0014 21.823
11.0166 22.101
11.0318 22.244
11.0469 21.768
11.0621 21.770
11.0773 21.664
11.0925 21.919
11.1076 21.992
11.1228 21.703
11.1380 21.644
11.1532 21.475
11.1683 21.547
11.1835 21.802
11.1987 21.723
11.2139 21.913
11.2290 21.732
11.2442 21.633
11.2594 21.825
11.2746 21.595
11.2897 21.528
11.3049 21.601
11.3201 21.676
11.3353 21.536
11.3504 21.766
11.3656 21.434
11.3808 21.397
11.3960 21.421
11.4111 20.920
11.4263 21.349
11.4415 21.227
11.4567 20.960
11.4718 21.153
11.4870 21.252
11.5022 21.465
11.5174 21.161
11.5325 20.992
11.5477 21.378
11.5629 21.505
11.5781 21.205
11.5932 20.943
11.6084 21.078
11.6236 20.876
11.6388 21.299
11.6539 21.109
11.6691 20.754
11.6843 20.721
11.6995 20.525
11.7146 20.502
11.7298 20.589
11.7450 20.302
11.7602 20.391
11.7753 20.203
11.7905 20.388
11.8057 20.511
11.8209 20.197
11.8360 19.803
11.8512 19.779
11.8664 19.765
11.8816 19.631
11.8967 19.816
11.9119 19.922
11.9271 19.588
11.9423 19.483
11.9574 18.892
11.9726 18.909
11.9878 19.091
12.0030 19.078
12.0181 18.984
12.0333 18.915
12.0485 18.894
12.0637 18.835
12.0788 19.147
12.0940 18.985
12.1092 18.758
12.1244 18.508
12.1395 18.634
12.1547 18.822
12.1699 18.426
12.1851 18.341
12.2002 18.298
12.2154 18.120
12.2306 18.044
12.2458 18.000
12.2609 18.020
12.2761 17.917
12.2913 17.658
12.3065 17.648
12.3216 17.637
12.3368 17.684
12.3520 17.445
12.3672 17.112
12.3823 17.069
12.3975 17.063
12.4127 17.002
12.4279 17.125
12.4430 17.048
12.4582 16.858
12.4734 16.573
12.4886 16.362
12.5037 16.509
12.5189 16.775
12.5341 16.618
12.5493 16.199
12.5644 16.157
12.5796 16.182
12.5948 16.091
12.6100 15.953
12.6251 15.887
12.6403 15.669
12.6555 15.849
12.6707 15.965
12.6858 15.780
12.7010 15.883
12.7162 15.531
12.7314 15.520
12.7465 15.389
12.7617 15.256
12.7769 15.480
12.7921 15.048
12.8072 14.909
12.8224 15.142
12.8376 14.985
12.8528 15.028
12.8679 14.864
12.8831 14.631
12.8983 14.512
12.9135 14.368
12.9286 14.673
12.9438 14.621
12.9590 14.275
12.9742 14.263
12.9893 14.144
13.0045 14.115
13.0197 14.233
13.0349 14.218
13.0500 14.121
13.0652 13.973
13.0804 13.706
13.0956 13.390
13.1107 13.426
13.1259 13.594
13.1411 13.736
13.1563 13.714
13.1714 13.526
13.1866 13.520
13.2018 13.508
13.2170 13.330
13.2321 13.231
13.2473 13.140
13.2625 12.865
13.2777 12.975
13.2928 13.318
13.3080 13.416
13.3232 13.355
13.3384 13.269
13.3535 13.319
13.3687 13.172
13.3839 12.955
13.3991 13.001
13.4142 13.001
13.4294 12.921
13.4446 12.804
13.4598 12.667
13.4749 12.564
13.4901 12.586
13.5053 12.527
13.5205 12.370
13.5356 12.246
13.5508 12.261
13.5660 12.228
13.5812 12.439
13.5963 12.585
13.6115 12.333
13.6267 12.092
13.6419 12.084
13.6570 11.920
13.6722 11.917
13.6874 12.073
13.7026 11.882
13.7177 11.833
13.7329 11.736
13.7481 11.909
13.7633 12.064
13.7784 12.217
13.7936 12.281
13.8088 11.933
13.8239 12.040
13.8391 12.386
13.8543 12.361
13.8695 12.327
13.8846 12.278
13.8998 12.112
13.9150 12.231
13.9302 11.819
13.9453 11.906
13.9605 12.088
13.9757 11.756
13.9909 11.619
14.0060 11.541
14.0212 11.376
14.0364 11.300
14.0516 11.111
14.0667 11.211
14.0819 11.510
14.0971 11.393
14.1123 11.267
14.1274 11.349
14.1426 11.285
14.1578 11.148
14.1730 11.177
14.1881 11.341
14.2033 11.196
14.2185 11.123
14.2337 11.256
14.2488 11.444
14.2640 11.575
14.2792 11.290
14.2944 11.309
14.3095 11.480
14.3247 11.698
14.3399 11.957
14.3551 11.983
14.3702 12.124
14.3854 12.480
14.4006 12.824
14.4158 13.036
14.4309 13.423
14.4461 13.469
14.4613 13.399
14.4765 13.330
14.4916 13.412
14.5068 13.151
14.5220 13.543
14.5372 13.629
14.5523 13.355
14.5675 12.821
14.5827 13.042
14.5979 12.641
14.6130 12.375
14.6282 12.068
14.6434 11.954
14.6586 12.202
14.6737 11.653
14.6889 11.565
14.7041 11.157
14.7193 11.389
14.7344 11.462
14.7496 11.210
14.7648 11.383
14.7800 11.051
14.7951 11.107
14.8103 11.263
14.8255 11.458
14.8407 11.171
14.8558 10.867
14.8710 10.976
14.8862 11.020
14.9014 11.166
14.9165 11.335
14.9317 11.389
14.9469 10.742
14.9621 10.686
14.9772 10.687
14.9924 10.388
15.0076 10.368
15.0228 10.542
15.0379 10.780
15.0531 10.899
15.0683 10.614
15.0835 10.564
15.0986 10.232
15.1138 10.606
15.1290 10.566
15.1442 10.961
15.1593 10.265
15.1745 10.300
15.1897 10.579
15.2049 10.230
15.2200 10.388
15.2352 10.764
15.2504 10.427
15.2656 10.342
15.2807 10.605
15.2959 10.384
15.3111 10.280
15.3263 10.337
15.3414 10.097
15.3566 10.207
15.3718 10.370
15.3870 10.179
15.4021 10.119
15.4173 10.861
15.4325 9.946
15.4477 10.408
15.4628 10.283
15.4780 10.442
15.4932 10.257
15.5084 10.478
15.5235 10.368
15.5387 10.447
15.5539 10.367
15.5691 10.475
15.5842 10.612
15.5994 10.507
15.6146 10.504
15.6298 10.238
15.6449 10.072
15.6601 10.280
15.6753 10.165
15.6905 9.969
15.7056 10.382
15.7208 10.030
15.7360 9.940
15.7512 9.645
15.7663 10.105
15.7815 10.198
15.7967 10.099
15.8119 9.952
15.8270 10.079
15.8422 9.749
15.8574 9.714
15.8726 9.588
15.8877 9.725
15.9029 9.500
15.9181 9.831
15.9333 9.952
15.9484 9.844
15.9636 9.698
15.9788 9.838
15.9940 9.716
16.0091 9.700
16.0243 9.747
16.0395 9.904
16.0547 9.949
16.0698 10.140
16.0850 10.106
16.1002 9.822
16.1154 9.715
16.1305 9.742
16.1457 9.759
16.1609 9.807
16.1761 9.494
16.1912 9.572
16.2064 9.925
16.2216 9.921
16.2368 9.954
16.2519 10.038
16.2671 9.922
16.2823 10.142
16.2975 10.181
16.3126 10.096
16.3278 10.042
16.3430 10.040
16.3582 10.125
16.3733 10.251
16.3885 10.163
16.4037 10.456
16.4189 10.389
16.4340 10.416
16.4492 10.150
16.4644 10.056
16.4796 10.022
16.4947 9.960
16.5099 10.109
16.5251 9.732
16.5403 9.922
16.5554 9.978
16.5706 9.730
16.5858 9.798
16.6010 9.700
16.6161 10.082
16.6313 10.177
16.6465 9.899
16.6617 9.908
16.6768 9.870
16.6920 9.808
16.7072 9.865
16.7224 10.048
16.7375 10.170
16.7527 10.260
16.7679 10.186
16.7831 10.143
16.7982 10.118
16.8134 9.817
16.8286 9.943
16.8438 10.072
16.8589 9.862
16.8741 9.678
16.8893 9.750
16.9045 9.794
16.9196 9.895
16.9348 9.834
16.9500 9.821
16.9652 9.902
16.9803 10.049
16.9955 10.101
17.0107 9.953
17.0259 10.018
17.0410 9.956
17.0562 9.844
17.0714 10.427
17.0866 10.764
17.1017 10.698
17.1169 10.735
17.1321 10.965
17.1473 11.480
17.1624 11.748
17.1776 12.225
17.1928 13.119
17.2080 13.914
17.2231 14.897
17.2383 16.350
17.2535 17.749
17.2687 18.499
17.2838 18.854
17.2990 18.383
17.3142 17.083
17.3294 16.071
17.3445 16.067
17.3597 16.232
17.3749 16.014
17.3901 15.537
17.4052 14.345
17.4204 13.141
17.4356 12.376
17.4508 11.734
17.4659 11.409
17.4811 11.248
17.4963 11.071
17.5115 10.727
17.5266 10.552
17.5418 10.757
17.5570 10.532
17.5722 10.449
17.5873 10.618
17.6025 10.411
17.6177 10.085
17.6329 9.957
17.6480 10.085
17.6632 10.030
17.6784 10.117
17.6936 10.349
17.7087 10.441
17.7239 10.623
17.7391 10.641
17.7543 10.536
17.7694 10.600
17.7846 11.074
17.7998 11.525
17.8150 11.957
17.8301 12.263
17.8453 12.384
17.8605 12.804
17.8757 12.934
17.8908 12.875
17.9060 12.771
17.9212 12.441
17.9364 12.232
17.9515 12.181
17.9667 11.951
17.9819 11.718
17.9971 11.296
18.0122 11.188
18.0274 10.958
18.0426 10.565
18.0578 10.369
18.0729 10.361
18.0881 10.392
18.1033 10.085
18.1185 10.007
18.1336 10.134
18.1488 10.084
18.1640 10.170
18.1792 9.894
18.1943 9.780
18.2095 9.963
18.2247 10.156
18.2399 9.949
18.2550 9.994
18.2702 10.127
18.2854 10.039
18.3006 9.990
18.3157 9.949
18.3309 9.930
18.3461 10.017
18.3613 9.835
18.3764 10.082
18.3916 9.980
18.4068 9.840
18.4220 9.976
18.4371 10.046
18.4523 10.008
18.4675 9.984
18.4827 10.074
18.4978 9.816
18.5130 9.839
18.5282 9.841
18.5434 9.812
18.5585 9.756
18.5737 9.883
18.5889 9.977
18.6041 9.846
18.6192 9.894
18.6344 9.659
18.6496 9.539
18.6648 9.829
18.6799 9.953
18.6951 9.889
18.7103 9.865
18.7255 9.893
18.7406 9.986
18.7558 9.815
18.7710 9.854
18.7862 9.637
18.8013 9.466
18.8165 9.713
18.8317 10.116
18.8469 10.114
18.8620 9.861
18.8772 9.923
18.8924 10.053
18.9076 10.108
18.9227 9.977
18.9379 9.945
18.9531 9.996
18.9683 9.976
18.9834 9.996
18.9986 10.015
19.0138 9.941
19.0290 10.240
19.0441 10.183
19.0593 10.344
19.0745 10.473
19.0897 10.171
19.1048 10.295
19.1200 10.415
19.1352 10.485
19.1504 10.537
19.1655 10.613
19.1807 10.693
19.1959 10.529
19.2111 10.556
19.2262 10.708
19.2414 10.723
19.2566 10.845
19.2718 11.046
19.2869 10.890
19.3021 10.868
19.3173 11.050
19.3325 11.042
19.3476 10.979
19.3628 11.159
19.3780 11.128
19.3932 11.166
19.4083 11.131
19.4235 11.181
19.4387 11.475
19.4539 11.317
19.4690 11.191
19.4842 11.337
19.4994 11.264
19.5146 11.280
19.5297 11.479
19.5449 11.654
19.5601 11.801
19.5753 11.813
19.5904 11.658
19.6056 11.655
19.6208 11.720
19.6360 11.518
19.6511 11.478
19.6663 11.660
19.6815 11.698
19.6967 11.677
19.7118 11.694
19.7270 11.767
19.7422 11.735
19.7574 11.702
19.7725 11.845
19.7877 11.687
19.8029 11.677
19.8180 11.860
19.8332 12.119
19.8484 12.318
19.8636 12.092
19.8787 12.377
19.8939 12.693
19.9091 12.885
19.9243 13.406
19.9394 13.783
19.9546 14.132
19.9698 14.538
19.9850 14.736
20.0001 14.794
20.0153 14.651
20.0305 14.249
20.0457 13.781
20.0608 13.875
20.0760 14.102
20.0912 13.992
20.1064 13.761
20.1215 13.509
20.1367 13.236
20.1519 12.930
20.1671 12.570
20.1822 12.405
20.1974 12.560
20.2126 12.524
20.2278 12.464
20.2429 12.314
20.2581 12.272
20.2733 11.960
20.2885 11.731
20.3036 11.732
20.3188 11.433
20.3340 11.349
20.3492 11.302
20.3643 11.318
20.3795 11.257
20.3947 11.452
20.4099 11.322
20.4250 11.062
20.4402 11.248
20.4554 11.275
20.4706 10.973
20.4857 10.714
20.5009 10.614
20.5161 10.696
20.5313 10.943
20.5464 10.865
20.5616 10.772
20.5768 10.994
20.5920 10.966
20.6071 10.924
20.6223 10.861
20.6375 11.024
20.6527 10.935
20.6678 10.966
20.6830 10.961
20.6982 10.865
20.7134 10.830
20.7285 10.833
20.7437 10.809
20.7589 10.872
20.7741 10.722
20.7892 10.490
20.8044 10.468
20.8196 10.286
20.8348 10.613
20.8499 10.296
20.8651 10.649
20.8803 10.759
20.8955 10.390
20.9106 10.482
20.9258 10.568
20.9410 10.702
20.9562 10.863
20.9713 10.738
20.9865 10.603
21.0017 10.625
21.0169 11.024
21.0320 10.561
21.0472 10.344
21.0624 10.308
21.0776 10.344
21.0927 10.347
21.1079 10.124
21.1231 10.233
21.1383 10.499
21.1534 9.796
21.1686 9.936
21.1838 9.628
21.1990 9.808
21.2141 9.965
21.2293 9.607
21.2445 10.133
21.2597 9.692
21.2748 9.723
21.2900 9.581
21.3052 10.080
21.3204 9.641
21.3355 9.412
21.3507 9.541
21.3659 9.452
21.3811 9.493
21.3962 9.266
21.4114 9.695
21.4266 9.589
21.4418 9.378
21.4569 9.246
21.4721 9.542
21.4873 9.714
21.5025 9.298
21.5176 9.127
21.5328 9.143
21.5480 9.087
21.5632 9.164
21.5783 9.004
21.5935 9.158
21.6087 9.306
21.6239 9.302
21.6390 8.966
21.6542 9.288
21.6694 9.293
21.6846 9.343
21.6997 9.135
21.7149 8.876
21.7301 9.239
21.7453 8.800
21.7604 8.872
21.7756 8.947
21.7908 8.931
21.8060 8.968
21.8211 8.984
21.8363 8.925
21.8515 9.065
21.8667 9.043
21.8818 9.134
21.8970 9.001
21.9122 9.073
21.9274 9.197
21.9425 9.127
21.9577 8.927
21.9729 8.823
21.9881 8.837
22.0032 8.697
22.0184 8.669
22.0336 8.552
22.0488 8.625
22.0639 8.794
22.0791 8.651
22.0943 8.558
22.1095 8.770
22.1246 8.593
22.1398 8.494
22.1550 8.615
22.1702 8.811
22.1853 8.780
22.2005 8.632
22.2157 8.732
22.2309 8.726
22.2460 8.632
22.2612 8.574
22.2764 8.578
22.2916 8.685
22.3067 8.753
22.3219 8.582
22.3371 8.630
22.3523 8.335
22.3674 8.594
22.3826 8.580
22.3978 8.583
22.4130 8.485
22.4281 8.227
22.4433 8.361
22.4585 8.534
22.4737 8.309
22.4888 8.475
22.5040 8.574
22.5192 8.440
22.5344 8.690
22.5495 8.424
22.5647 8.645
22.5799 8.556
22.5951 8.533
22.6102 8.533
22.6254 8.592
22.6406 8.454
22.6558 8.371
22.6709 8.128
22.6861 8.324
22.7013 8.122
22.7165 7.955
22.7316 6.372
