'Id: "" Comment: "" Operator: "Lab Manager" Anode: "Mo" Scantype: "Still (Eiger2R_500K (1D mode))" TimePerStep: "300" X: "11.8" Y: "9.4" Z: "11.284" 
7.2532 18.964
7.2684 19.198
7.2836 19.266
7.2987 19.291
7.3139 19.831
7.3291 19.494
7.3443 19.874
7.3594 19.733
7.3746 19.684
7.3898 19.797
7.4050 19.631
7.4201 19.828
7.4353 19.780
7.4505 19.692
7.4657 19.929
7.4808 19.886
7.4960 19.711
7.5112 19.689
7.5264 20.082
7.5415 19.736
7.5567 19.912
7.5719 19.925
7.5871 20.075
7.6022 20.167
7.6174 20.309
7.6326 20.298
7.6478 20.017
7.6629 20.136
7.6781 19.785
7.6933 20.118
7.7085 20.520
7.7236 20.355
7.7388 20.602
7.7540 20.828
7.7692 20.676
7.7843 20.317
7.7995 20.384
7.8147 20.690
7.8299 20.607
7.8450 20.747
7.8602 21.042
7.8754 21.106
7.8905 21.168
7.9057 20.988
7.9209 21.063
7.9361 21.143
7.9512 21.010
7.9664 21.257
7.9816 21.452
7.9968 21.435
8.0119 20.991
8.0271 21.246
8.0423 21.459
8.0575 21.403
8.0726 21.353
8.0878 21.477
8.1030 21.563
8.1182 21.514
8.1333 21.610
8.1485 21.372
8.1637 21.856
8.1789 21.622
8.1940 21.911
8.2092 21.858
8.2244 21.967
8.2396 22.101
8.2547 21.836
8.2699 21.625
8.2851 22.055
8.3003 22.218
8.3154 21.871
8.3306 22.243
8.3458 22.182
8.3610 21.964
8.3761 22.146
8.3913 22.120
8.4065 22.043
8.4217 22.037
8.4368 22.340
8.4520 22.061
8.4672 22.091
8.4824 22.300
8.4975 22.074
8.5127 22.676
8.5279 22.489
8.5431 22.497
8.5582 22.535
8.5734 22.201
8.5886 21.922
8.6038 22.436
8.6189 22.216
8.6341 22.599
8.6493 22.448
8.6645 22.772
8.6796 23.184
8.6948 22.609
8.7100 22.336
8.7252 22.741
8.7403 22.633
8.7555 22.598
8.7707 23.024
8.7859 23.075
8.8010 22.858
8.8162 22.507
8.8314 22.368
8.8466 23.221
8.8617 22.781
8.8769 23.258
8.8921 23.117
8.9073 22.352
8.9224 22.861
8.9376 22.685
8.9528 22.838
8.9680 22.735
8.9831 22.822
8.9983 22.858
9.0135 22.504
9.0287 23.304
9.0438 23.288
9.0590 22.927
9.0742 23.055
9.0894 23.299
9.1045 23.298
9.1197 22.944
9.1349 22.861
9.1501 22.712
9.1652 22.805
9.1804 23.065
9.1956 23.561
9.2108 23.503
9.2259 23.011
9.2411 23.163
9.2563 22.826
9.2715 22.989
9.2866 23.379
9.3018 23.477
9.3170 22.920
9.3322 23.148
9.3473 23.555
9.3625 23.224
9.3777 23.133
9.3929 23.033
9.4080 23.200
9.4232 23.276
9.4384 23.268
9.4536 23.302
9.4687 23.559
9.4839 23.588
9.4991 23.303
9.5143 23.434
9.5294 23.548
9.5446 23.358
9.5598 23.380
9.5750 23.579
9.5901 23.669
9.6053 23.502
9.6205 23.403
9.6357 23.618
9.6508 23.769
9.6660 23.897
9.6812 23.915
9.6964 24.474
9.7115 24.782
9.7267 24.697
9.7419 24.530
9.7571 24.539
9.7722 24.367
9.7874 24.153
9.8026 24.094
9.8178 24.142
9.8329 24.122
9.8481 23.807
9.8633 23.946
9.8785 24.035
9.8936 24.041
9.9088 24.693
9.9240 24.816
9.9392 24.156
9.9543 23.992
9.9695 24.026
9.9847 23.889
9.9999 23.799
10.0150 23.902
10.0302 23.884
10.0454 23.635
10.0606 23.593
10.0757 24.026
10.0909 23.970
10.1061 23.661
10.1213 23.551
10.1364 23.895
10.1516 23.886
10.1668 23.889
10.1820 24.094
10.1971 23.951
10.2123 23.903
10.2275 23.601
10.2427 23.405
10.2578 23.154
10.2730 23.529
10.2882 23.812
10.3034 23.707
10.3185 23.780
10.3337 23.489
10.3489 23.602
10.3641 23.607
10.3792 23.428
10.3944 22.975
10.4096 23.173
10.4248 23.221
10.4399 23.580
10.4551 23.623
10.4703 23.610
10.4855 23.167
10.5006 23.157
10.5158 23.107
10.5310 23.340
10.5462 23.383
10.5613 23.225
10.5765 22.949
10.5917 22.865
10.6069 22.718
10.6220 22.891
10.6372 22.772
10.6524 22.951
10.6676 23.145
10.6827 23.064
10.6979 23.041
10.7131 22.809
10.7283 22.847
10.7434 22.915
10.7586 22.431
10.7738 22.506
10.7890 22.839
10.8041 22.580
10.8193 22.497
10.8345 22.262
10.8497 22.347
10.8648 22.420
10.8800 22.709
10.8952 22.801
10.9104 22.581
10.9255 22.362
10.9407 22.551
10.9559 22.363
10.9711 22.120
10.9862 22.086
11.0014 22.071
11.0166 22.385
11.0318 22.404
11.0469 22.107
11.0621 21.980
11.0773 21.952
11.0925 21.849
11.1076 22.166
11.1228 22.007
11.1380 21.999
11.1532 21.840
11.1683 21.575
11.1835 21.915
11.1987 21.848
11.2139 21.577
11.2290 21.591
11.2442 21.561
11.2594 21.719
11.2746 21.626
11.2897 21.635
11.3049 21.495
11.3201 21.613
11.3353 21.756
11.3504 21.426
11.3656 21.508
11.3808 21.479
11.3960 21.347
11.4111 21.616
11.4263 21.759
11.4415 21.485
11.4567 21.549
11.4718 21.504
11.4870 21.332
11.5022 21.579
11.5174 21.652
11.5325 21.787
11.5477 21.603
11.5629 21.408
11.5781 21.475
11.5932 21.585
11.6084 21.424
11.6236 21.056
11.6388 21.093
11.6539 21.361
11.6691 20.848
11.6843 20.688
11.6995 20.525
11.7146 20.579
11.7298 20.514
11.7450 20.685
11.7602 20.802
11.7753 20.161
11.7905 20.415
11.8057 20.451
11.8209 20.151
11.8360 19.782
11.8512 20.138
11.8664 19.982
11.8816 19.617
11.8967 19.756
11.9119 19.796
11.9271 19.696
11.9423 19.586
11.9574 19.422
11.9726 19.147
11.9878 19.167
12.0030 19.491
12.0181 19.232
12.0333 19.342
12.0485 19.239
12.0637 18.951
12.0788 19.026
12.0940 19.026
12.1092 18.747
12.1244 18.774
12.1395 18.903
12.1547 18.858
12.1699 18.873
12.1851 18.550
12.2002 18.272
12.2154 18.160
12.2306 18.240
12.2458 18.134
12.2609 18.246
12.2761 18.131
12.2913 18.099
12.3065 17.783
12.3216 17.833
12.3368 17.875
12.3520 17.571
12.3672 17.315
12.3823 17.443
12.3975 17.269
12.4127 17.519
12.4279 17.260
12.4430 17.052
12.4582 17.166
12.4734 17.112
12.4886 17.021
12.5037 16.711
12.5189 16.820
12.5341 16.801
12.5493 16.714
12.5644 16.452
12.5796 16.305
12.5948 16.294
12.6100 16.357
12.6251 16.388
12.6403 15.807
12.6555 15.796
12.6707 15.998
12.6858 15.707
12.7010 15.592
12.7162 15.674
12.7314 15.859
12.7465 15.662
12.7617 15.340
12.7769 15.308
12.7921 15.228
12.8072 15.249
12.8224 14.948
12.8376 14.738
12.8528 14.795
12.8679 14.883
12.8831 14.957
12.8983 15.079
12.9135 15.044
12.9286 14.948
12.9438 14.724
12.9590 14.409
12.9742 14.303
12.9893 14.582
13.0045 14.651
13.0197 14.298
13.0349 13.990
13.0500 13.769
13.0652 13.809
13.0804 14.010
13.0956 13.982
13.1107 13.609
13.1259 13.701
13.1411 13.922
13.1563 14.012
13.1714 14.137
13.1866 13.984
13.2018 13.831
13.2170 13.554
13.2321 13.378
13.2473 13.232
13.2625 13.201
13.2777 13.493
13.2928 13.650
13.3080 13.407
13.3232 13.230
13.3384 13.348
13.3535 13.213
13.3687 13.101
13.3839 13.236
13.3991 13.351
13.4142 13.220
13.4294 12.942
13.4446 12.628
13.4598 12.633
13.4749 12.910
13.4901 12.906
13.5053 12.832
13.5205 12.618
13.5356 12.478
13.5508 12.500
13.5660 12.499
13.5812 12.666
13.5963 12.577
13.6115 12.468
13.6267 12.295
13.6419 12.268
13.6570 12.095
13.6722 12.096
13.6874 12.042
13.7026 12.274
13.7177 12.411
13.7329 12.127
13.7481 12.192
13.7633 12.343
13.7784 12.015
13.7936 12.079
13.8088 12.162
13.8239 12.351
13.8391 12.251
13.8543 12.407
13.8695 12.216
13.8846 12.142
13.8998 12.308
13.9150 12.333
13.9302 12.170
13.9453 12.037
13.9605 11.672
13.9757 11.470
13.9909 11.385
14.0060 11.452
14.0212 11.467
14.0364 11.472
14.0516 11.591
14.0667 11.590
14.0819 11.567
14.0971 11.473
14.1123 11.553
14.1274 11.592
14.1426 11.412
14.1578 11.317
14.1730 11.433
14.1881 11.340
14.2033 11.232
14.2185 11.407
14.2337 11.675
14.2488 11.563
14.2640 11.554
14.2792 11.461
14.2944 11.733
14.3095 11.685
14.3247 12.048
14.3399 12.209
14.3551 12.529
14.3702 12.899
14.3854 13.207
14.4006 13.920
14.4158 14.281
14.4309 14.361
14.4461 14.822
14.4613 15.000
14.4765 14.435
14.4916 13.974
14.5068 13.756
14.5220 13.631
14.5372 13.354
14.5523 12.766
14.5675 12.631
14.5827 11.936
14.5979 11.713
14.6130 11.508
14.6282 11.409
14.6434 11.346
14.6586 11.435
14.6737 11.216
14.6889 11.135
14.7041 11.279
14.7193 10.928
14.7344 11.140
14.7496 11.200
14.7648 11.262
14.7800 11.156
14.7951 11.092
14.8103 11.245
14.8255 11.289
14.8407 11.505
14.8558 11.326
14.8710 11.292
14.8862 11.210
14.9014 11.205
14.9165 11.138
14.9317 11.159
14.9469 11.098
14.9621 10.842
14.9772 10.563
14.9924 11.007
15.0076 10.965
15.0228 10.499
15.0379 10.530
15.0531 10.769
15.0683 10.626
15.0835 10.590
15.0986 10.483
15.1138 10.587
15.1290 10.658
15.1442 10.236
15.1593 10.477
15.1745 10.503
15.1897 10.465
15.2049 10.339
15.2200 10.166
15.2352 10.271
15.2504 10.499
15.2656 10.424
15.2807 10.156
15.2959 10.372
15.3111 10.074
15.3263 10.191
15.3414 10.414
15.3566 10.727
15.3718 10.226
15.3870 10.193
15.4021 10.388
15.4173 10.444
15.4325 10.641
15.4477 10.508
15.4628 10.372
15.4780 10.556
15.4932 10.427
15.5084 10.584
15.5235 10.414
15.5387 10.452
15.5539 10.580
15.5691 10.211
15.5842 10.199
15.5994 10.210
15.6146 10.233
15.6298 10.515
15.6449 10.253
15.6601 10.250
15.6753 10.183
15.6905 10.023
15.7056 10.221
15.7208 9.876
15.7360 10.077
15.7512 10.194
15.7663 10.093
15.7815 10.250
15.7967 9.899
15.8119 9.922
15.8270 10.021
15.8422 10.124
15.8574 9.872
15.8726 9.802
15.8877 9.907
15.9029 9.606
15.9181 9.889
15.9333 9.791
15.9484 10.051
15.9636 10.011
15.9788 9.750
15.9940 9.816
16.0091 9.955
16.0243 9.994
16.0395 9.834
16.0547 9.800
16.0698 9.773
16.0850 9.790
16.1002 9.931
16.1154 9.594
16.1305 9.642
16.1457 9.731
16.1609 9.842
16.1761 9.853
16.1912 9.868
16.2064 9.920
16.2216 9.950
16.2368 9.986
16.2519 10.044
16.2671 10.354
16.2823 10.152
16.2975 9.927
16.3126 10.147
16.3278 10.286
16.3430 10.346
16.3582 10.259
16.3733 10.057
16.3885 9.985
16.4037 10.221
16.4189 9.751
16.4340 9.872
16.4492 10.027
16.4644 9.955
16.4796 9.996
16.4947 9.848
16.5099 10.142
16.5251 10.010
16.5403 10.104
16.5554 9.976
16.5706 9.872
16.5858 9.932
16.6010 9.878
16.6161 9.953
16.6313 9.974
16.6465 10.166
16.6617 10.051
16.6768 9.924
16.6920 10.165
16.7072 10.177
16.7224 10.248
16.7375 10.154
16.7527 10.000
16.7679 10.082
16.7831 10.168
16.7982 10.111
16.8134 10.121
16.8286 10.122
16.8438 9.996
16.8589 10.078
16.8741 9.945
16.8893 9.938
16.9045 9.939
16.9196 9.771
16.9348 9.802
16.9500 9.926
16.9652 10.295
16.9803 10.190
16.9955 10.168
17.0107 10.066
17.0259 10.142
17.0410 10.271
17.0562 10.154
17.0714 10.623
17.0866 10.933
17.1017 10.687
17.1169 10.819
17.1321 11.081
17.1473 11.210
17.1624 11.734
17.1776 12.537
17.1928 13.402
17.2080 14.247
17.2231 15.080
17.2383 16.486
17.2535 18.185
17.2687 19.046
17.2838 18.878
17.2990 18.145
17.3142 17.242
17.3294 16.388
17.3445 16.033
17.3597 16.106
17.3749 15.776
17.3901 15.178
17.4052 14.183
17.4204 13.054
17.4356 12.330
17.4508 11.763
17.4659 11.588
17.4811 11.546
17.4963 11.277
17.5115 11.038
17.5266 10.846
17.5418 10.606
17.5570 10.530
17.5722 10.508
17.5873 10.434
17.6025 10.598
17.6177 10.785
17.6329 10.706
17.6480 10.666
17.6632 10.824
17.6784 11.209
17.6936 11.525
17.7087 11.790
17.7239 12.080
17.7391 12.150
17.7543 12.277
17.7694 12.403
17.7846 12.441
17.7998 12.630
17.8150 12.680
17.8301 12.511
17.8453 12.545
17.8605 12.609
17.8757 12.475
17.8908 12.052
17.9060 11.802
17.9212 11.734
17.9364 11.429
17.9515 11.361
17.9667 11.237
17.9819 11.244
17.9971 11.063
18.0122 10.828
18.0274 10.597
18.0426 10.666
18.0578 10.518
18.0729 10.394
18.0881 10.490
18.1033 10.299
18.1185 10.266
18.1336 10.262
18.1488 10.169
18.1640 10.236
18.1792 10.271
18.1943 10.117
18.2095 10.189
18.2247 10.298
18.2399 10.200
18.2550 10.008
18.2702 10.030
18.2854 10.268
18.3006 10.160
18.3157 10.020
18.3309 9.936
18.3461 9.978
18.3613 10.195
18.3764 10.023
18.3916 9.962
18.4068 9.870
18.4220 9.872
18.4371 9.913
18.4523 9.974
18.4675 9.836
18.4827 9.758
18.4978 9.753
18.5130 9.914
18.5282 9.989
18.5434 10.128
18.5585 10.108
18.5737 9.850
18.5889 9.910
18.6041 9.950
18.6192 9.864
18.6344 9.818
18.6496 9.776
18.6648 10.024
18.6799 9.976
18.6951 9.925
18.7103 9.922
18.7255 9.922
18.7406 9.974
18.7558 9.785
18.7710 9.899
18.7862 9.916
18.8013 9.938
18.8165 9.754
18.8317 9.843
18.8469 9.904
18.8620 9.831
18.8772 9.954
18.8924 10.204
18.9076 10.145
18.9227 9.985
18.9379 10.022
18.9531 10.177
18.9683 9.998
18.9834 10.104
18.9986 10.194
19.0138 10.205
19.0290 10.259
19.0441 10.345
19.0593 10.321
19.0745 10.139
19.0897 10.270
19.1048 10.491
19.1200 10.643
19.1352 10.560
19.1504 10.650
19.1655 10.808
19.1807 10.740
19.1959 10.832
19.2111 10.848
19.2262 10.803
19.2414 10.838
19.2566 10.917
19.2718 11.000
19.2869 11.206
19.3021 10.953
19.3173 10.977
19.3325 11.278
19.3476 11.123
19.3628 11.146
19.3780 11.402
19.3932 11.277
19.4083 11.223
19.4235 11.407
19.4387 11.321
19.4539 11.265
19.4690 11.424
19.4842 11.586
19.4994 11.287
19.5146 11.301
19.5297 11.622
19.5449 11.729
19.5601 11.464
19.5753 11.421
19.5904 11.655
19.6056 11.907
19.6208 11.975
19.6360 11.791
19.6511 11.563
19.6663 11.572
19.6815 11.600
19.6967 11.618
19.7118 11.714
19.7270 11.651
19.7422 11.719
19.7574 11.694
19.7725 11.569
19.7877 11.730
19.8029 11.735
19.8180 11.822
19.8332 11.998
19.8484 12.136
19.8636 12.254
19.8787 12.419
19.8939 13.152
19.9091 13.142
19.9243 13.240
19.9394 13.905
19.9546 14.200
19.9698 14.531
19.9850 14.642
20.0001 14.677
20.0153 14.595
20.0305 14.280
20.0457 14.051
20.0608 13.967
20.0760 14.014
20.0912 13.983
20.1064 13.807
20.1215 13.666
20.1367 13.124
20.1519 12.819
20.1671 12.963
20.1822 12.823
20.1974 12.725
20.2126 12.695
20.2278 12.551
20.2429 12.332
20.2581 12.149
20.2733 11.915
20.2885 11.899
20.3036 11.642
20.3188 11.480
20.3340 11.454
20.3492 11.873
20.3643 11.886
20.3795 11.742
20.3947 11.323
20.4099 11.365
20.4250 11.433
20.4402 11.534
20.4554 11.266
20.4706 11.547
20.4857 11.975
20.5009 11.932
20.5161 11.776
20.5313 11.649
20.5464 11.540
20.5616 11.708
20.5768 11.848
20.5920 11.489
20.6071 11.332
20.6223 11.146
20.6375 11.011
20.6527 11.104
20.6678 11.053
20.6830 11.221
20.6982 10.984
20.7134 10.665
20.7285 10.589
20.7437 10.491
20.7589 10.578
20.7741 10.560
20.7892 10.449
20.8044 10.960
20.8196 10.493
20.8348 10.671
20.8499 10.368
20.8651 10.373
20.8803 10.492
20.8955 10.497
20.9106 10.481
20.9258 10.469
20.9410 10.265
20.9562 10.518
20.9713 10.836
20.9865 10.714
21.0017 10.636
21.0169 10.684
21.0320 10.766
21.0472 10.577
21.0624 10.534
21.0776 10.259
21.0927 10.016
21.1079 10.220
21.1231 10.249
21.1383 10.023
21.1534 10.326
21.1686 10.042
21.1838 10.129
21.1990 10.136
21.2141 9.767
21.2293 9.914
21.2445 9.943
21.2597 9.932
21.2748 9.617
21.2900 9.333
21.3052 9.549
21.3204 9.611
21.3355 9.688
21.3507 9.402
21.3659 9.652
21.3811 9.422
21.3962 9.491
21.4114 9.254
21.4266 9.613
21.4418 9.413
21.4569 9.567
21.4721 9.282
21.4873 9.237
21.5025 9.543
21.5176 9.567
21.5328 9.247
21.5480 9.416
21.5632 9.626
21.5783 9.402
21.5935 9.059
21.6087 9.257
21.6239 9.418
21.6390 9.156
21.6542 9.373
21.6694 9.236
21.6846 9.120
21.6997 9.019
21.7149 8.816
21.7301 9.272
21.7453 9.230
21.7604 9.029
21.7756 9.086
21.7908 8.931
21.8060 9.300
21.8211 9.237
21.8363 9.166
21.8515 9.222
21.8667 9.132
21.8818 9.118
21.8970 9.182
21.9122 8.964
21.9274 8.857
21.9425 9.000
21.9577 8.898
21.9729 8.895
21.9881 9.021
22.0032 8.809
22.0184 8.752
22.0336 8.844
22.0488 8.714
22.0639 8.754
22.0791 8.711
22.0943 8.662
22.1095 8.663
22.1246 8.731
22.1398 8.755
22.1550 8.672
22.1702 8.763
22.1853 8.726
22.2005 8.624
22.2157 8.654
22.2309 8.865
22.2460 8.720
22.2612 8.767
22.2764 8.579
22.2916 8.732
22.3067 8.529
22.3219 8.522
22.3371 8.730
22.3523 8.761
22.3674 8.713
22.3826 8.515
22.3978 8.537
22.4130 8.768
22.4281 8.641
22.4433 8.412
22.4585 8.414
22.4737 8.645
22.4888 8.831
22.5040 8.636
22.5192 8.503
22.5344 8.239
22.5495 8.556
22.5647 8.455
22.5799 8.538
22.5951 8.492
22.6102 8.308
22.6254 8.491
22.6406 8.429
22.6558 8.623
22.6709 8.631
22.6861 8.566
22.7013 8.083
22.7165 7.979
22.7316 6.574
