'Id: "" Comment: "" Operator: "Lab Manager" Anode: "Mo" Scantype: "Still (Eiger2R_500K (1D mode))" TimePerStep: "300" X: "11.8" Y: "9.4" Z: "11.284" 
7.2532 18.633
7.2684 18.935
7.2836 19.005
7.2987 19.243
7.3139 18.952
7.3291 19.613
7.3443 19.715
7.3594 19.660
7.3746 19.226
7.3898 18.892
7.4050 19.696
7.4201 19.301
7.4353 19.100
7.4505 19.196
7.4657 19.562
7.4808 19.464
7.4960 19.424
7.5112 19.483
7.5264 19.861
7.5415 20.045
7.5567 19.690
7.5719 19.519
7.5871 19.949
7.6022 19.772
7.6174 20.038
7.6326 19.912
7.6478 20.340
7.6629 20.099
7.6781 20.085
7.6933 20.298
7.7085 20.149
7.7236 20.178
7.7388 20.266
7.7540 20.731
7.7692 20.661
7.7843 20.586
7.7995 20.478
7.8147 20.536
7.8299 20.487
7.8450 20.742
7.8602 21.006
7.8754 20.724
7.8905 20.751
7.9057 20.861
7.9209 21.082
7.9361 21.063
7.9512 20.770
7.9664 20.921
7.9816 20.897
7.9968 21.038
8.0119 20.968
8.0271 21.101
8.0423 21.104
8.0575 21.335
8.0726 21.290
8.0878 21.114
8.1030 21.350
8.1182 21.709
8.1333 21.370
8.1485 21.708
8.1637 21.672
8.1789 21.540
8.1940 21.557
8.2092 21.030
8.2244 21.496
8.2396 21.643
8.2547 21.796
8.2699 22.197
8.2851 22.043
8.3003 21.937
8.3154 21.866
8.3306 22.145
8.3458 21.859
8.3610 21.997
8.3761 22.074
8.3913 21.846
8.4065 22.287
8.4217 21.907
8.4368 21.640
8.4520 22.449
8.4672 22.056
8.4824 22.209
8.4975 22.105
8.5127 22.765
8.5279 22.165
8.5431 22.192
8.5582 22.032
8.5734 22.621
8.5886 22.246
8.6038 22.319
8.6189 22.384
8.6341 21.880
8.6493 22.621
8.6645 22.363
8.6796 22.091
8.6948 22.041
8.7100 22.253
8.7252 21.961
8.7403 22.408
8.7555 22.178
8.7707 22.619
8.7859 22.589
8.8010 22.490
8.8162 22.284
8.8314 22.654
8.8466 22.752
8.8617 22.665
8.8769 22.450
8.8921 23.387
8.9073 22.682
8.9224 22.332
8.9376 22.927
8.9528 22.751
8.9680 22.722
8.9831 22.560
8.9983 22.850
9.0135 22.804
9.0287 22.998
9.0438 22.886
9.0590 22.933
9.0742 22.661
9.0894 22.871
9.1045 22.697
9.1197 23.018
9.1349 23.040
9.1501 22.851
9.1652 23.010
9.1804 23.222
9.1956 22.691
9.2108 22.827
9.2259 22.906
9.2411 22.769
9.2563 23.107
9.2715 22.669
9.2866 22.909
9.3018 23.194
9.3170 22.788
9.3322 22.574
9.3473 22.803
9.3625 23.062
9.3777 23.176
9.3929 22.977
9.4080 23.106
9.4232 23.370
9.4384 23.197
9.4536 23.457
9.4687 23.018
9.4839 22.730
9.4991 22.981
9.5143 23.242
9.5294 23.317
9.5446 23.321
9.5598 23.225
9.5750 23.006
9.5901 23.213
9.6053 23.396
9.6205 23.279
9.6357 23.321
9.6508 23.460
9.6660 23.651
9.6812 23.943
9.6964 24.142
9.7115 24.076
9.7267 24.119
9.7419 24.075
9.7571 24.127
9.7722 24.109
9.7874 24.031
9.8026 23.996
9.8178 23.971
9.8329 23.817
9.8481 23.557
9.8633 23.415
9.8785 23.592
9.8936 23.820
9.9088 23.747
9.9240 23.775
9.9392 23.602
9.9543 23.666
9.9695 24.060
9.9847 24.127
9.9999 23.633
10.0150 23.326
10.0302 23.225
10.0454 23.084
10.0606 23.088
10.0757 23.356
10.0909 23.149
10.1061 23.079
10.1213 23.120
10.1364 23.071
10.1516 23.031
10.1668 22.979
10.1820 22.962
10.1971 22.642
10.2123 22.660
10.2275 23.026
10.2427 22.853
10.2578 22.693
10.2730 23.021
10.2882 23.052
10.3034 23.066
10.3185 23.076
10.3337 22.879
10.3489 22.976
10.3641 23.203
10.3792 23.146
10.3944 22.800
10.4096 23.008
10.4248 23.245
10.4399 22.926
10.4551 22.870
10.4703 23.164
10.4855 22.884
10.5006 22.609
10.5158 22.671
10.5310 22.405
10.5462 22.495
10.5613 22.686
10.5765 22.662
10.5917 22.786
10.6069 22.630
10.6220 22.771
10.6372 22.755
10.6524 22.643
10.6676 22.684
10.6827 22.380
10.6979 22.579
10.7131 22.718
10.7283 22.429
10.7434 22.854
10.7586 22.469
10.7738 22.126
10.7890 22.093
10.8041 22.205
10.8193 22.457
10.8345 22.265
10.8497 22.091
10.8648 22.176
10.8800 22.512
10.8952 21.883
10.9104 21.846
10.9255 22.086
10.9407 21.831
10.9559 21.902
10.9711 21.772
10.9862 22.094
11.0014 22.050
11.0166 22.088
11.0318 22.289
11.0469 22.033
11.0621 21.824
11.0773 22.219
11.0925 22.001
11.1076 21.799
11.1228 21.950
11.1380 21.741
11.1532 21.862
11.1683 21.707
11.1835 21.329
11.1987 21.411
11.2139 21.455
11.2290 21.873
11.2442 21.753
11.2594 21.370
11.2746 21.510
11.2897 21.341
11.3049 21.510
11.3201 21.685
11.3353 21.602
11.3504 21.564
11.3656 21.154
11.3808 21.536
11.3960 21.455
11.4111 21.660
11.4263 21.473
11.4415 21.145
11.4567 21.302
11.4718 21.115
11.4870 21.050
11.5022 21.340
11.5174 21.598
11.5325 21.477
11.5477 21.296
11.5629 21.358
11.5781 21.057
11.5932 20.929
11.6084 21.280
11.6236 20.919
11.6388 20.947
11.6539 20.619
11.6691 20.640
11.6843 20.815
11.6995 20.530
11.7146 20.219
11.7298 20.416
11.7450 20.616
11.7602 20.623
11.7753 20.283
11.7905 20.655
11.8057 20.431
11.8209 19.947
11.8360 19.887
11.8512 19.980
11.8664 19.816
11.8816 19.874
11.8967 19.813
11.9119 19.356
11.9271 19.545
11.9423 19.657
11.9574 19.933
11.9726 19.852
11.9878 19.223
12.0030 19.024
12.0181 19.069
12.0333 19.362
12.0485 18.941
12.0637 18.835
12.0788 18.867
12.0940 18.912
12.1092 18.931
12.1244 18.806
12.1395 18.544
12.1547 18.586
12.1699 18.138
12.1851 18.226
12.2002 18.341
12.2154 18.165
12.2306 18.286
12.2458 18.440
12.2609 18.289
12.2761 17.981
12.2913 17.885
12.3065 17.508
12.3216 17.499
12.3368 17.581
12.3520 17.458
12.3672 17.274
12.3823 17.066
12.3975 17.090
12.4127 17.348
12.4279 17.244
12.4430 17.077
12.4582 17.157
12.4734 16.940
12.4886 16.700
12.5037 16.771
12.5189 16.645
12.5341 16.519
12.5493 16.511
12.5644 16.255
12.5796 16.181
12.5948 16.227
12.6100 16.007
12.6251 15.929
12.6403 15.843
12.6555 15.719
12.6707 15.804
12.6858 15.803
12.7010 15.691
12.7162 15.719
12.7314 15.673
12.7465 15.622
12.7617 15.599
12.7769 15.331
12.7921 15.065
12.8072 15.209
12.8224 15.270
12.8376 15.043
12.8528 15.124
12.8679 15.173
12.8831 14.825
12.8983 14.604
12.9135 14.538
12.9286 14.613
12.9438 14.722
12.9590 14.766
12.9742 14.655
12.9893 14.556
13.0045 14.252
13.0197 14.019
13.0349 14.140
13.0500 14.048
13.0652 13.844
13.0804 13.660
13.0956 13.743
13.1107 13.912
13.1259 13.939
13.1411 13.911
13.1563 13.790
13.1714 13.705
13.1866 13.778
13.2018 13.921
13.2170 13.713
13.2321 13.600
13.2473 13.640
13.2625 13.419
13.2777 13.254
13.2928 13.386
13.3080 13.355
13.3232 13.169
13.3384 13.255
13.3535 13.252
13.3687 13.214
13.3839 13.118
13.3991 13.086
13.4142 13.040
13.4294 12.984
13.4446 12.955
13.4598 12.814
13.4749 12.639
13.4901 12.565
13.5053 12.574
13.5205 12.478
13.5356 12.230
13.5508 12.291
13.5660 12.311
13.5812 11.980
13.5963 12.029
13.6115 12.317
13.6267 12.320
13.6419 12.208
13.6570 12.238
13.6722 12.318
13.6874 12.235
13.7026 12.268
13.7177 12.156
13.7329 12.196
13.7481 12.293
13.7633 12.080
13.7784 12.131
13.7936 12.228
13.8088 12.228
13.8239 12.096
13.8391 12.376
13.8543 12.367
13.8695 12.290
13.8846 12.456
13.8998 12.242
13.9150 12.109
13.9302 12.094
13.9453 11.988
13.9605 12.093
13.9757 11.933
13.9909 11.727
14.0060 11.810
14.0212 11.749
14.0364 11.724
14.0516 11.598
14.0667 11.552
14.0819 11.503
14.0971 11.689
14.1123 11.328
14.1274 11.216
14.1426 11.170
14.1578 11.375
14.1730 11.224
14.1881 11.229
14.2033 11.344
14.2185 11.548
14.2337 11.553
14.2488 11.394
14.2640 11.485
14.2792 11.518
14.2944 11.391
14.3095 11.721
14.3247 11.903
14.3399 11.956
14.3551 12.169
14.3702 12.176
14.3854 12.264
14.4006 12.205
14.4158 12.338
14.4309 12.530
14.4461 12.268
14.4613 12.175
14.4765 12.271
14.4916 11.989
14.5068 12.153
14.5220 12.110
14.5372 11.849
14.5523 11.383
14.5675 11.554
14.5827 11.299
14.5979 11.317
14.6130 11.004
14.6282 11.407
14.6434 11.232
14.6586 11.375
14.6737 11.276
14.6889 11.216
14.7041 10.921
14.7193 11.225
14.7344 11.257
14.7496 10.871
14.7648 10.980
14.7800 11.054
14.7951 10.930
14.8103 10.941
14.8255 10.772
14.8407 11.046
14.8558 10.913
14.8710 10.683
14.8862 10.468
14.9014 10.690
14.9165 11.240
14.9317 11.321
14.9469 10.958
14.9621 10.570
14.9772 10.554
14.9924 10.450
15.0076 10.735
15.0228 10.581
15.0379 10.249
15.0531 10.351
15.0683 10.401
15.0835 10.586
15.0986 10.451
15.1138 10.563
15.1290 10.490
15.1442 10.361
15.1593 10.225
15.1745 10.392
15.1897 10.096
15.2049 10.371
15.2200 10.687
15.2352 10.189
15.2504 10.583
15.2656 10.566
15.2807 10.427
15.2959 10.518
15.3111 10.660
15.3263 10.300
15.3414 10.013
15.3566 10.492
15.3718 10.299
15.3870 10.417
15.4021 10.431
15.4173 10.334
15.4325 10.351
15.4477 10.545
15.4628 10.491
15.4780 10.683
15.4932 10.383
15.5084 10.243
15.5235 10.652
15.5387 10.483
15.5539 10.261
15.5691 10.615
15.5842 10.315
15.5994 10.225
15.6146 10.302
15.6298 10.249
15.6449 10.080
15.6601 9.964
15.6753 9.818
15.6905 9.965
15.7056 9.873
15.7208 9.967
15.7360 9.762
15.7512 10.018
15.7663 10.050
15.7815 9.924
15.7967 10.169
15.8119 10.256
15.8270 10.105
15.8422 9.982
15.8574 9.795
15.8726 9.736
15.8877 9.645
15.9029 9.389
15.9181 9.775
15.9333 9.753
15.9484 9.671
15.9636 9.675
15.9788 9.905
15.9940 10.022
16.0091 9.867
16.0243 10.043
16.0395 9.873
16.0547 9.977
16.0698 10.036
16.0850 9.579
16.1002 9.537
16.1154 9.698
16.1305 9.607
16.1457 9.804
16.1609 9.866
16.1761 9.928
16.1912 9.958
16.2064 9.838
16.2216 9.877
16.2368 10.204
16.2519 9.894
16.2671 10.120
16.2823 10.152
16.2975 10.175
16.3126 10.036
16.3278 9.827
16.3430 9.966
16.3582 9.987
16.3733 10.067
16.3885 9.958
16.4037 10.028
16.4189 9.982
16.4340 9.980
16.4492 10.141
16.4644 10.229
16.4796 9.801
16.4947 9.681
16.5099 9.724
16.5251 9.600
16.5403 9.879
16.5554 9.925
16.5706 9.883
16.5858 9.647
16.6010 9.799
16.6161 9.793
16.6313 9.935
16.6465 9.924
16.6617 9.902
16.6768 10.077
16.6920 10.256
16.7072 10.128
16.7224 9.851
16.7375 10.112
16.7527 10.073
16.7679 9.836
16.7831 9.862
16.7982 10.049
16.8134 9.949
16.8286 10.065
16.8438 10.185
16.8589 10.080
16.8741 10.180
16.8893 9.830
16.9045 9.790
16.9196 9.983
16.9348 9.902
16.9500 9.683
16.9652 9.702
16.9803 9.835
16.9955 10.063
17.0107 10.239
17.0259 10.293
17.0410 10.063
17.0562 10.272
17.0714 10.615
17.0866 10.570
17.1017 10.547
17.1169 10.712
17.1321 11.021
17.1473 11.467
17.1624 11.729
17.1776 12.223
17.1928 13.089
17.2080 14.059
17.2231 15.257
17.2383 16.509
17.2535 17.837
17.2687 18.778
17.2838 18.622
17.2990 18.048
17.3142 17.426
17.3294 16.617
17.3445 15.849
17.3597 15.760
17.3749 15.944
17.3901 15.266
17.4052 14.414
17.4204 13.395
17.4356 12.235
17.4508 11.785
17.4659 11.595
17.4811 11.263
17.4963 11.056
17.5115 10.820
17.5266 10.801
17.5418 10.859
17.5570 10.476
17.5722 10.371
17.5873 10.310
17.6025 10.310
17.6177 10.371
17.6329 10.253
17.6480 10.282
17.6632 10.019
17.6784 9.807
17.6936 9.922
17.7087 10.167
17.7239 10.269
17.7391 10.123
17.7543 10.145
17.7694 10.225
17.7846 10.285
17.7998 10.400
17.8150 10.480
17.8301 10.636
17.8453 10.726
17.8605 10.772
17.8757 10.872
17.8908 10.961
17.9060 11.048
17.9212 11.119
17.9364 10.801
17.9515 10.667
17.9667 10.866
17.9819 10.941
17.9971 10.750
18.0122 10.646
18.0274 10.723
18.0426 10.512
18.0578 10.159
18.0729 10.181
18.0881 10.306
18.1033 10.123
18.1185 10.058
18.1336 10.064
18.1488 10.048
18.1640 10.033
18.1792 10.113
18.1943 10.165
18.2095 9.942
18.2247 9.963
18.2399 10.233
18.2550 9.988
18.2702 9.917
18.2854 10.097
18.3006 9.990
18.3157 9.817
18.3309 9.626
18.3461 9.824
18.3613 9.860
18.3764 9.677
18.3916 9.497
18.4068 9.596
18.4220 9.844
18.4371 9.769
18.4523 9.598
18.4675 9.810
18.4827 9.863
18.4978 9.802
18.5130 9.935
18.5282 9.742
18.5434 9.743
18.5585 10.002
18.5737 9.987
18.5889 9.570
18.6041 9.607
18.6192 9.843
18.6344 9.719
18.6496 9.933
18.6648 9.851
18.6799 9.661
18.6951 9.525
18.7103 9.695
18.7255 10.110
18.7406 9.972
18.7558 9.859
18.7710 9.910
18.7862 9.855
18.8013 9.630
18.8165 9.627
18.8317 9.711
18.8469 9.962
18.8620 10.004
18.8772 10.128
18.8924 10.096
18.9076 9.863
18.9227 9.968
18.9379 9.959
18.9531 10.076
18.9683 10.073
18.9834 10.190
18.9986 10.276
19.0138 10.130
19.0290 10.111
19.0441 10.308
19.0593 10.313
19.0745 10.122
19.0897 10.191
19.1048 10.557
19.1200 10.583
19.1352 10.539
19.1504 10.558
19.1655 10.668
19.1807 10.564
19.1959 10.823
19.2111 10.667
19.2262 10.509
19.2414 10.627
19.2566 10.753
19.2718 10.826
19.2869 10.880
19.3021 10.877
19.3173 10.996
19.3325 10.999
19.3476 10.891
19.3628 11.220
19.3780 11.281
19.3932 11.202
19.4083 11.355
19.4235 11.417
19.4387 11.368
19.4539 11.364
19.4690 11.394
19.4842 11.153
19.4994 11.239
19.5146 11.431
19.5297 11.395
19.5449 11.315
19.5601 11.417
19.5753 11.459
19.5904 11.540
19.6056 11.428
19.6208 11.314
19.6360 11.598
19.6511 11.707
19.6663 11.797
19.6815 11.759
19.6967 11.692
19.7118 11.822
19.7270 11.589
19.7422 11.336
19.7574 11.491
19.7725 11.681
19.7877 11.733
19.8029 11.726
19.8180 11.932
19.8332 12.259
19.8484 12.449
19.8636 12.653
19.8787 12.794
19.8939 12.893
19.9091 13.226
19.9243 13.755
19.9394 13.930
19.9546 14.067
19.9698 14.513
19.9850 14.478
20.0001 14.329
20.0153 14.501
20.0305 14.120
20.0457 13.828
20.0608 13.827
20.0760 14.051
20.0912 13.909
20.1064 13.422
20.1215 13.041
20.1367 13.182
20.1519 13.224
20.1671 12.694
20.1822 12.381
20.1974 12.476
20.2126 12.484
20.2278 12.495
20.2429 12.596
20.2581 12.316
20.2733 12.071
20.2885 11.775
20.3036 11.545
20.3188 11.306
20.3340 11.471
20.3492 11.447
20.3643 11.171
20.3795 11.038
20.3947 11.047
20.4099 11.038
20.4250 10.568
20.4402 10.541
20.4554 10.703
20.4706 10.771
20.4857 10.745
20.5009 10.844
20.5161 10.721
20.5313 10.685
20.5464 10.769
20.5616 10.819
20.5768 10.692
20.5920 10.663
20.6071 10.473
20.6223 10.773
20.6375 10.443
20.6527 10.483
20.6678 10.349
20.6830 10.259
20.6982 10.215
20.7134 10.352
20.7285 10.240
20.7437 9.960
20.7589 10.179
20.7741 10.346
20.7892 10.481
20.8044 10.205
20.8196 10.103
20.8348 10.190
20.8499 10.469
20.8651 10.348
20.8803 10.190
20.8955 10.434
20.9106 10.352
20.9258 10.324
20.9410 10.465
20.9562 10.558
20.9713 10.439
20.9865 10.393
21.0017 10.487
21.0169 10.409
21.0320 10.376
21.0472 10.445
21.0624 10.563
21.0776 9.867
21.0927 9.722
21.1079 9.805
21.1231 10.118
21.1383 10.075
21.1534 9.816
21.1686 9.981
21.1838 9.909
21.1990 9.860
21.2141 9.538
21.2293 9.972
21.2445 9.847
21.2597 9.616
21.2748 9.655
21.2900 9.615
21.3052 9.626
21.3204 9.775
21.3355 9.648
21.3507 9.690
21.3659 9.768
21.3811 9.370
21.3962 9.687
21.4114 9.449
21.4266 9.440
21.4418 9.319
21.4569 9.447
21.4721 9.321
21.4873 9.393
21.5025 9.177
21.5176 9.257
21.5328 9.386
21.5480 9.455
21.5632 9.394
21.5783 9.403
21.5935 9.625
21.6087 9.404
21.6239 9.385
21.6390 9.446
21.6542 9.205
21.6694 9.278
21.6846 9.046
21.6997 9.092
21.7149 9.126
21.7301 9.200
21.7453 9.032
21.7604 8.906
21.7756 9.089
21.7908 9.338
21.8060 9.076
21.8211 9.265
21.8363 9.068
21.8515 8.977
21.8667 9.051
21.8818 9.046
21.8970 9.015
21.9122 8.982
21.9274 8.983
21.9425 8.844
21.9577 8.921
21.9729 8.942
21.9881 8.865
22.0032 8.838
22.0184 8.986
22.0336 9.041
22.0488 8.775
22.0639 8.486
22.0791 8.476
22.0943 8.672
22.1095 8.760
22.1246 8.876
22.1398 8.827
22.1550 8.590
22.1702 8.795
22.1853 8.802
22.2005 8.572
22.2157 8.706
22.2309 8.783
22.2460 8.688
22.2612 8.691
22.2764 8.647
22.2916 8.500
22.3067 8.646
22.3219 8.615
22.3371 8.539
22.3523 8.819
22.3674 8.535
22.3826 8.604
22.3978 8.457
22.4130 8.549
22.4281 8.640
22.4433 8.522
22.4585 8.633
22.4737 8.429
22.4888 8.423
22.5040 8.274
22.5192 8.296
22.5344 8.781
22.5495 8.521
22.5647 8.762
22.5799 8.921
22.5951 8.268
22.6102 8.447
22.6254 8.618
22.6406 8.458
22.6558 8.645
22.6709 8.539
22.6861 8.354
22.7013 8.373
22.7165 8.023
22.7316 6.458
