'Id: "" Comment: "" Operator: "Lab Manager" Anode: "Mo" Scantype: "Still (Eiger2R_500K (1D mode))" TimePerStep: "300" X: "11.8" Y: "9.4" Z: "11.284" 
7.2532 18.530
7.2684 18.331
7.2836 18.912
7.2987 18.890
7.3139 18.888
7.3291 18.780
7.3443 19.369
7.3594 19.028
7.3746 18.832
7.3898 19.481
7.4050 18.987
7.4201 18.970
7.4353 19.119
7.4505 19.387
7.4657 19.644
7.4808 19.836
7.4960 19.692
7.5112 19.956
7.5264 19.975
7.5415 19.813
7.5567 19.877
7.5719 20.051
7.5871 20.111
7.6022 20.348
7.6174 20.468
7.6326 20.419
7.6478 20.152
7.6629 20.130
7.6781 20.262
7.6933 20.442
7.7085 20.525
7.7236 20.522
7.7388 20.216
7.7540 20.399
7.7692 20.606
7.7843 20.446
7.7995 20.515
7.8147 20.678
7.8299 20.712
7.8450 21.037
7.8602 21.067
7.8754 20.818
7.8905 20.770
7.9057 20.839
7.9209 20.958
7.9361 20.837
7.9512 20.696
7.9664 21.049
7.9816 21.216
7.9968 21.206
8.0119 21.212
8.0271 20.977
8.0423 21.023
8.0575 21.110
8.0726 21.188
8.0878 21.491
8.1030 21.560
8.1182 21.477
8.1333 21.487
8.1485 21.444
8.1637 21.739
8.1789 21.738
8.1940 21.416
8.2092 21.290
8.2244 21.230
8.2396 21.672
8.2547 21.383
8.2699 21.798
8.2851 21.832
8.3003 22.261
8.3154 21.916
8.3306 21.861
8.3458 21.611
8.3610 21.738
8.3761 21.946
8.3913 21.864
8.4065 21.740
8.4217 22.210
8.4368 22.121
8.4520 21.822
8.4672 22.085
8.4824 22.209
8.4975 22.574
8.5127 22.130
8.5279 22.775
8.5431 21.925
8.5582 22.475
8.5734 21.630
8.5886 22.688
8.6038 22.464
8.6189 22.426
8.6341 22.467
8.6493 22.848
8.6645 22.679
8.6796 22.540
8.6948 23.089
8.7100 22.092
8.7252 22.945
8.7403 22.748
8.7555 22.796
8.7707 22.520
8.7859 22.700
8.8010 22.728
8.8162 22.758
8.8314 22.616
8.8466 22.721
8.8617 22.941
8.8769 22.783
8.8921 22.703
8.9073 22.530
8.9224 23.046
8.9376 22.887
8.9528 22.697
8.9680 22.373
8.9831 22.535
8.9983 22.455
9.0135 22.797
9.0287 22.643
9.0438 22.530
9.0590 22.898
9.0742 23.057
9.0894 22.833
9.1045 23.265
9.1197 22.738
9.1349 22.805
9.1501 22.814
9.1652 22.679
9.1804 22.982
9.1956 22.928
9.2108 22.711
9.2259 22.863
9.2411 23.043
9.2563 23.018
9.2715 22.965
9.2866 22.671
9.3018 23.104
9.3170 23.056
9.3322 23.099
9.3473 23.181
9.3625 23.195
9.3777 23.221
9.3929 23.267
9.4080 23.258
9.4232 23.100
9.4384 23.125
9.4536 23.294
9.4687 23.518
9.4839 23.224
9.4991 23.428
9.5143 23.670
9.5294 23.428
9.5446 23.311
9.5598 23.318
9.5750 23.378
9.5901 23.310
9.6053 23.350
9.6205 23.452
9.6357 23.647
9.6508 23.658
9.6660 23.599
9.6812 23.959
9.6964 23.909
9.7115 23.708
9.7267 24.182
9.7419 24.440
9.7571 24.302
9.7722 24.080
9.7874 24.213
9.8026 24.125
9.8178 23.712
9.8329 23.883
9.8481 23.830
9.8633 23.503
9.8785 23.277
9.8936 23.368
9.9088 23.752
9.9240 23.700
9.9392 23.569
9.9543 23.455
9.9695 23.429
9.9847 23.700
9.9999 23.585
10.0150 23.530
10.0302 23.953
10.0454 24.064
10.0606 23.738
10.0757 23.396
10.0909 23.461
10.1061 23.676
10.1213 23.663
10.1364 23.570
10.1516 23.431
10.1668 23.848
10.1820 23.937
10.1971 23.612
10.2123 23.695
10.2275 23.948
10.2427 24.036
10.2578 24.000
10.2730 23.765
10.2882 23.597
10.3034 23.626
10.3185 23.886
10.3337 23.723
10.3489 23.090
10.3641 22.821
10.3792 22.899
10.3944 23.012
10.4096 22.885
10.4248 23.163
10.4399 23.042
10.4551 22.777
10.4703 22.937
10.4855 22.775
10.5006 22.878
10.5158 22.790
10.5310 22.937
10.5462 22.738
10.5613 22.856
10.5765 22.750
10.5917 22.495
10.6069 22.806
10.6220 22.753
10.6372 22.492
10.6524 22.515
10.6676 22.355
10.6827 22.503
10.6979 22.810
10.7131 22.615
10.7283 22.285
10.7434 22.522
10.7586 22.409
10.7738 22.011
10.7890 22.281
10.8041 22.381
10.8193 22.113
10.8345 22.236
10.8497 22.435
10.8648 22.270
10.8800 22.466
10.8952 22.251
10.9104 21.753
10.9255 21.897
10.9407 21.998
10.9559 22.210
10.9711 22.199
10.9862 22.355
11.0014 22.113
11.0166 21.966
11.0318 21.918
11.0469 21.937
11.0621 21.924
11.0773 21.830
11.0925 22.047
11.1076 22.021
11.1228 22.061
11.1380 21.806
11.1532 21.620
11.1683 21.492
11.1835 22.142
11.1987 22.297
11.2139 21.892
11.2290 22.052
11.2442 22.102
11.2594 21.741
11.2746 21.746
11.2897 21.875
11.3049 21.840
11.3201 21.923
11.3353 21.691
11.3504 21.745
11.3656 21.819
11.3808 21.745
11.3960 21.825
11.4111 21.529
11.4263 21.163
11.4415 21.494
11.4567 21.054
11.4718 21.145
11.4870 21.184
11.5022 21.049
11.5174 21.185
11.5325 21.038
11.5477 21.419
11.5629 21.399
11.5781 20.624
11.5932 20.694
11.6084 20.987
11.6236 20.838
11.6388 20.484
11.6539 20.704
11.6691 20.931
11.6843 20.426
11.6995 20.522
11.7146 20.344
11.7298 20.186
11.7450 19.845
11.7602 19.840
11.7753 19.932
11.7905 19.880
11.8057 20.054
11.8209 19.894
11.8360 19.964
11.8512 19.906
11.8664 19.908
11.8816 20.177
11.8967 20.046
11.9119 19.828
11.9271 19.982
11.9423 19.719
11.9574 19.444
11.9726 19.587
11.9878 19.209
12.0030 19.189
12.0181 19.494
12.0333 19.115
12.0485 18.901
12.0637 18.885
12.0788 18.874
12.0940 18.814
12.1092 18.880
12.1244 18.795
12.1395 18.900
12.1547 18.454
12.1699 18.066
12.1851 18.609
12.2002 18.360
12.2154 18.444
12.2306 18.628
12.2458 18.045
12.2609 17.835
12.2761 17.574
12.2913 17.703
12.3065 17.769
12.3216 17.755
12.3368 17.642
12.3520 17.699
12.3672 17.489
12.3823 17.490
12.3975 17.530
12.4127 17.384
12.4279 17.353
12.4430 17.149
12.4582 17.265
12.4734 17.329
12.4886 17.043
12.5037 17.120
12.5189 16.966
12.5341 16.951
12.5493 16.851
12.5644 16.618
12.5796 16.765
12.5948 16.555
12.6100 16.428
12.6251 16.202
12.6403 15.971
12.6555 15.851
12.6707 15.730
12.6858 15.621
12.7010 15.837
12.7162 15.743
12.7314 15.485
12.7465 15.345
12.7617 15.316
12.7769 15.384
12.7921 15.176
12.8072 15.158
12.8224 15.471
12.8376 15.499
12.8528 15.028
12.8679 14.763
12.8831 14.573
12.8983 14.995
12.9135 15.183
12.9286 14.680
12.9438 14.735
12.9590 14.884
12.9742 14.558
12.9893 14.429
13.0045 14.454
13.0197 14.410
13.0349 14.283
13.0500 13.990
13.0652 14.052
13.0804 14.026
13.0956 13.953
13.1107 13.954
13.1259 13.807
13.1411 13.848
13.1563 13.805
13.1714 13.643
13.1866 13.595
13.2018 13.546
13.2170 13.539
13.2321 13.412
13.2473 13.305
13.2625 13.315
13.2777 13.318
13.2928 13.216
13.3080 13.122
13.3232 13.154
13.3384 13.082
13.3535 13.081
13.3687 12.891
13.3839 12.976
13.3991 13.052
13.4142 13.007
13.4294 12.928
13.4446 12.790
13.4598 12.686
13.4749 12.675
13.4901 12.833
13.5053 12.574
13.5205 12.519
13.5356 12.589
13.5508 12.355
13.5660 12.435
13.5812 12.425
13.5963 12.273
13.6115 12.231
13.6267 12.354
13.6419 12.356
13.6570 12.180
13.6722 11.894
13.6874 11.924
13.7026 12.163
13.7177 12.020
13.7329 12.010
13.7481 11.953
13.7633 11.837
13.7784 11.977
13.7936 12.233
13.8088 12.043
13.8239 12.201
13.8391 12.271
13.8543 12.328
13.8695 12.447
13.8846 12.185
13.8998 12.424
13.9150 12.320
13.9302 12.204
13.9453 11.800
13.9605 11.569
13.9757 11.651
13.9909 11.794
14.0060 11.650
14.0212 11.507
14.0364 11.376
14.0516 11.504
14.0667 11.680
14.0819 11.414
14.0971 11.271
14.1123 11.399
14.1274 11.525
14.1426 11.657
14.1578 11.699
14.1730 11.777
14.1881 11.696
14.2033 11.855
14.2185 11.832
14.2337 12.056
14.2488 12.154
14.2640 12.045
14.2792 12.186
14.2944 12.262
14.3095 12.392
14.3247 12.612
14.3399 12.503
14.3551 12.928
14.3702 12.829
14.3854 13.038
14.4006 13.318
14.4158 13.011
14.4309 12.609
14.4461 12.361
14.4613 12.231
14.4765 12.708
14.4916 12.483
14.5068 12.349
14.5220 12.092
14.5372 11.749
14.5523 11.659
14.5675 11.515
14.5827 10.838
14.5979 11.359
14.6130 11.319
14.6282 11.216
14.6434 11.159
14.6586 11.177
14.6737 11.369
14.6889 11.138
14.7041 10.768
14.7193 10.879
14.7344 10.886
14.7496 10.767
14.7648 10.673
14.7800 10.768
14.7951 10.391
14.8103 10.432
14.8255 10.841
14.8407 10.522
14.8558 10.731
14.8710 10.523
14.8862 10.768
14.9014 10.826
14.9165 11.025
14.9317 11.015
14.9469 10.485
14.9621 10.724
14.9772 10.403
14.9924 10.393
15.0076 10.379
15.0228 10.279
15.0379 10.503
15.0531 10.852
15.0683 10.576
15.0835 10.667
15.0986 10.335
15.1138 10.702
15.1290 10.306
15.1442 10.517
15.1593 10.625
15.1745 10.375
15.1897 10.096
15.2049 10.379
15.2200 10.536
15.2352 10.061
15.2504 10.202
15.2656 10.351
15.2807 10.283
15.2959 10.374
15.3111 10.538
15.3263 10.169
15.3414 10.459
15.3566 10.469
15.3718 10.577
15.3870 10.424
15.4021 10.439
15.4173 10.341
15.4325 10.518
15.4477 10.308
15.4628 10.419
15.4780 10.494
15.4932 10.470
15.5084 10.479
15.5235 10.453
15.5387 10.235
15.5539 10.471
15.5691 10.427
15.5842 10.018
15.5994 10.027
15.6146 10.076
15.6298 9.862
15.6449 10.074
15.6601 9.888
15.6753 9.969
15.6905 9.784
15.7056 9.957
15.7208 10.051
15.7360 9.776
15.7512 9.879
15.7663 10.189
15.7815 9.958
15.7967 10.101
15.8119 10.102
15.8270 9.885
15.8422 9.894
15.8574 9.791
15.8726 9.835
15.8877 9.671
15.9029 9.429
15.9181 9.684
15.9333 9.726
15.9484 9.772
15.9636 9.948
15.9788 9.790
15.9940 9.921
16.0091 9.585
16.0243 9.935
16.0395 9.933
16.0547 9.673
16.0698 9.825
16.0850 9.886
16.1002 9.765
16.1154 10.101
16.1305 9.961
16.1457 9.783
16.1609 9.615
16.1761 9.635
16.1912 9.766
16.2064 9.788
16.2216 9.793
16.2368 9.984
16.2519 9.805
16.2671 9.910
16.2823 10.287
16.2975 10.385
16.3126 10.200
16.3278 10.036
16.3430 9.955
16.3582 9.938
16.3733 9.798
16.3885 10.161
16.4037 10.015
16.4189 10.004
16.4340 9.965
16.4492 9.820
16.4644 9.987
16.4796 9.823
16.4947 9.634
16.5099 9.426
16.5251 9.495
16.5403 9.662
16.5554 9.717
16.5706 9.949
16.5858 10.109
16.6010 9.682
16.6161 9.691
16.6313 9.633
16.6465 9.686
16.6617 9.712
16.6768 9.671
16.6920 9.635
16.7072 9.992
16.7224 10.152
16.7375 10.102
16.7527 9.755
16.7679 9.853
16.7831 9.953
16.7982 10.053
16.8134 10.117
16.8286 9.936
16.8438 9.746
16.8589 9.818
16.8741 9.851
16.8893 9.856
16.9045 9.872
16.9196 9.673
16.9348 9.781
16.9500 9.695
16.9652 9.757
16.9803 9.762
16.9955 9.839
17.0107 9.853
17.0259 9.843
17.0410 9.785
17.0562 10.022
17.0714 10.180
17.0866 10.334
17.1017 10.452
17.1169 10.409
17.1321 10.884
17.1473 11.364
17.1624 11.525
17.1776 12.005
17.1928 13.013
17.2080 13.937
17.2231 15.182
17.2383 16.421
17.2535 17.408
17.2687 18.456
17.2838 18.801
17.2990 18.089
17.3142 16.905
17.3294 16.374
17.3445 16.173
17.3597 16.061
17.3749 15.942
17.3901 15.114
17.4052 14.092
17.4204 13.488
17.4356 12.668
17.4508 11.929
17.4659 11.855
17.4811 11.679
17.4963 11.551
17.5115 11.412
17.5266 11.367
17.5418 11.361
17.5570 11.340
17.5722 11.691
17.5873 11.870
17.6025 11.799
17.6177 11.446
17.6329 11.109
17.6480 10.816
17.6632 10.641
17.6784 10.862
17.6936 10.951
17.7087 10.953
17.7239 10.950
17.7391 10.721
17.7543 10.572
17.7694 10.613
17.7846 10.557
17.7998 10.433
17.8150 10.233
17.8301 10.199
17.8453 10.431
17.8605 10.669
17.8757 10.716
17.8908 10.660
17.9060 10.748
17.9212 10.719
17.9364 10.541
17.9515 10.412
17.9667 10.461
17.9819 10.350
17.9971 9.987
18.0122 10.023
18.0274 10.380
18.0426 10.365
18.0578 10.172
18.0729 10.302
18.0881 10.227
18.1033 10.099
18.1185 10.046
18.1336 9.955
18.1488 10.001
18.1640 9.737
18.1792 9.858
18.1943 9.836
18.2095 9.738
18.2247 9.902
18.2399 10.029
18.2550 10.222
18.2702 9.916
18.2854 9.764
18.3006 9.888
18.3157 9.982
18.3309 9.697
18.3461 9.618
18.3613 9.786
18.3764 9.684
18.3916 9.720
18.4068 9.884
18.4220 9.799
18.4371 9.919
18.4523 10.232
18.4675 9.776
18.4827 9.619
18.4978 9.781
18.5130 9.824
18.5282 9.874
18.5434 9.883
18.5585 9.790
18.5737 9.820
18.5889 9.661
18.6041 9.779
18.6192 9.941
18.6344 9.711
18.6496 9.770
18.6648 9.806
18.6799 9.509
18.6951 9.660
18.7103 9.846
18.7255 9.941
18.7406 9.807
18.7558 9.897
18.7710 9.908
18.7862 9.727
18.8013 9.554
18.8165 9.714
18.8317 9.804
18.8469 9.732
18.8620 9.963
18.8772 10.169
18.8924 10.087
18.9076 9.935
18.9227 9.922
18.9379 10.098
18.9531 9.902
18.9683 9.892
18.9834 9.996
18.9986 10.062
19.0138 10.119
19.0290 10.257
19.0441 10.232
19.0593 10.223
19.0745 10.417
19.0897 10.357
19.1048 10.213
19.1200 10.170
19.1352 10.495
19.1504 10.772
19.1655 10.567
19.1807 10.480
19.1959 10.628
19.2111 10.746
19.2262 10.689
19.2414 10.740
19.2566 10.879
19.2718 10.889
19.2869 10.745
19.3021 10.753
19.3173 11.073
19.3325 11.078
19.3476 10.974
19.3628 11.098
19.3780 11.259
19.3932 11.256
19.4083 11.328
19.4235 11.255
19.4387 11.230
19.4539 11.190
19.4690 11.208
19.4842 11.345
19.4994 11.429
19.5146 11.411
19.5297 11.475
19.5449 11.620
19.5601 11.622
19.5753 11.536
19.5904 11.592
19.6056 11.860
19.6208 11.814
19.6360 11.639
19.6511 11.730
19.6663 11.618
19.6815 11.619
19.6967 11.598
19.7118 11.588
19.7270 11.770
19.7422 11.750
19.7574 11.878
19.7725 11.962
19.7877 11.905
19.8029 11.808
19.8180 12.012
19.8332 12.096
19.8484 12.140
19.8636 12.422
19.8787 12.343
19.8939 12.640
19.9091 13.202
19.9243 13.604
19.9394 13.917
19.9546 14.286
19.9698 14.370
19.9850 14.368
20.0001 14.358
20.0153 14.195
20.0305 13.961
20.0457 13.942
20.0608 14.066
20.0760 13.819
20.0912 13.919
20.1064 13.731
20.1215 13.336
20.1367 13.242
20.1519 13.272
20.1671 13.176
20.1822 13.051
20.1974 12.970
20.2126 12.921
20.2278 13.059
20.2429 12.667
20.2581 12.198
20.2733 12.191
20.2885 12.104
20.3036 12.180
20.3188 12.074
20.3340 11.926
20.3492 11.704
20.3643 11.651
20.3795 11.526
20.3947 11.327
20.4099 10.994
20.4250 10.946
20.4402 11.104
20.4554 11.001
20.4706 10.818
20.4857 10.966
20.5009 10.952
20.5161 10.515
20.5313 10.534
20.5464 10.934
20.5616 10.822
20.5768 10.680
20.5920 10.555
20.6071 10.833
20.6223 10.942
20.6375 10.748
20.6527 10.925
20.6678 10.751
20.6830 10.485
20.6982 10.662
20.7134 10.584
20.7285 10.401
20.7437 10.527
20.7589 10.777
20.7741 10.497
20.7892 10.450
20.8044 10.426
20.8196 10.288
20.8348 10.084
20.8499 10.095
20.8651 10.321
20.8803 10.174
20.8955 10.159
20.9106 10.429
20.9258 10.044
20.9410 10.238
20.9562 10.016
20.9713 9.925
20.9865 10.064
21.0017 10.201
21.0169 10.205
21.0320 10.225
21.0472 10.108
21.0624 9.784
21.0776 10.053
21.0927 9.656
21.1079 9.506
21.1231 9.864
21.1383 10.088
21.1534 9.959
21.1686 9.836
21.1838 9.763
21.1990 9.795
21.2141 9.577
21.2293 9.696
21.2445 9.466
21.2597 9.800
21.2748 9.370
21.2900 9.668
21.3052 9.586
21.3204 9.416
21.3355 9.581
21.3507 9.542
21.3659 9.342
21.3811 9.502
21.3962 9.687
21.4114 9.572
21.4266 9.657
21.4418 9.416
21.4569 9.357
21.4721 9.345
21.4873 9.314
21.5025 9.199
21.5176 9.361
21.5328 9.612
21.5480 9.348
21.5632 9.320
21.5783 9.232
21.5935 9.324
21.6087 9.127
21.6239 8.962
21.6390 9.133
21.6542 9.131
21.6694 9.179
21.6846 8.977
21.6997 8.982
21.7149 9.228
21.7301 9.220
21.7453 8.962
21.7604 9.171
21.7756 8.924
21.7908 9.004
21.8060 9.051
21.8211 8.881
21.8363 9.006
21.8515 9.304
21.8667 9.030
21.8818 8.971
21.8970 9.026
21.9122 8.923
21.9274 8.936
21.9425 8.804
21.9577 8.927
21.9729 8.986
21.9881 8.887
22.0032 8.917
22.0184 8.945
22.0336 8.937
22.0488 8.933
22.0639 8.786
22.0791 8.649
22.0943 8.752
22.1095 8.848
22.1246 8.807
22.1398 8.767
22.1550 8.673
22.1702 8.640
22.1853 8.546
22.2005 8.576
22.2157 8.795
22.2309 8.826
22.2460 8.793
22.2612 8.747
22.2764 8.500
22.2916 8.643
22.3067 8.694
22.3219 8.724
22.3371 8.505
22.3523 8.439
22.3674 8.316
22.3826 8.453
22.3978 8.626
22.4130 8.731
22.4281 8.505
22.4433 8.473
22.4585 8.408
22.4737 8.473
22.4888 8.586
22.5040 8.543
22.5192 8.378
22.5344 8.338
22.5495 8.422
22.5647 8.467
22.5799 8.269
22.5951 8.394
22.6102 8.322
22.6254 8.633
22.6406 8.644
22.6558 8.899
22.6709 8.838
22.6861 8.361
22.7013 8.184
22.7165 8.075
22.7316 6.494
