'Id: "" Comment: "" Operator: "Lab Manager" Anode: "Mo" Scantype: "Still (Eiger2R_500K (1D mode))" TimePerStep: "300" X: "11.8" Y: "9.4" Z: "11.284" 
7.2532 18.771
7.2684 19.117
7.2836 19.083
7.2987 18.679
7.3139 19.339
7.3291 18.755
7.3443 19.422
7.3594 19.308
7.3746 19.281
7.3898 19.369
7.4050 19.430
7.4201 19.643
7.4353 19.285
7.4505 19.407
7.4657 19.210
7.4808 19.583
7.4960 19.659
7.5112 19.176
7.5264 19.517
7.5415 19.629
7.5567 19.490
7.5719 20.022
7.5871 20.300
7.6022 19.612
7.6174 19.792
7.6326 20.166
7.6478 20.412
7.6629 20.380
7.6781 20.314
7.6933 20.140
7.7085 20.140
7.7236 20.023
7.7388 20.016
7.7540 20.458
7.7692 20.531
7.7843 20.548
7.7995 20.333
7.8147 20.428
7.8299 20.789
7.8450 20.842
7.8602 20.490
7.8754 20.410
7.8905 20.724
7.9057 20.908
7.9209 20.876
7.9361 20.868
7.9512 20.880
7.9664 20.817
7.9816 21.250
7.9968 21.251
8.0119 21.139
8.0271 20.946
8.0423 21.101
8.0575 20.916
8.0726 20.945
8.0878 20.995
8.1030 21.065
8.1182 21.163
8.1333 21.545
8.1485 21.702
8.1637 21.667
8.1789 21.226
8.1940 21.055
8.2092 21.815
8.2244 21.696
8.2396 21.875
8.2547 21.766
8.2699 22.171
8.2851 21.733
8.3003 21.605
8.3154 21.399
8.3306 21.531
8.3458 21.478
8.3610 21.433
8.3761 21.816
8.3913 21.709
8.4065 21.263
8.4217 21.916
8.4368 21.674
8.4520 22.203
8.4672 21.954
8.4824 22.025
8.4975 22.222
8.5127 21.723
8.5279 22.470
8.5431 22.368
8.5582 22.136
8.5734 21.858
8.5886 22.439
8.6038 21.800
8.6189 22.251
8.6341 22.190
8.6493 22.237
8.6645 22.442
8.6796 22.422
8.6948 21.874
8.7100 21.922
8.7252 22.150
8.7403 22.979
8.7555 22.264
8.7707 22.073
8.7859 22.953
8.8010 22.277
8.8162 22.088
8.8314 22.629
8.8466 22.327
8.8617 22.938
8.8769 22.463
8.8921 22.480
8.9073 22.547
8.9224 22.330
8.9376 22.648
8.9528 22.489
8.9680 22.119
8.9831 22.696
8.9983 23.238
9.0135 22.746
9.0287 22.508
9.0438 22.221
9.0590 22.854
9.0742 22.958
9.0894 22.779
9.1045 22.629
9.1197 22.685
9.1349 22.915
9.1501 22.675
9.1652 23.001
9.1804 22.963
9.1956 22.807
9.2108 22.917
9.2259 23.018
9.2411 22.951
9.2563 22.662
9.2715 22.776
9.2866 22.910
9.3018 23.359
9.3170 23.215
9.3322 23.104
9.3473 22.959
9.3625 23.207
9.3777 23.014
9.3929 23.213
9.4080 23.182
9.4232 23.439
9.4384 23.412
9.4536 23.071
9.4687 22.969
9.4839 22.943
9.4991 22.932
9.5143 23.417
9.5294 23.601
9.5446 23.398
9.5598 23.475
9.5750 23.334
9.5901 23.274
9.6053 23.498
9.6205 23.522
9.6357 23.707
9.6508 23.768
9.6660 23.684
9.6812 23.856
9.6964 24.049
9.7115 23.982
9.7267 24.068
9.7419 23.945
9.7571 23.887
9.7722 23.984
9.7874 24.008
9.8026 23.833
9.8178 23.723
9.8329 23.742
9.8481 23.607
9.8633 23.439
9.8785 23.209
9.8936 23.100
9.9088 23.286
9.9240 23.295
9.9392 23.064
9.9543 23.107
9.9695 23.159
9.9847 23.141
9.9999 23.247
10.0150 23.026
10.0302 22.666
10.0454 22.995
10.0606 23.412
10.0757 23.656
10.0909 23.763
10.1061 23.476
10.1213 23.581
10.1364 23.465
10.1516 23.208
10.1668 23.355
10.1820 23.392
10.1971 23.345
10.2123 23.165
10.2275 23.231
10.2427 23.373
10.2578 23.026
10.2730 22.882
10.2882 23.014
10.3034 23.025
10.3185 22.987
10.3337 22.836
10.3489 22.778
10.3641 22.565
10.3792 22.456
10.3944 22.907
10.4096 23.216
10.4248 23.101
10.4399 22.833
10.4551 22.649
10.4703 22.791
10.4855 22.890
10.5006 22.764
10.5158 22.828
10.5310 23.043
10.5462 22.954
10.5613 22.654
10.5765 22.554
10.5917 22.686
10.6069 22.645
10.6220 22.603
10.6372 22.589
10.6524 22.458
10.6676 22.307
10.6827 22.668
10.6979 22.635
10.7131 22.684
10.7283 22.671
10.7434 22.527
10.7586 22.422
10.7738 22.387
10.7890 22.058
10.8041 22.132
10.8193 22.271
10.8345 22.519
10.8497 22.608
10.8648 22.569
10.8800 22.339
10.8952 22.047
10.9104 22.207
10.9255 22.258
10.9407 21.959
10.9559 22.122
10.9711 21.960
10.9862 22.082
11.0014 22.116
11.0166 22.339
11.0318 22.192
11.0469 21.873
11.0621 21.869
11.0773 21.965
11.0925 21.638
11.1076 21.668
11.1228 22.068
11.1380 21.885
11.1532 21.605
11.1683 21.851
11.1835 21.776
11.1987 21.815
11.2139 22.059
11.2290 22.016
11.2442 21.819
11.2594 21.405
11.2746 21.351
11.2897 21.244
11.3049 21.630
11.3201 21.392
11.3353 21.448
11.3504 21.390
11.3656 21.499
11.3808 21.266
11.3960 21.243
11.4111 21.053
11.4263 21.202
11.4415 21.357
11.4567 21.030
11.4718 21.125
11.4870 21.446
11.5022 21.272
11.5174 20.963
11.5325 20.620
11.5477 21.285
11.5629 21.180
11.5781 21.075
11.5932 20.590
11.6084 20.674
11.6236 20.835
11.6388 20.783
11.6539 20.735
11.6691 20.929
11.6843 21.021
11.6995 20.882
11.7146 20.607
11.7298 20.321
11.7450 20.530
11.7602 20.497
11.7753 20.400
11.7905 20.233
11.8057 20.387
11.8209 20.275
11.8360 19.910
11.8512 19.865
11.8664 20.049
11.8816 20.069
11.8967 20.110
11.9119 19.977
11.9271 19.755
11.9423 19.765
11.9574 19.416
11.9726 19.233
11.9878 19.114
12.0030 19.086
12.0181 19.117
12.0333 19.139
12.0485 19.058
12.0637 19.056
12.0788 19.037
12.0940 18.565
12.1092 18.485
12.1244 18.477
12.1395 18.103
12.1547 18.392
12.1699 18.291
12.1851 18.004
12.2002 18.071
12.2154 18.377
12.2306 17.972
12.2458 18.079
12.2609 17.849
12.2761 17.763
12.2913 18.030
12.3065 17.718
12.3216 17.277
12.3368 17.459
12.3520 17.544
12.3672 17.676
12.3823 17.640
12.3975 17.172
12.4127 17.311
12.4279 17.384
12.4430 16.978
12.4582 16.664
12.4734 16.607
12.4886 16.572
12.5037 16.677
12.5189 16.765
12.5341 16.825
12.5493 16.569
12.5644 16.168
12.5796 16.447
12.5948 16.369
12.6100 16.047
12.6251 15.990
12.6403 16.024
12.6555 15.860
12.6707 15.705
12.6858 15.731
12.7010 15.735
12.7162 15.514
12.7314 15.371
12.7465 15.296
12.7617 15.591
12.7769 15.736
12.7921 15.216
12.8072 15.027
12.8224 15.045
12.8376 15.150
12.8528 15.068
12.8679 15.111
12.8831 15.013
12.8983 14.797
12.9135 14.784
12.9286 14.700
12.9438 14.574
12.9590 14.479
12.9742 14.447
12.9893 14.420
13.0045 14.549
13.0197 14.124
13.0349 13.851
13.0500 14.049
13.0652 13.740
13.0804 13.517
13.0956 13.641
13.1107 13.887
13.1259 13.620
13.1411 13.374
13.1563 13.437
13.1714 13.602
13.1866 13.872
13.2018 13.521
13.2170 13.259
13.2321 13.383
13.2473 13.470
13.2625 13.354
13.2777 13.208
13.2928 13.254
13.3080 13.218
13.3232 13.116
13.3384 13.222
13.3535 13.285
13.3687 12.978
13.3839 12.840
13.3991 12.851
13.4142 12.796
13.4294 12.893
13.4446 12.878
13.4598 12.760
13.4749 12.770
13.4901 12.760
13.5053 12.762
13.5205 12.558
13.5356 12.612
13.5508 12.730
13.5660 12.492
13.5812 12.314
13.5963 12.357
13.6115 12.217
13.6267 12.190
13.6419 12.183
13.6570 12.203
13.6722 12.088
13.6874 12.187
13.7026 12.302
13.7177 12.528
13.7329 12.231
13.7481 12.132
13.7633 12.208
13.7784 12.242
13.7936 12.007
13.8088 12.086
13.8239 12.399
13.8391 12.265
13.8543 12.372
13.8695 12.350
13.8846 12.478
13.8998 12.386
13.9150 12.231
13.9302 12.208
13.9453 11.957
13.9605 11.763
13.9757 11.788
13.9909 11.734
14.0060 11.880
14.0212 11.698
14.0364 11.444
14.0516 11.371
14.0667 11.502
14.0819 11.810
14.0971 11.620
14.1123 11.461
14.1274 11.532
14.1426 11.570
14.1578 11.530
14.1730 11.266
14.1881 11.286
14.2033 11.396
14.2185 11.627
14.2337 11.579
14.2488 11.823
14.2640 11.794
14.2792 11.847
14.2944 11.911
14.3095 11.929
14.3247 12.255
14.3399 12.561
14.3551 12.841
14.3702 12.953
14.3854 13.070
14.4006 13.237
14.4158 13.385
14.4309 13.507
14.4461 13.164
14.4613 13.197
14.4765 12.896
14.4916 12.680
14.5068 12.404
14.5220 12.016
14.5372 11.809
14.5523 11.617
14.5675 11.404
14.5827 11.213
14.5979 10.887
14.6130 10.662
14.6282 11.095
14.6434 10.928
14.6586 10.899
14.6737 10.687
14.6889 10.782
14.7041 10.730
14.7193 10.496
14.7344 10.862
14.7496 10.960
14.7648 10.735
14.7800 10.319
14.7951 10.740
14.8103 10.508
14.8255 10.339
14.8407 10.604
14.8558 10.621
14.8710 10.682
14.8862 10.696
14.9014 10.888
14.9165 10.351
14.9317 10.285
14.9469 10.528
14.9621 10.540
14.9772 10.273
14.9924 10.521
15.0076 10.513
15.0228 10.472
15.0379 10.166
15.0531 10.355
15.0683 10.211
15.0835 10.493
15.0986 10.403
15.1138 10.341
15.1290 10.033
15.1442 10.273
15.1593 10.220
15.1745 10.429
15.1897 10.110
15.2049 10.168
15.2200 10.033
15.2352 10.165
15.2504 10.474
15.2656 10.146
15.2807 10.511
15.2959 10.278
15.3111 10.062
15.3263 10.414
15.3414 10.235
15.3566 10.404
15.3718 9.966
15.3870 10.245
15.4021 9.992
15.4173 10.310
15.4325 10.669
15.4477 10.067
15.4628 10.090
15.4780 10.293
15.4932 10.128
15.5084 10.167
15.5235 10.033
15.5387 9.952
15.5539 10.119
15.5691 9.853
15.5842 9.961
15.5994 10.309
15.6146 10.163
15.6298 9.820
15.6449 9.797
15.6601 10.069
15.6753 10.033
15.6905 9.854
15.7056 9.778
15.7208 9.887
15.7360 9.751
15.7512 10.005
15.7663 9.594
15.7815 9.668
15.7967 9.772
15.8119 9.873
15.8270 9.659
15.8422 9.762
15.8574 9.704
15.8726 9.690
15.8877 9.533
15.9029 9.484
15.9181 9.520
15.9333 9.726
15.9484 9.495
15.9636 9.543
15.9788 9.503
15.9940 9.715
16.0091 9.659
16.0243 9.574
16.0395 9.576
16.0547 9.630
16.0698 9.397
16.0850 9.415
16.1002 9.619
16.1154 9.537
16.1305 9.563
16.1457 9.614
16.1609 9.734
16.1761 9.706
16.1912 9.585
16.2064 9.694
16.2216 9.743
16.2368 9.741
16.2519 9.837
16.2671 9.729
16.2823 9.876
16.2975 9.914
16.3126 9.868
16.3278 9.932
16.3430 10.127
16.3582 9.769
16.3733 9.721
16.3885 10.155
16.4037 10.216
16.4189 10.009
16.4340 9.764
16.4492 9.864
16.4644 9.727
16.4796 9.956
16.4947 9.814
16.5099 9.885
16.5251 9.799
16.5403 9.879
16.5554 10.074
16.5706 9.924
16.5858 9.796
16.6010 9.918
16.6161 9.892
16.6313 9.744
16.6465 9.621
16.6617 9.714
16.6768 9.765
16.6920 9.698
16.7072 9.964
16.7224 10.197
16.7375 10.006
16.7527 9.722
16.7679 9.745
16.7831 9.763
16.7982 9.871
16.8134 9.814
16.8286 9.778
16.8438 9.687
16.8589 9.804
16.8741 9.822
16.8893 9.859
16.9045 9.856
16.9196 9.719
16.9348 9.673
16.9500 9.626
16.9652 9.799
16.9803 9.863
16.9955 9.953
17.0107 9.969
17.0259 10.108
17.0410 10.106
17.0562 9.975
17.0714 9.887
17.0866 10.024
17.1017 10.240
17.1169 10.611
17.1321 10.749
17.1473 10.941
17.1624 11.623
17.1776 12.179
17.1928 12.939
17.2080 13.948
17.2231 14.973
17.2383 16.237
17.2535 17.398
17.2687 18.199
17.2838 18.564
17.2990 18.059
17.3142 16.738
17.3294 15.994
17.3445 16.012
17.3597 15.832
17.3749 15.597
17.3901 15.009
17.4052 14.075
17.4204 13.219
17.4356 12.437
17.4508 11.904
17.4659 11.607
17.4811 11.482
17.4963 11.290
17.5115 10.952
17.5266 11.041
17.5418 11.115
17.5570 10.842
17.5722 10.744
17.5873 10.820
17.6025 10.870
17.6177 10.721
17.6329 10.995
17.6480 11.569
17.6632 11.736
17.6784 11.870
17.6936 12.204
17.7087 12.160
17.7239 12.010
17.7391 11.853
17.7543 11.340
17.7694 11.053
17.7846 11.407
17.7998 11.776
17.8150 11.639
17.8301 11.172
17.8453 10.606
17.8605 10.301
17.8757 10.454
17.8908 10.529
17.9060 10.476
17.9212 10.413
17.9364 10.203
17.9515 10.261
17.9667 10.350
17.9819 10.412
17.9971 10.485
18.0122 10.325
18.0274 10.234
18.0426 10.129
18.0578 10.288
18.0729 10.335
18.0881 10.146
18.1033 10.005
18.1185 9.973
18.1336 10.170
18.1488 10.119
18.1640 10.037
18.1792 10.255
18.1943 10.054
18.2095 9.950
18.2247 9.908
18.2399 9.767
18.2550 10.045
18.2702 9.939
18.2854 9.668
18.3006 9.787
18.3157 9.987
18.3309 10.075
18.3461 10.072
18.3613 9.931
18.3764 9.871
18.3916 9.811
18.4068 9.946
18.4220 9.779
18.4371 9.767
18.4523 9.896
18.4675 9.795
18.4827 9.727
18.4978 9.967
18.5130 9.839
18.5282 9.904
18.5434 9.924
18.5585 9.732
18.5737 9.733
18.5889 9.772
18.6041 9.782
18.6192 9.765
18.6344 9.768
18.6496 9.803
18.6648 9.716
18.6799 9.607
18.6951 9.730
18.7103 9.591
18.7255 9.638
18.7406 9.818
18.7558 9.746
18.7710 9.624
18.7862 9.705
18.8013 9.586
18.8165 9.628
18.8317 9.826
18.8469 9.554
18.8620 9.776
18.8772 10.236
18.8924 10.157
18.9076 10.032
18.9227 10.092
18.9379 10.149
18.9531 10.163
18.9683 10.208
18.9834 10.035
18.9986 10.082
19.0138 10.165
19.0290 10.254
19.0441 10.367
19.0593 10.356
19.0745 10.196
19.0897 10.154
19.1048 10.191
19.1200 10.417
19.1352 10.607
19.1504 10.284
19.1655 10.338
19.1807 10.619
19.1959 10.611
19.2111 10.668
19.2262 10.750
19.2414 10.684
19.2566 10.857
19.2718 10.908
19.2869 10.823
19.3021 10.891
19.3173 11.062
19.3325 11.105
19.3476 10.946
19.3628 10.852
19.3780 10.880
19.3932 10.947
19.4083 11.111
19.4235 11.227
19.4387 11.193
19.4539 11.239
19.4690 11.178
19.4842 11.175
19.4994 11.216
19.5146 11.415
19.5297 11.418
19.5449 11.376
19.5601 11.656
19.5753 11.823
19.5904 11.598
19.6056 11.496
19.6208 11.472
19.6360 11.647
19.6511 11.750
19.6663 11.602
19.6815 11.774
19.6967 11.827
19.7118 11.659
19.7270 11.712
19.7422 11.600
19.7574 11.764
19.7725 12.147
19.7877 12.042
19.8029 12.245
19.8180 12.224
19.8332 12.101
19.8484 12.373
19.8636 12.326
19.8787 12.494
19.8939 12.770
19.9091 12.970
19.9243 13.361
19.9394 13.666
19.9546 14.135
19.9698 14.242
19.9850 14.222
20.0001 14.266
20.0153 14.017
20.0305 13.802
20.0457 13.803
20.0608 13.764
20.0760 13.620
20.0912 13.532
20.1064 13.488
20.1215 13.297
20.1367 13.293
20.1519 12.842
20.1671 12.760
20.1822 12.804
20.1974 12.670
20.2126 12.800
20.2278 12.831
20.2429 12.566
20.2581 12.162
20.2733 12.051
20.2885 11.922
20.3036 11.701
20.3188 11.597
20.3340 11.969
20.3492 12.066
20.3643 12.019
20.3795 12.222
20.3947 12.099
20.4099 11.686
20.4250 11.620
20.4402 11.802
20.4554 12.037
20.4706 12.107
20.4857 11.943
20.5009 12.236
20.5161 12.109
20.5313 11.541
20.5464 11.559
20.5616 11.587
20.5768 11.408
20.5920 11.295
20.6071 11.567
20.6223 11.635
20.6375 11.272
20.6527 10.771
20.6678 11.008
20.6830 10.781
20.6982 10.582
20.7134 10.569
20.7285 10.420
20.7437 10.463
20.7589 10.324
20.7741 10.070
20.7892 10.290
20.8044 10.625
20.8196 10.668
20.8348 10.525
20.8499 10.224
20.8651 10.494
20.8803 10.219
20.8955 10.392
20.9106 10.239
20.9258 10.154
20.9410 10.212
20.9562 10.340
20.9713 10.232
20.9865 9.972
21.0017 10.131
21.0169 10.063
21.0320 10.335
21.0472 10.127
21.0624 10.160
21.0776 9.853
21.0927 10.019
21.1079 9.589
21.1231 9.917
21.1383 10.184
21.1534 9.958
21.1686 9.964
21.1838 9.554
21.1990 9.804
21.2141 9.820
21.2293 9.945
21.2445 9.927
21.2597 9.651
21.2748 9.811
21.2900 9.701
21.3052 9.548
21.3204 9.722
21.3355 9.554
21.3507 9.521
21.3659 9.573
21.3811 9.496
21.3962 9.390
21.4114 9.582
21.4266 9.588
21.4418 9.721
21.4569 9.456
21.4721 9.261
21.4873 9.299
21.5025 9.438
21.5176 9.787
21.5328 9.330
21.5480 9.356
21.5632 9.475
21.5783 9.497
21.5935 9.467
21.6087 9.142
21.6239 9.456
21.6390 9.168
21.6542 9.199
21.6694 9.150
21.6846 9.258
21.6997 9.132
21.7149 9.255
21.7301 9.203
21.7453 8.893
21.7604 9.112
21.7756 9.178
21.7908 8.957
21.8060 8.920
21.8211 8.990
21.8363 9.044
21.8515 9.050
21.8667 9.215
21.8818 9.120
21.8970 8.898
21.9122 8.908
21.9274 8.898
21.9425 9.068
21.9577 9.065
21.9729 8.969
21.9881 9.059
22.0032 9.031
22.0184 8.988
22.0336 8.864
22.0488 8.729
22.0639 8.707
22.0791 8.620
22.0943 8.564
22.1095 8.646
22.1246 8.714
22.1398 8.563
22.1550 8.514
22.1702 8.649
22.1853 8.839
22.2005 8.774
22.2157 8.678
22.2309 8.466
22.2460 8.488
22.2612 8.440
22.2764 8.532
22.2916 8.495
22.3067 8.547
22.3219 8.595
22.3371 8.475
22.3523 8.361
22.3674 8.352
22.3826 8.410
22.3978 8.574
22.4130 8.479
22.4281 8.539
22.4433 8.259
22.4585 8.410
22.4737 8.408
22.4888 8.408
22.5040 8.260
22.5192 8.109
22.5344 8.586
22.5495 8.525
22.5647 8.476
22.5799 8.582
22.5951 8.385
22.6102 8.352
22.6254 8.445
22.6406 8.589
22.6558 8.214
22.6709 8.166
22.6861 8.494
22.7013 8.312
22.7165 7.746
22.7316 6.415
