'Id: "" Comment: "" Operator: "Lab Manager" Anode: "Mo" Scantype: "Still (Eiger2R_500K (1D mode))" TimePerStep: "300" X: "11.8" Y: "9.4" Z: "11.284" 
7.2532 18.423
7.2684 18.432
7.2836 18.372
7.2987 19.030
7.3139 18.520
7.3291 18.899
7.3443 19.035
7.3594 18.849
7.3746 18.991
7.3898 18.999
7.4050 19.283
7.4201 19.291
7.4353 19.586
7.4505 19.302
7.4657 19.571
7.4808 19.373
7.4960 19.397
7.5112 19.623
7.5264 19.959
7.5415 19.778
7.5567 19.604
7.5719 19.672
7.5871 19.931
7.6022 19.785
7.6174 19.910
7.6326 19.847
7.6478 20.101
7.6629 20.143
7.6781 20.221
7.6933 20.294
7.7085 20.352
7.7236 20.044
7.7388 19.895
7.7540 20.257
7.7692 20.333
7.7843 20.540
7.7995 20.279
7.8147 20.231
7.8299 20.423
7.8450 20.504
7.8602 20.788
7.8754 20.885
7.8905 20.828
7.9057 20.779
7.9209 20.737
7.9361 20.601
7.9512 20.666
7.9664 21.047
7.9816 21.124
7.9968 21.163
8.0119 21.297
8.0271 21.037
8.0423 20.956
8.0575 21.246
8.0726 21.031
8.0878 20.882
8.1030 21.003
8.1182 21.037
8.1333 21.249
8.1485 21.224
8.1637 21.350
8.1789 21.344
8.1940 21.741
8.2092 21.318
8.2244 21.070
8.2396 21.451
8.2547 21.372
8.2699 21.756
8.2851 21.535
8.3003 21.794
8.3154 21.676
8.3306 21.570
8.3458 21.716
8.3610 22.043
8.3761 21.976
8.3913 21.685
8.4065 21.748
8.4217 22.051
8.4368 21.626
8.4520 21.622
8.4672 21.684
8.4824 21.818
8.4975 21.831
8.5127 22.154
8.5279 21.480
8.5431 21.994
8.5582 22.173
8.5734 21.546
8.5886 22.130
8.6038 21.868
8.6189 22.609
8.6341 22.164
8.6493 22.239
8.6645 21.729
8.6796 22.065
8.6948 21.451
8.7100 21.821
8.7252 21.936
8.7403 22.325
8.7555 22.405
8.7707 22.393
8.7859 22.038
8.8010 21.985
8.8162 21.923
8.8314 22.067
8.8466 22.034
8.8617 22.136
8.8769 22.714
8.8921 22.287
8.9073 22.226
8.9224 22.470
8.9376 22.151
8.9528 22.693
8.9680 22.226
8.9831 22.138
8.9983 22.478
9.0135 22.723
9.0287 22.433
9.0438 22.391
9.0590 22.552
9.0742 22.559
9.0894 22.612
9.1045 22.547
9.1197 22.531
9.1349 22.700
9.1501 22.513
9.1652 22.727
9.1804 22.693
9.1956 22.755
9.2108 22.663
9.2259 22.722
9.2411 22.714
9.2563 22.395
9.2715 22.608
9.2866 22.834
9.3018 22.776
9.3170 22.833
9.3322 22.799
9.3473 22.650
9.3625 22.748
9.3777 23.165
9.3929 23.176
9.4080 23.041
9.4232 23.129
9.4384 22.676
9.4536 22.883
9.4687 23.099
9.4839 22.943
9.4991 23.066
9.5143 23.089
9.5294 23.194
9.5446 22.911
9.5598 22.911
9.5750 23.118
9.5901 23.275
9.6053 23.230
9.6205 23.266
9.6357 23.215
9.6508 23.395
9.6660 23.599
9.6812 23.514
9.6964 23.330
9.7115 23.650
9.7267 23.667
9.7419 23.420
9.7571 23.720
9.7722 23.862
9.7874 23.732
9.8026 23.594
9.8178 23.510
9.8329 23.454
9.8481 23.416
9.8633 23.407
9.8785 23.576
9.8936 23.318
9.9088 23.137
9.9240 23.244
9.9392 23.210
9.9543 23.276
9.9695 23.256
9.9847 23.238
9.9999 22.874
10.0150 22.703
10.0302 22.803
10.0454 22.769
10.0606 22.796
10.0757 22.910
10.0909 23.027
10.1061 23.041
10.1213 23.067
10.1364 23.124
10.1516 22.925
10.1668 23.356
10.1820 23.137
10.1971 23.071
10.2123 22.815
10.2275 22.882
10.2427 23.212
10.2578 23.090
10.2730 22.522
10.2882 22.668
10.3034 22.847
10.3185 22.769
10.3337 22.674
10.3489 22.676
10.3641 22.557
10.3792 22.563
10.3944 22.770
10.4096 22.480
10.4248 22.484
10.4399 22.361
10.4551 22.334
10.4703 22.440
10.4855 22.383
10.5006 22.449
10.5158 22.353
10.5310 22.613
10.5462 22.570
10.5613 22.392
10.5765 22.581
10.5917 22.396
10.6069 22.381
10.6220 22.491
10.6372 22.355
10.6524 22.590
10.6676 22.692
10.6827 22.420
10.6979 22.204
10.7131 22.334
10.7283 22.319
10.7434 22.271
10.7586 22.243
10.7738 22.593
10.7890 22.444
10.8041 22.430
10.8193 22.110
10.8345 22.276
10.8497 22.284
10.8648 22.209
10.8800 22.245
10.8952 22.140
10.9104 21.865
10.9255 21.786
10.9407 22.020
10.9559 21.930
10.9711 21.733
10.9862 22.134
11.0014 22.005
11.0166 21.700
11.0318 21.880
11.0469 22.023
11.0621 21.638
11.0773 21.721
11.0925 21.635
11.1076 21.414
11.1228 21.530
11.1380 21.648
11.1532 21.730
11.1683 21.919
11.1835 21.882
11.1987 21.877
11.2139 21.759
11.2290 21.823
11.2442 21.441
11.2594 21.481
11.2746 21.634
11.2897 21.587
11.3049 21.063
11.3201 21.316
11.3353 21.496
11.3504 21.731
11.3656 21.524
11.3808 21.716
11.3960 21.343
11.4111 21.160
11.4263 21.437
11.4415 21.309
11.4567 21.353
11.4718 21.464
11.4870 21.103
11.5022 21.222
11.5174 20.790
11.5325 20.761
11.5477 20.674
11.5629 20.800
11.5781 20.542
11.5932 20.266
11.6084 20.256
11.6236 20.771
11.6388 20.695
11.6539 20.474
11.6691 20.746
11.6843 20.653
11.6995 20.360
11.7146 20.406
11.7298 20.261
11.7450 20.552
11.7602 20.508
11.7753 20.298
11.7905 20.051
11.8057 20.035
11.8209 20.030
11.8360 19.807
11.8512 19.883
11.8664 20.145
11.8816 19.756
11.8967 19.687
11.9119 19.449
11.9271 19.082
11.9423 19.048
11.9574 19.270
11.9726 19.070
11.9878 19.080
12.0030 19.192
12.0181 18.990
12.0333 18.898
12.0485 19.252
12.0637 19.063
12.0788 19.009
12.0940 18.455
12.1092 18.624
12.1244 18.580
12.1395 18.435
12.1547 18.417
12.1699 18.169
12.1851 17.999
12.2002 18.204
12.2154 17.979
12.2306 17.964
12.2458 18.073
12.2609 18.042
12.2761 18.078
12.2913 18.056
12.3065 17.886
12.3216 17.546
12.3368 17.516
12.3520 17.386
12.3672 17.350
12.3823 17.561
12.3975 17.354
12.4127 17.058
12.4279 17.090
12.4430 16.800
12.4582 16.607
12.4734 16.717
12.4886 16.687
12.5037 16.398
12.5189 16.449
12.5341 16.326
12.5493 16.409
12.5644 16.514
12.5796 16.115
12.5948 16.072
12.6100 16.254
12.6251 16.295
12.6403 16.019
12.6555 15.867
12.6707 15.801
12.6858 15.959
12.7010 15.808
12.7162 15.462
12.7314 15.318
12.7465 15.292
12.7617 15.403
12.7769 15.521
12.7921 15.551
12.8072 15.080
12.8224 14.710
12.8376 14.831
12.8528 14.908
12.8679 14.838
12.8831 14.822
12.8983 14.783
12.9135 14.862
12.9286 14.695
12.9438 14.493
12.9590 14.564
12.9742 14.479
12.9893 14.497
13.0045 14.460
13.0197 14.017
13.0349 13.852
13.0500 13.995
13.0652 13.958
13.0804 13.874
13.0956 13.851
13.1107 13.980
13.1259 14.033
13.1411 13.808
13.1563 13.516
13.1714 13.392
13.1866 13.259
13.2018 13.386
13.2170 13.413
13.2321 13.158
13.2473 13.087
13.2625 13.141
13.2777 13.296
13.2928 13.220
13.3080 13.175
13.3232 13.203
13.3384 13.009
13.3535 13.019
13.3687 13.046
13.3839 12.799
13.3991 12.978
13.4142 12.835
13.4294 12.691
13.4446 12.820
13.4598 12.929
13.4749 12.978
13.4901 12.815
13.5053 12.363
13.5205 12.286
13.5356 12.461
13.5508 12.464
13.5660 12.184
13.5812 12.159
13.5963 12.433
13.6115 12.283
13.6267 12.299
13.6419 12.302
13.6570 12.006
13.6722 12.012
13.6874 11.818
13.7026 12.118
13.7177 12.204
13.7329 12.170
13.7481 12.266
13.7633 12.168
13.7784 12.236
13.7936 11.979
13.8088 12.076
13.8239 12.305
13.8391 12.431
13.8543 12.324
13.8695 12.138
13.8846 12.316
13.8998 12.075
13.9150 11.934
13.9302 11.842
13.9453 11.824
13.9605 11.426
13.9757 11.546
13.9909 11.690
14.0060 11.547
14.0212 11.435
14.0364 11.522
14.0516 11.610
14.0667 11.706
14.0819 11.541
14.0971 11.677
14.1123 11.764
14.1274 11.556
14.1426 11.417
14.1578 11.516
14.1730 11.698
14.1881 11.901
14.2033 11.855
14.2185 11.893
14.2337 11.674
14.2488 11.704
14.2640 11.687
14.2792 11.692
14.2944 11.849
14.3095 11.938
14.3247 12.197
14.3399 12.459
14.3551 12.341
14.3702 12.357
14.3854 12.790
14.4006 13.360
14.4158 13.090
14.4309 12.746
14.4461 12.803
14.4613 12.369
14.4765 12.379
14.4916 12.515
14.5068 12.115
14.5220 11.725
14.5372 11.555
14.5523 11.186
14.5675 10.737
14.5827 10.746
14.5979 11.120
14.6130 11.109
14.6282 10.888
14.6434 10.832
14.6586 10.690
14.6737 10.567
14.6889 10.313
14.7041 10.647
14.7193 10.672
14.7344 10.508
14.7496 10.586
14.7648 10.504
14.7800 10.582
14.7951 10.518
14.8103 10.637
14.8255 10.333
14.8407 10.395
14.8558 10.484
14.8710 10.160
14.8862 10.514
14.9014 10.384
14.9165 10.351
14.9317 10.694
14.9469 10.630
14.9621 10.569
14.9772 10.129
14.9924 10.216
15.0076 10.364
15.0228 10.384
15.0379 10.643
15.0531 10.194
15.0683 10.415
15.0835 10.201
15.0986 10.148
15.1138 9.905
15.1290 9.924
15.1442 10.259
15.1593 10.086
15.1745 10.268
15.1897 10.175
15.2049 10.204
15.2200 10.064
15.2352 10.070
15.2504 9.890
15.2656 10.271
15.2807 10.296
15.2959 9.898
15.3111 10.169
15.3263 9.874
15.3414 10.346
15.3566 10.127
15.3718 9.937
15.3870 9.987
15.4021 10.084
15.4173 9.990
15.4325 10.243
15.4477 10.231
15.4628 10.015
15.4780 9.943
15.4932 10.064
15.5084 10.172
15.5235 10.040
15.5387 9.989
15.5539 10.124
15.5691 9.899
15.5842 9.752
15.5994 9.921
15.6146 10.161
15.6298 9.913
15.6449 9.592
15.6601 9.793
15.6753 10.058
15.6905 9.683
15.7056 9.670
15.7208 9.749
15.7360 9.573
15.7512 9.485
15.7663 9.388
15.7815 9.484
15.7967 9.835
15.8119 9.636
15.8270 10.094
15.8422 9.962
15.8574 9.885
15.8726 9.729
15.8877 9.349
15.9029 9.483
15.9181 9.627
15.9333 9.588
15.9484 9.440
15.9636 9.248
15.9788 9.596
15.9940 9.582
16.0091 9.631
16.0243 9.682
16.0395 9.606
16.0547 9.424
16.0698 9.618
16.0850 9.464
16.1002 9.549
16.1154 9.636
16.1305 9.699
16.1457 9.826
16.1609 9.445
16.1761 9.623
16.1912 9.654
16.2064 9.720
16.2216 9.700
16.2368 9.654
16.2519 9.595
16.2671 9.442
16.2823 9.691
16.2975 9.600
16.3126 9.489
16.3278 9.620
16.3430 9.522
16.3582 9.661
16.3733 9.673
16.3885 9.822
16.4037 9.767
16.4189 9.740
16.4340 9.754
16.4492 9.624
16.4644 9.649
16.4796 9.756
16.4947 9.832
16.5099 9.758
16.5251 9.845
16.5403 9.541
16.5554 9.340
16.5706 9.502
16.5858 9.641
16.6010 9.677
16.6161 9.800
16.6313 9.647
16.6465 9.830
16.6617 9.930
16.6768 9.960
16.6920 9.972
16.7072 9.722
16.7224 9.841
16.7375 10.027
16.7527 9.769
16.7679 9.750
16.7831 9.800
16.7982 9.987
16.8134 9.915
16.8286 10.083
16.8438 10.000
16.8589 9.739
16.8741 9.858
16.8893 9.650
16.9045 9.725
16.9196 9.851
16.9348 9.780
16.9500 9.762
16.9652 9.742
16.9803 9.843
16.9955 9.915
17.0107 9.945
17.0259 9.975
17.0410 10.023
17.0562 10.007
17.0714 10.124
17.0866 10.293
17.1017 10.658
17.1169 10.757
17.1321 10.699
17.1473 11.186
17.1624 11.633
17.1776 12.005
17.1928 12.666
17.2080 13.709
17.2231 15.002
17.2383 16.222
17.2535 17.503
17.2687 18.605
17.2838 18.692
17.2990 17.927
17.3142 16.911
17.3294 16.277
17.3445 16.103
17.3597 16.002
17.3749 16.041
17.3901 15.596
17.4052 14.361
17.4204 13.211
17.4356 12.583
17.4508 12.269
17.4659 11.849
17.4811 11.497
17.4963 11.454
17.5115 11.497
17.5266 11.398
17.5418 11.081
17.5570 10.894
17.5722 10.991
17.5873 11.073
17.6025 10.881
17.6177 11.057
17.6329 11.374
17.6480 11.129
17.6632 11.155
17.6784 11.571
17.6936 11.574
17.7087 11.521
17.7239 11.358
17.7391 11.117
17.7543 10.996
17.7694 10.791
17.7846 10.789
17.7998 10.885
17.8150 10.849
17.8301 10.550
17.8453 10.377
17.8605 10.415
17.8757 10.190
17.8908 10.017
17.9060 10.193
17.9212 10.239
17.9364 10.205
17.9515 10.026
17.9667 10.113
17.9819 10.317
17.9971 10.383
18.0122 10.380
18.0274 10.140
18.0426 10.062
18.0578 10.183
18.0729 10.105
18.0881 10.160
18.1033 9.918
18.1185 9.986
18.1336 10.190
18.1488 10.019
18.1640 10.002
18.1792 10.147
18.1943 9.878
18.2095 9.834
18.2247 9.869
18.2399 9.904
18.2550 9.898
18.2702 9.818
18.2854 9.651
18.3006 9.525
18.3157 9.632
18.3309 9.817
18.3461 9.897
18.3613 9.885
18.3764 9.726
18.3916 9.569
18.4068 9.551
18.4220 9.769
18.4371 9.624
18.4523 9.624
18.4675 9.755
18.4827 9.821
18.4978 9.820
18.5130 9.754
18.5282 9.583
18.5434 9.646
18.5585 9.708
18.5737 9.621
18.5889 9.741
18.6041 9.656
18.6192 9.609
18.6344 9.502
18.6496 9.678
18.6648 9.812
18.6799 9.540
18.6951 9.630
18.7103 9.891
18.7255 9.936
18.7406 9.703
18.7558 9.705
18.7710 9.884
18.7862 9.894
18.8013 9.586
18.8165 9.372
18.8317 9.731
18.8469 9.923
18.8620 10.054
18.8772 10.140
18.8924 10.123
18.9076 9.844
18.9227 9.753
18.9379 10.039
18.9531 9.908
18.9683 9.781
18.9834 10.094
18.9986 10.114
19.0138 9.903
19.0290 10.030
19.0441 9.971
19.0593 10.134
19.0745 10.326
19.0897 10.217
19.1048 10.375
19.1200 10.372
19.1352 10.344
19.1504 10.344
19.1655 10.377
19.1807 10.546
19.1959 10.882
19.2111 10.702
19.2262 10.686
19.2414 10.721
19.2566 10.637
19.2718 10.678
19.2869 10.713
19.3021 10.762
19.3173 10.783
19.3325 10.731
19.3476 10.901
19.3628 11.084
19.3780 11.207
19.3932 11.239
19.4083 11.119
19.4235 11.212
19.4387 11.101
19.4539 10.935
19.4690 11.100
19.4842 11.340
19.4994 11.561
19.5146 11.486
19.5297 11.364
19.5449 11.343
19.5601 11.351
19.5753 11.304
19.5904 11.309
19.6056 11.585
19.6208 11.763
19.6360 11.527
19.6511 11.534
19.6663 11.795
19.6815 11.525
19.6967 11.466
19.7118 11.679
19.7270 11.652
19.7422 11.904
19.7574 12.091
19.7725 11.982
19.7877 11.800
19.8029 11.706
19.8180 11.865
19.8332 12.047
19.8484 12.229
19.8636 12.372
19.8787 12.681
19.8939 13.005
19.9091 13.176
19.9243 13.368
19.9394 13.456
19.9546 13.827
19.9698 14.234
19.9850 14.376
20.0001 14.317
20.0153 14.057
20.0305 13.843
20.0457 13.663
20.0608 13.695
20.0760 13.722
20.0912 13.629
20.1064 13.548
20.1215 13.753
20.1367 13.386
20.1519 12.966
20.1671 12.704
20.1822 12.746
20.1974 12.636
20.2126 12.636
20.2278 12.763
20.2429 12.803
20.2581 12.745
20.2733 12.413
20.2885 12.030
20.3036 11.776
20.3188 11.817
20.3340 11.915
20.3492 12.140
20.3643 11.913
20.3795 11.861
20.3947 11.722
20.4099 11.704
20.4250 11.635
20.4402 11.784
20.4554 11.825
20.4706 11.908
20.4857 11.933
20.5009 11.748
20.5161 11.546
20.5313 11.367
20.5464 11.279
20.5616 11.343
20.5768 11.313
20.5920 11.052
20.6071 10.776
20.6223 10.767
20.6375 10.912
20.6527 11.046
20.6678 10.881
20.6830 10.626
20.6982 10.481
20.7134 10.371
20.7285 10.520
20.7437 10.221
20.7589 10.375
20.7741 10.395
20.7892 10.380
20.8044 10.416
20.8196 10.051
20.8348 10.252
20.8499 10.375
20.8651 9.934
20.8803 10.098
20.8955 10.239
20.9106 9.966
20.9258 10.155
20.9410 10.459
20.9562 10.281
20.9713 10.275
20.9865 10.288
21.0017 10.010
21.0169 10.259
21.0320 9.790
21.0472 10.038
21.0624 10.039
21.0776 9.996
21.0927 9.834
21.1079 10.033
21.1231 9.791
21.1383 9.940
21.1534 10.017
21.1686 9.482
21.1838 9.801
21.1990 9.673
21.2141 9.611
21.2293 9.460
21.2445 9.823
21.2597 9.950
21.2748 9.429
21.2900 9.560
21.3052 9.705
21.3204 9.866
21.3355 9.625
21.3507 9.515
21.3659 9.594
21.3811 9.152
21.3962 9.726
21.4114 9.508
21.4266 9.535
21.4418 9.783
21.4569 9.206
21.4721 9.165
21.4873 9.374
21.5025 9.618
21.5176 9.507
21.5328 9.487
21.5480 9.299
21.5632 9.191
21.5783 9.305
21.5935 9.408
21.6087 9.170
21.6239 9.072
21.6390 9.069
21.6542 9.115
21.6694 9.140
21.6846 9.266
21.6997 9.210
21.7149 9.139
21.7301 9.185
21.7453 9.113
21.7604 9.024
21.7756 8.966
21.7908 9.043
21.8060 8.884
21.8211 8.854
21.8363 8.940
21.8515 9.087
21.8667 9.120
21.8818 9.044
21.8970 9.052
21.9122 9.106
21.9274 9.090
21.9425 8.873
21.9577 9.015
21.9729 9.057
21.9881 8.840
22.0032 8.706
22.0184 8.815
22.0336 8.808
22.0488 8.775
22.0639 8.758
22.0791 8.697
22.0943 8.678
22.1095 8.575
22.1246 8.620
22.1398 8.858
22.1550 8.827
22.1702 8.731
22.1853 8.617
22.2005 8.591
22.2157 8.494
22.2309 8.307
22.2460 8.342
22.2612 8.420
22.2764 8.440
22.2916 8.546
22.3067 8.764
22.3219 8.604
22.3371 8.375
22.3523 8.509
22.3674 8.323
22.3826 8.355
22.3978 8.271
22.4130 8.523
22.4281 8.435
22.4433 8.397
22.4585 8.557
22.4737 8.450
22.4888 8.379
22.5040 8.587
22.5192 8.449
22.5344 8.586
22.5495 8.468
22.5647 8.348
22.5799 8.684
22.5951 8.357
22.6102 8.366
22.6254 8.180
22.6406 8.173
22.6558 8.195
22.6709 8.048
22.6861 8.262
22.7013 8.195
22.7165 7.999
22.7316 6.578
