'Id: "" Comment: "" Operator: "Lab Manager" Anode: "Mo" Scantype: "Still (Eiger2R_500K (1D mode))" TimePerStep: "300" X: "11.8" Y: "9.4" Z: "11.284" 
7.2532 18.618
7.2684 18.418
7.2836 18.680
7.2987 19.140
7.3139 18.988
7.3291 19.298
7.3443 19.224
7.3594 19.309
7.3746 19.104
7.3898 19.038
7.4050 18.954
7.4201 19.233
7.4353 19.643
7.4505 18.987
7.4657 19.240
7.4808 19.527
7.4960 19.977
7.5112 20.035
7.5264 20.018
7.5415 19.811
7.5567 19.476
7.5719 19.698
7.5871 19.745
7.6022 20.104
7.6174 19.806
7.6326 19.914
7.6478 20.088
7.6629 20.000
7.6781 20.151
7.6933 20.163
7.7085 20.244
7.7236 20.438
7.7388 20.341
7.7540 20.248
7.7692 20.571
7.7843 20.396
7.7995 20.471
7.8147 20.513
7.8299 20.333
7.8450 20.392
7.8602 20.787
7.8754 20.645
7.8905 20.467
7.9057 20.717
7.9209 20.934
7.9361 20.781
7.9512 20.757
7.9664 20.696
7.9816 20.476
7.9968 20.407
8.0119 20.581
8.0271 21.155
8.0423 21.114
8.0575 21.037
8.0726 21.109
8.0878 21.037
8.1030 20.887
8.1182 21.161
8.1333 21.372
8.1485 21.187
8.1637 21.529
8.1789 21.145
8.1940 21.348
8.2092 21.686
8.2244 21.424
8.2396 21.403
8.2547 21.677
8.2699 21.381
8.2851 21.525
8.3003 21.660
8.3154 21.890
8.3306 21.253
8.3458 21.445
8.3610 21.885
8.3761 21.542
8.3913 21.421
8.4065 21.610
8.4217 21.550
8.4368 21.759
8.4520 21.691
8.4672 22.302
8.4824 22.415
8.4975 21.851
8.5127 22.136
8.5279 21.714
8.5431 21.677
8.5582 21.988
8.5734 21.755
8.5886 22.586
8.6038 21.519
8.6189 21.703
8.6341 22.263
8.6493 22.204
8.6645 22.184
8.6796 22.287
8.6948 22.427
8.7100 22.018
8.7252 22.098
8.7403 22.082
8.7555 22.702
8.7707 22.637
8.7859 22.574
8.8010 22.364
8.8162 22.138
8.8314 22.201
8.8466 22.410
8.8617 21.952
8.8769 21.955
8.8921 22.400
8.9073 22.756
8.9224 22.565
8.9376 22.445
8.9528 22.404
8.9680 22.433
8.9831 22.620
8.9983 22.407
9.0135 22.264
9.0287 22.152
9.0438 22.375
9.0590 22.682
9.0742 22.895
9.0894 22.746
9.1045 23.120
9.1197 22.884
9.1349 22.681
9.1501 22.563
9.1652 22.546
9.1804 22.723
9.1956 23.010
9.2108 22.992
9.2259 22.746
9.2411 22.838
9.2563 22.908
9.2715 22.539
9.2866 22.502
9.3018 22.899
9.3170 22.980
9.3322 22.818
9.3473 22.823
9.3625 23.123
9.3777 23.086
9.3929 23.091
9.4080 22.913
9.4232 22.951
9.4384 23.090
9.4536 23.073
9.4687 23.075
9.4839 23.141
9.4991 22.933
9.5143 22.952
9.5294 22.900
9.5446 22.932
9.5598 23.309
9.5750 23.640
9.5901 23.278
9.6053 23.294
9.6205 23.430
9.6357 23.316
9.6508 23.087
9.6660 23.242
9.6812 23.517
9.6964 23.841
9.7115 24.023
9.7267 23.851
9.7419 23.790
9.7571 24.246
9.7722 24.175
9.7874 23.652
9.8026 23.521
9.8178 23.541
9.8329 23.284
9.8481 22.869
9.8633 23.031
9.8785 23.275
9.8936 23.327
9.9088 23.347
9.9240 23.263
9.9392 23.341
9.9543 23.172
9.9695 23.156
9.9847 23.140
9.9999 23.052
10.0150 23.225
10.0302 23.129
10.0454 22.867
10.0606 22.917
10.0757 22.935
10.0909 23.042
10.1061 23.186
10.1213 23.664
10.1364 23.623
10.1516 23.540
10.1668 23.125
10.1820 23.012
10.1971 23.256
10.2123 23.019
10.2275 23.057
10.2427 23.159
10.2578 22.895
10.2730 22.748
10.2882 22.818
10.3034 22.818
10.3185 22.733
10.3337 22.757
10.3489 22.876
10.3641 23.192
10.3792 23.017
10.3944 22.797
10.4096 22.862
10.4248 22.666
10.4399 22.767
10.4551 22.637
10.4703 22.352
10.4855 22.538
10.5006 22.481
10.5158 22.487
10.5310 22.605
10.5462 22.262
10.5613 22.633
10.5765 22.371
10.5917 22.049
10.6069 22.167
10.6220 22.216
10.6372 22.291
10.6524 22.313
10.6676 22.214
10.6827 22.487
10.6979 22.268
10.7131 22.535
10.7283 22.680
10.7434 22.450
10.7586 22.394
10.7738 22.164
10.7890 21.926
10.8041 21.986
10.8193 22.052
10.8345 22.222
10.8497 22.327
10.8648 22.307
10.8800 22.303
10.8952 22.146
10.9104 22.337
10.9255 22.274
10.9407 22.431
10.9559 21.776
10.9711 21.741
10.9862 21.833
11.0014 21.713
11.0166 22.003
11.0318 21.951
11.0469 21.986
11.0621 21.699
11.0773 21.378
11.0925 21.682
11.1076 21.372
11.1228 21.538
11.1380 21.806
11.1532 21.774
11.1683 21.854
11.1835 21.645
11.1987 21.703
11.2139 21.865
11.2290 21.694
11.2442 21.588
11.2594 21.653
11.2746 21.953
11.2897 21.529
11.3049 21.515
11.3201 21.384
11.3353 21.395
11.3504 21.514
11.3656 21.439
11.3808 20.599
11.3960 21.178
11.4111 21.082
11.4263 21.072
11.4415 21.398
11.4567 21.272
11.4718 21.184
11.4870 21.143
11.5022 21.002
11.5174 20.731
11.5325 20.862
11.5477 20.562
11.5629 20.681
11.5781 21.076
11.5932 20.853
11.6084 20.803
11.6236 20.815
11.6388 20.573
11.6539 20.460
11.6691 20.370
11.6843 20.261
11.6995 20.043
11.7146 20.270
11.7298 20.404
11.7450 20.298
11.7602 20.165
11.7753 19.909
11.7905 19.877
11.8057 19.917
11.8209 19.865
11.8360 19.763
11.8512 19.949
11.8664 19.913
11.8816 19.974
11.8967 19.553
11.9119 19.615
11.9271 19.776
11.9423 19.513
11.9574 19.511
11.9726 19.479
11.9878 19.546
12.0030 19.391
12.0181 18.882
12.0333 19.021
12.0485 19.166
12.0637 19.058
12.0788 18.941
12.0940 18.845
12.1092 18.687
12.1244 18.697
12.1395 18.513
12.1547 18.381
12.1699 18.411
12.1851 18.340
12.2002 18.285
12.2154 18.189
12.2306 17.972
12.2458 17.819
12.2609 17.862
12.2761 17.607
12.2913 17.885
12.3065 17.894
12.3216 18.024
12.3368 17.993
12.3520 17.474
12.3672 17.259
12.3823 17.255
12.3975 17.097
12.4127 17.071
12.4279 17.058
12.4430 16.807
12.4582 16.915
12.4734 16.720
12.4886 16.658
12.5037 16.353
12.5189 16.345
12.5341 16.517
12.5493 16.320
12.5644 16.041
12.5796 16.195
12.5948 16.419
12.6100 16.309
12.6251 16.188
12.6403 15.950
12.6555 15.723
12.6707 15.830
12.6858 15.906
12.7010 15.651
12.7162 15.407
12.7314 15.524
12.7465 15.442
12.7617 15.246
12.7769 15.314
12.7921 15.252
12.8072 15.352
12.8224 15.306
12.8376 15.095
12.8528 14.783
12.8679 14.715
12.8831 14.963
12.8983 14.766
12.9135 14.594
12.9286 14.776
12.9438 14.661
12.9590 14.459
12.9742 14.378
12.9893 14.381
13.0045 14.265
13.0197 14.313
13.0349 14.429
13.0500 14.257
13.0652 14.100
13.0804 14.099
13.0956 14.115
13.1107 13.893
13.1259 13.677
13.1411 13.772
13.1563 13.834
13.1714 13.812
13.1866 13.651
13.2018 13.542
13.2170 13.503
13.2321 13.404
13.2473 13.425
13.2625 13.193
13.2777 13.165
13.2928 13.171
13.3080 12.979
13.3232 13.089
13.3384 13.245
13.3535 13.105
13.3687 12.993
13.3839 12.902
13.3991 12.886
13.4142 13.091
13.4294 12.781
13.4446 12.753
13.4598 12.707
13.4749 12.638
13.4901 12.715
13.5053 12.503
13.5205 12.399
13.5356 12.495
13.5508 12.173
13.5660 12.037
13.5812 11.926
13.5963 11.940
13.6115 12.310
13.6267 12.420
13.6419 12.283
13.6570 12.099
13.6722 11.975
13.6874 12.052
13.7026 12.169
13.7177 12.200
13.7329 12.199
13.7481 12.130
13.7633 12.070
13.7784 12.209
13.7936 12.231
13.8088 12.311
13.8239 12.250
13.8391 12.135
13.8543 12.222
13.8695 12.525
13.8846 12.304
13.8998 12.167
13.9150 12.074
13.9302 11.988
13.9453 11.952
13.9605 11.992
13.9757 11.710
13.9909 11.822
14.0060 11.693
14.0212 11.519
14.0364 11.518
14.0516 11.741
14.0667 11.638
14.0819 11.588
14.0971 11.624
14.1123 11.598
14.1274 11.598
14.1426 11.573
14.1578 11.545
14.1730 11.530
14.1881 11.713
14.2033 11.646
14.2185 11.549
14.2337 11.743
14.2488 11.759
14.2640 11.752
14.2792 11.901
14.2944 12.278
14.3095 12.040
14.3247 12.239
14.3399 12.369
14.3551 12.476
14.3702 12.732
14.3854 13.146
14.4006 13.441
14.4158 13.179
14.4309 13.117
14.4461 12.568
14.4613 12.535
14.4765 12.237
14.4916 11.867
14.5068 12.067
14.5220 11.754
14.5372 11.662
14.5523 11.204
14.5675 10.904
14.5827 10.726
14.5979 10.761
14.6130 10.836
14.6282 10.774
14.6434 10.887
14.6586 10.509
14.6737 10.676
14.6889 10.881
14.7041 10.686
14.7193 10.691
14.7344 10.705
14.7496 10.641
14.7648 10.592
14.7800 10.480
14.7951 10.439
14.8103 10.762
14.8255 10.580
14.8407 10.528
14.8558 10.453
14.8710 10.604
14.8862 10.736
14.9014 10.850
14.9165 10.469
14.9317 10.909
14.9469 10.441
14.9621 10.395
14.9772 10.267
14.9924 10.538
15.0076 10.292
15.0228 10.593
15.0379 10.127
15.0531 10.215
15.0683 9.964
15.0835 10.436
15.0986 10.235
15.1138 10.079
15.1290 10.094
15.1442 9.944
15.1593 10.151
15.1745 9.683
15.1897 10.191
15.2049 10.103
15.2200 9.950
15.2352 10.069
15.2504 10.179
15.2656 9.983
15.2807 10.062
15.2959 10.127
15.3111 10.148
15.3263 10.071
15.3414 10.036
15.3566 10.076
15.3718 9.766
15.3870 10.217
15.4021 10.511
15.4173 9.958
15.4325 10.119
15.4477 10.265
15.4628 9.877
15.4780 10.217
15.4932 10.010
15.5084 10.387
15.5235 10.136
15.5387 9.922
15.5539 10.004
15.5691 10.049
15.5842 9.685
15.5994 9.915
15.6146 9.657
15.6298 9.688
15.6449 9.841
15.6601 9.947
15.6753 9.626
15.6905 9.856
15.7056 9.929
15.7208 9.771
15.7360 9.690
15.7512 9.671
15.7663 9.485
15.7815 9.807
15.7967 9.646
15.8119 9.552
15.8270 9.582
15.8422 9.813
15.8574 9.640
15.8726 9.627
15.8877 9.372
15.9029 9.527
15.9181 9.527
15.9333 9.619
15.9484 9.449
15.9636 9.494
15.9788 9.692
15.9940 9.697
16.0091 9.607
16.0243 9.549
16.0395 9.878
16.0547 9.785
16.0698 9.430
16.0850 9.811
16.1002 9.630
16.1154 9.262
16.1305 9.310
16.1457 9.730
16.1609 9.797
16.1761 9.434
16.1912 9.323
16.2064 9.359
16.2216 9.446
16.2368 9.728
16.2519 9.687
16.2671 9.503
16.2823 9.773
16.2975 9.769
16.3126 9.796
16.3278 9.576
16.3430 9.331
16.3582 9.517
16.3733 9.865
16.3885 9.919
16.4037 9.579
16.4189 9.828
16.4340 9.740
16.4492 9.522
16.4644 9.443
16.4796 9.680
16.4947 9.585
16.5099 9.661
16.5251 9.866
16.5403 9.814
16.5554 9.669
16.5706 9.498
16.5858 9.671
16.6010 9.805
16.6161 9.650
16.6313 9.493
16.6465 9.517
16.6617 9.636
16.6768 9.516
16.6920 9.783
16.7072 10.076
16.7224 9.952
16.7375 9.808
16.7527 9.837
16.7679 9.880
16.7831 9.750
16.7982 9.956
16.8134 10.114
16.8286 9.912
16.8438 9.922
16.8589 9.708
16.8741 9.609
16.8893 9.803
16.9045 9.786
16.9196 9.923
16.9348 10.041
16.9500 9.882
16.9652 9.750
16.9803 9.667
16.9955 9.749
17.0107 9.922
17.0259 9.785
17.0410 9.753
17.0562 10.044
17.0714 10.261
17.0866 10.452
17.1017 10.533
17.1169 10.745
17.1321 11.002
17.1473 11.211
17.1624 11.576
17.1776 12.422
17.1928 13.319
17.2080 13.802
17.2231 14.685
17.2383 16.225
17.2535 17.570
17.2687 18.436
17.2838 18.687
17.2990 17.848
17.3142 17.135
17.3294 16.514
17.3445 15.885
17.3597 15.989
17.3749 15.873
17.3901 15.231
17.4052 14.406
17.4204 13.645
17.4356 12.710
17.4508 12.019
17.4659 11.802
17.4811 11.674
17.4963 11.610
17.5115 11.417
17.5266 11.185
17.5418 10.812
17.5570 10.826
17.5722 11.152
17.5873 11.071
17.6025 11.001
17.6177 11.133
17.6329 11.161
17.6480 11.049
17.6632 11.222
17.6784 11.531
17.6936 11.653
17.7087 11.593
17.7239 11.231
17.7391 11.141
17.7543 11.267
17.7694 11.282
17.7846 11.204
17.7998 10.900
17.8150 10.701
17.8301 10.576
17.8453 10.284
17.8605 10.292
17.8757 10.260
17.8908 10.195
17.9060 10.217
17.9212 10.167
17.9364 10.165
17.9515 9.910
17.9667 9.949
17.9819 10.127
17.9971 10.244
18.0122 10.410
18.0274 10.310
18.0426 10.271
18.0578 10.112
18.0729 9.968
18.0881 10.026
18.1033 10.109
18.1185 10.080
18.1336 10.189
18.1488 10.122
18.1640 10.110
18.1792 9.919
18.1943 9.919
18.2095 10.019
18.2247 9.807
18.2399 9.808
18.2550 9.794
18.2702 9.746
18.2854 9.838
18.3006 9.768
18.3157 9.838
18.3309 9.969
18.3461 9.869
18.3613 9.829
18.3764 9.849
18.3916 9.856
18.4068 9.829
18.4220 9.848
18.4371 9.862
18.4523 9.895
18.4675 9.890
18.4827 9.800
18.4978 9.943
18.5130 9.970
18.5282 9.825
18.5434 9.871
18.5585 9.843
18.5737 9.569
18.5889 9.697
18.6041 9.841
18.6192 9.745
18.6344 9.563
18.6496 9.645
18.6648 9.627
18.6799 9.593
18.6951 9.646
18.7103 9.715
18.7255 9.714
18.7406 9.760
18.7558 9.953
18.7710 9.908
18.7862 9.784
18.8013 9.514
18.8165 9.542
18.8317 10.061
18.8469 10.193
18.8620 9.851
18.8772 9.835
18.8924 9.930
18.9076 9.742
18.9227 9.786
18.9379 9.878
18.9531 9.721
18.9683 9.902
18.9834 9.825
18.9986 9.981
19.0138 9.980
19.0290 9.851
19.0441 9.986
19.0593 10.158
19.0745 10.242
19.0897 10.234
19.1048 10.394
19.1200 10.320
19.1352 10.399
19.1504 10.649
19.1655 10.572
19.1807 10.402
19.1959 10.475
19.2111 10.557
19.2262 10.539
19.2414 10.735
19.2566 10.855
19.2718 10.646
19.2869 10.755
19.3021 11.017
19.3173 10.850
19.3325 10.941
19.3476 10.909
19.3628 10.770
19.3780 11.035
19.3932 11.302
19.4083 11.100
19.4235 11.111
19.4387 11.414
19.4539 11.467
19.4690 11.438
19.4842 11.604
19.4994 11.592
19.5146 11.375
19.5297 11.460
19.5449 11.692
19.5601 11.801
19.5753 11.721
19.5904 11.627
19.6056 11.559
19.6208 11.535
19.6360 11.682
19.6511 11.693
19.6663 11.580
19.6815 11.684
19.6967 11.824
19.7118 11.846
19.7270 11.799
19.7422 11.944
19.7574 12.064
19.7725 11.893
19.7877 11.918
19.8029 11.993
19.8180 11.982
19.8332 11.971
19.8484 12.008
19.8636 12.174
19.8787 12.477
19.8939 12.570
19.9091 12.843
19.9243 13.307
19.9394 13.807
19.9546 14.188
19.9698 14.035
19.9850 14.163
20.0001 14.297
20.0153 13.908
20.0305 13.656
20.0457 13.847
20.0608 13.700
20.0760 13.679
20.0912 13.566
20.1064 13.528
20.1215 13.384
20.1367 13.049
20.1519 13.001
20.1671 12.736
20.1822 12.901
20.1974 13.032
20.2126 12.961
20.2278 13.025
20.2429 12.451
20.2581 12.255
20.2733 12.120
20.2885 11.894
20.3036 12.032
20.3188 11.995
20.3340 11.611
20.3492 11.800
20.3643 11.908
20.3795 11.984
20.3947 11.723
20.4099 11.790
20.4250 11.873
20.4402 12.170
20.4554 12.072
20.4706 12.020
20.4857 11.528
20.5009 11.461
20.5161 11.428
20.5313 11.334
20.5464 11.719
20.5616 11.460
20.5768 11.202
20.5920 11.158
20.6071 11.033
20.6223 10.681
20.6375 10.809
20.6527 10.805
20.6678 10.499
20.6830 10.404
20.6982 10.593
20.7134 10.722
20.7285 10.288
20.7437 10.377
20.7589 10.589
20.7741 10.364
20.7892 10.403
20.8044 10.456
20.8196 10.474
20.8348 10.227
20.8499 10.355
20.8651 10.263
20.8803 10.248
20.8955 10.336
20.9106 9.967
20.9258 9.837
20.9410 10.201
20.9562 10.149
20.9713 10.261
20.9865 10.018
21.0017 10.317
21.0169 10.056
21.0320 10.013
21.0472 10.010
21.0624 10.179
21.0776 10.151
21.0927 10.069
21.1079 9.742
21.1231 9.836
21.1383 9.766
21.1534 9.699
21.1686 9.669
21.1838 9.893
21.1990 10.027
21.2141 9.453
21.2293 9.812
21.2445 9.481
21.2597 9.278
21.2748 9.641
21.2900 9.461
21.3052 9.755
21.3204 9.768
21.3355 9.527
21.3507 9.483
21.3659 9.430
21.3811 9.445
21.3962 9.246
21.4114 9.611
21.4266 9.595
21.4418 9.330
21.4569 9.277
21.4721 9.283
21.4873 9.484
21.5025 9.436
21.5176 9.404
21.5328 9.513
21.5480 9.148
21.5632 9.061
21.5783 9.278
21.5935 9.252
21.6087 9.288
21.6239 9.075
21.6390 9.175
21.6542 9.251
21.6694 9.339
21.6846 9.255
21.6997 9.161
21.7149 9.087
21.7301 8.889
21.7453 9.129
21.7604 9.204
21.7756 9.073
21.7908 8.961
21.8060 9.021
21.8211 9.066
21.8363 9.118
21.8515 9.122
21.8667 9.259
21.8818 9.237
21.8970 9.131
21.9122 9.144
21.9274 9.100
21.9425 9.058
21.9577 8.784
21.9729 8.757
21.9881 8.728
22.0032 8.881
22.0184 8.887
22.0336 8.644
22.0488 8.733
22.0639 8.892
22.0791 8.852
22.0943 8.774
22.1095 8.837
22.1246 8.810
22.1398 8.539
22.1550 8.659
22.1702 8.623
22.1853 8.623
22.2005 8.766
22.2157 8.696
22.2309 8.718
22.2460 8.521
22.2612 8.487
22.2764 8.446
22.2916 8.512
22.3067 8.550
22.3219 8.444
22.3371 8.463
22.3523 8.477
22.3674 8.482
22.3826 8.298
22.3978 8.636
22.4130 8.597
22.4281 8.580
22.4433 8.506
22.4585 8.429
22.4737 8.595
22.4888 8.655
22.5040 8.579
22.5192 8.369
22.5344 8.110
22.5495 8.194
22.5647 8.609
22.5799 8.363
22.5951 8.657
22.6102 8.441
22.6254 8.628
22.6406 8.661
22.6558 8.607
22.6709 8.293
22.6861 8.292
22.7013 8.113
22.7165 7.882
22.7316 6.592
