'Id: "" Comment: "" Operator: "Lab Manager" Anode: "Mo" Scantype: "Still (Eiger2R_500K (1D mode))" TimePerStep: "300" X: "11.8" Y: "9.4" Z: "11.284" 
7.2532 18.600
7.2684 18.784
7.2836 18.795
7.2987 19.188
7.3139 18.675
7.3291 19.243
7.3443 19.374
7.3594 19.123
7.3746 19.005
7.3898 18.888
7.4050 18.940
7.4201 19.380
7.4353 19.273
7.4505 19.521
7.4657 19.651
7.4808 19.928
7.4960 19.579
7.5112 19.847
7.5264 19.827
7.5415 19.847
7.5567 19.584
7.5719 19.588
7.5871 20.126
7.6022 19.987
7.6174 19.782
7.6326 19.789
7.6478 20.252
7.6629 20.434
7.6781 20.225
7.6933 20.260
7.7085 20.353
7.7236 20.249
7.7388 19.815
7.7540 19.986
7.7692 20.216
7.7843 20.263
7.7995 20.313
7.8147 20.483
7.8299 20.615
7.8450 20.424
7.8602 20.422
7.8754 20.398
7.8905 20.522
7.9057 20.714
7.9209 20.746
7.9361 20.888
7.9512 20.752
7.9664 20.686
7.9816 20.934
7.9968 20.770
8.0119 20.878
8.0271 20.901
8.0423 20.931
8.0575 21.042
8.0726 20.793
8.0878 20.912
8.1030 21.331
8.1182 21.350
8.1333 21.130
8.1485 21.141
8.1637 21.290
8.1789 21.388
8.1940 21.039
8.2092 21.303
8.2244 21.101
8.2396 21.718
8.2547 21.599
8.2699 21.826
8.2851 21.506
8.3003 21.306
8.3154 21.765
8.3306 21.519
8.3458 21.674
8.3610 21.314
8.3761 21.475
8.3913 21.566
8.4065 21.563
8.4217 21.313
8.4368 21.676
8.4520 22.122
8.4672 21.966
8.4824 21.519
8.4975 21.612
8.5127 21.830
8.5279 22.301
8.5431 22.200
8.5582 21.576
8.5734 22.031
8.5886 21.829
8.6038 22.377
8.6189 21.559
8.6341 22.338
8.6493 21.664
8.6645 21.860
8.6796 22.462
8.6948 21.991
8.7100 22.401
8.7252 21.963
8.7403 21.505
8.7555 22.266
8.7707 21.994
8.7859 22.461
8.8010 22.577
8.8162 22.480
8.8314 22.003
8.8466 22.195
8.8617 22.686
8.8769 21.983
8.8921 22.097
8.9073 22.393
8.9224 22.099
8.9376 22.347
8.9528 22.768
8.9680 22.435
8.9831 22.546
8.9983 22.628
9.0135 22.688
9.0287 22.698
9.0438 22.544
9.0590 22.386
9.0742 22.478
9.0894 22.775
9.1045 22.718
9.1197 23.100
9.1349 22.792
9.1501 22.690
9.1652 22.666
9.1804 23.204
9.1956 22.763
9.2108 22.892
9.2259 22.941
9.2411 23.007
9.2563 23.459
9.2715 23.087
9.2866 22.708
9.3018 22.909
9.3170 23.275
9.3322 23.252
9.3473 23.173
9.3625 23.084
9.3777 22.757
9.3929 22.771
9.4080 22.830
9.4232 23.059
9.4384 22.861
9.4536 23.030
9.4687 22.911
9.4839 23.040
9.4991 23.243
9.5143 23.280
9.5294 23.085
9.5446 23.051
9.5598 23.030
9.5750 23.021
9.5901 23.198
9.6053 23.205
9.6205 23.033
9.6357 22.839
9.6508 22.839
9.6660 23.161
9.6812 23.342
9.6964 23.532
9.7115 23.740
9.7267 23.852
9.7419 24.080
9.7571 23.813
9.7722 23.523
9.7874 23.609
9.8026 23.609
9.8178 23.505
9.8329 23.554
9.8481 23.156
9.8633 23.178
9.8785 23.494
9.8936 23.264
9.9088 23.133
9.9240 22.863
9.9392 22.908
9.9543 23.124
9.9695 22.838
9.9847 22.847
9.9999 23.016
10.0150 23.281
10.0302 23.345
10.0454 23.030
10.0606 23.020
10.0757 23.261
10.0909 23.217
10.1061 23.036
10.1213 23.236
10.1364 23.635
10.1516 23.350
10.1668 23.275
10.1820 23.336
10.1971 23.311
10.2123 23.077
10.2275 22.776
10.2427 22.627
10.2578 22.668
10.2730 22.781
10.2882 22.921
10.3034 22.952
10.3185 22.655
10.3337 22.627
10.3489 22.498
10.3641 22.518
10.3792 22.828
10.3944 22.852
10.4096 22.311
10.4248 22.499
10.4399 22.655
10.4551 22.555
10.4703 22.562
10.4855 22.751
10.5006 22.634
10.5158 22.506
10.5310 22.541
10.5462 22.549
10.5613 22.375
10.5765 22.461
10.5917 22.623
10.6069 22.468
10.6220 22.718
10.6372 22.912
10.6524 22.703
10.6676 22.438
10.6827 22.449
10.6979 22.307
10.7131 22.482
10.7283 22.360
10.7434 22.176
10.7586 22.051
10.7738 22.263
10.7890 22.151
10.8041 22.127
10.8193 21.895
10.8345 22.151
10.8497 22.177
10.8648 22.125
10.8800 21.915
10.8952 21.862
10.9104 21.757
10.9255 21.756
10.9407 21.780
10.9559 22.110
10.9711 22.010
10.9862 22.221
11.0014 22.275
11.0166 22.357
11.0318 22.329
11.0469 21.921
11.0621 22.062
11.0773 22.000
11.0925 21.780
11.1076 21.443
11.1228 21.483
11.1380 21.783
11.1532 21.921
11.1683 21.807
11.1835 21.550
11.1987 21.254
11.2139 21.490
11.2290 21.837
11.2442 21.739
11.2594 21.664
11.2746 21.624
11.2897 21.714
11.3049 21.448
11.3201 21.217
11.3353 21.268
11.3504 21.061
11.3656 21.380
11.3808 21.097
11.3960 21.245
11.4111 21.247
11.4263 21.303
11.4415 21.087
11.4567 20.968
11.4718 20.999
11.4870 21.058
11.5022 21.084
11.5174 21.083
11.5325 20.927
11.5477 20.949
11.5629 20.695
11.5781 20.671
11.5932 20.862
11.6084 20.789
11.6236 20.912
11.6388 20.638
11.6539 20.560
11.6691 20.787
11.6843 20.457
11.6995 20.719
11.7146 20.511
11.7298 20.382
11.7450 20.299
11.7602 20.349
11.7753 20.161
11.7905 19.794
11.8057 19.934
11.8209 19.901
11.8360 19.986
11.8512 20.174
11.8664 20.082
11.8816 19.988
11.8967 19.697
11.9119 19.766
11.9271 19.391
11.9423 19.349
11.9574 19.498
11.9726 19.513
11.9878 19.301
12.0030 18.867
12.0181 19.040
12.0333 19.003
12.0485 18.747
12.0637 18.887
12.0788 18.947
12.0940 18.602
12.1092 18.543
12.1244 18.809
12.1395 18.967
12.1547 18.628
12.1699 18.159
12.1851 18.246
12.2002 18.240
12.2154 18.099
12.2306 18.048
12.2458 17.983
12.2609 18.009
12.2761 17.974
12.2913 17.988
12.3065 17.446
12.3216 17.326
12.3368 17.551
12.3520 17.672
12.3672 17.624
12.3823 17.341
12.3975 17.208
12.4127 17.005
12.4279 16.800
12.4430 17.149
12.4582 17.079
12.4734 16.783
12.4886 16.703
12.5037 16.643
12.5189 16.616
12.5341 16.371
12.5493 16.281
12.5644 16.490
12.5796 16.153
12.5948 16.066
12.6100 16.255
12.6251 16.110
12.6403 15.939
12.6555 15.904
12.6707 15.673
12.6858 15.518
12.7010 15.623
12.7162 15.600
12.7314 15.423
12.7465 15.415
12.7617 15.340
12.7769 15.250
12.7921 14.996
12.8072 14.886
12.8224 15.061
12.8376 15.063
12.8528 14.896
12.8679 14.819
12.8831 14.836
12.8983 14.756
12.9135 14.673
12.9286 14.599
12.9438 14.639
12.9590 14.589
12.9742 14.433
12.9893 14.272
13.0045 14.214
13.0197 14.222
13.0349 14.115
13.0500 13.898
13.0652 13.883
13.0804 14.205
13.0956 14.038
13.1107 13.761
13.1259 13.817
13.1411 13.727
13.1563 13.708
13.1714 13.610
13.1866 13.524
13.2018 13.575
13.2170 13.388
13.2321 13.194
13.2473 13.239
13.2625 13.362
13.2777 13.288
13.2928 13.234
13.3080 13.087
13.3232 13.079
13.3384 13.151
13.3535 12.848
13.3687 12.772
13.3839 12.892
13.3991 13.147
13.4142 12.839
13.4294 12.630
13.4446 12.710
13.4598 12.477
13.4749 12.604
13.4901 12.788
13.5053 12.785
13.5205 12.549
13.5356 12.509
13.5508 12.686
13.5660 12.469
13.5812 11.997
13.5963 12.202
13.6115 12.272
13.6267 12.105
13.6419 12.368
13.6570 12.117
13.6722 12.295
13.6874 12.411
13.7026 12.122
13.7177 12.162
13.7329 12.321
13.7481 12.083
13.7633 12.199
13.7784 12.327
13.7936 12.258
13.8088 12.222
13.8239 12.133
13.8391 12.331
13.8543 12.201
13.8695 12.183
13.8846 12.187
13.8998 12.133
13.9150 12.151
13.9302 12.048
13.9453 12.055
13.9605 11.878
13.9757 11.850
13.9909 11.952
14.0060 11.452
14.0212 11.366
14.0364 11.596
14.0516 11.685
14.0667 11.947
14.0819 11.529
14.0971 11.494
14.1123 11.546
14.1274 11.632
14.1426 11.637
14.1578 11.717
14.1730 11.534
14.1881 11.417
14.2033 11.697
14.2185 11.752
14.2337 11.722
14.2488 11.879
14.2640 11.541
14.2792 11.692
14.2944 11.729
14.3095 11.868
14.3247 11.872
14.3399 12.092
14.3551 12.612
14.3702 13.105
14.3854 12.985
14.4006 13.050
14.4158 13.187
14.4309 13.336
14.4461 12.995
14.4613 12.631
14.4765 12.194
14.4916 12.308
14.5068 12.175
14.5220 12.025
14.5372 11.591
14.5523 11.498
14.5675 11.627
14.5827 11.173
14.5979 10.916
14.6130 10.994
14.6282 10.892
14.6434 10.876
14.6586 11.015
14.6737 10.598
14.6889 10.879
14.7041 10.460
14.7193 10.772
14.7344 10.846
14.7496 10.452
14.7648 10.780
14.7800 10.820
14.7951 10.247
14.8103 10.466
14.8255 10.722
14.8407 10.630
14.8558 10.432
14.8710 10.588
14.8862 10.383
14.9014 10.639
14.9165 10.717
14.9317 10.706
14.9469 10.523
14.9621 10.476
14.9772 10.275
14.9924 10.249
15.0076 10.459
15.0228 10.289
15.0379 10.718
15.0531 10.428
15.0683 10.317
15.0835 10.438
15.0986 10.192
15.1138 10.194
15.1290 10.265
15.1442 10.443
15.1593 10.022
15.1745 10.076
15.1897 10.410
15.2049 9.878
15.2200 10.009
15.2352 9.959
15.2504 10.273
15.2656 9.951
15.2807 10.126
15.2959 9.954
15.3111 10.045
15.3263 9.998
15.3414 10.205
15.3566 10.035
15.3718 10.168
15.3870 10.106
15.4021 9.879
15.4173 10.354
15.4325 10.133
15.4477 10.476
15.4628 10.509
15.4780 10.464
15.4932 9.889
15.5084 9.933
15.5235 10.096
15.5387 9.807
15.5539 9.827
15.5691 10.162
15.5842 9.993
15.5994 10.145
15.6146 10.217
15.6298 10.104
15.6449 9.836
15.6601 9.825
15.6753 9.800
15.6905 9.792
15.7056 9.505
15.7208 9.762
15.7360 9.481
15.7512 9.650
15.7663 9.546
15.7815 9.627
15.7967 9.776
15.8119 9.910
15.8270 9.619
15.8422 9.492
15.8574 9.462
15.8726 9.379
15.8877 9.470
15.9029 9.596
15.9181 9.356
15.9333 9.635
15.9484 9.534
15.9636 9.589
15.9788 9.697
15.9940 9.479
16.0091 9.624
16.0243 9.536
16.0395 9.609
16.0547 9.558
16.0698 9.540
16.0850 9.504
16.1002 9.455
16.1154 9.656
16.1305 9.711
16.1457 9.979
16.1609 9.789
16.1761 9.753
16.1912 9.727
16.2064 9.815
16.2216 9.780
16.2368 9.667
16.2519 9.832
16.2671 9.758
16.2823 9.900
16.2975 9.779
16.3126 9.561
16.3278 9.574
16.3430 9.465
16.3582 9.703
16.3733 9.845
16.3885 9.744
16.4037 9.724
16.4189 9.595
16.4340 9.796
16.4492 9.735
16.4644 9.636
16.4796 9.650
16.4947 9.601
16.5099 9.463
16.5251 9.675
16.5403 9.793
16.5554 9.567
16.5706 9.775
16.5858 9.515
16.6010 9.489
16.6161 9.785
16.6313 9.790
16.6465 9.642
16.6617 9.826
16.6768 9.891
16.6920 9.897
16.7072 9.812
16.7224 9.963
16.7375 10.040
16.7527 10.079
16.7679 9.962
16.7831 9.956
16.7982 9.760
16.8134 9.662
16.8286 9.804
16.8438 9.949
16.8589 9.966
16.8741 9.717
16.8893 9.796
16.9045 9.706
16.9196 9.685
16.9348 9.628
16.9500 9.639
16.9652 9.887
16.9803 9.993
16.9955 9.921
17.0107 9.914
17.0259 9.872
17.0410 10.037
17.0562 10.121
17.0714 10.267
17.0866 10.381
17.1017 10.345
17.1169 10.573
17.1321 10.823
17.1473 11.148
17.1624 11.613
17.1776 12.220
17.1928 12.951
17.2080 13.741
17.2231 14.859
17.2383 16.139
17.2535 17.663
17.2687 18.729
17.2838 18.949
17.2990 18.243
17.3142 17.168
17.3294 16.349
17.3445 16.061
17.3597 16.033
17.3749 15.951
17.3901 15.645
17.4052 14.443
17.4204 13.366
17.4356 12.742
17.4508 12.219
17.4659 11.909
17.4811 11.723
17.4963 11.548
17.5115 11.321
17.5266 11.000
17.5418 10.918
17.5570 11.103
17.5722 11.033
17.5873 10.988
17.6025 11.046
17.6177 11.028
17.6329 10.983
17.6480 11.259
17.6632 11.473
17.6784 11.458
17.6936 11.482
17.7087 11.329
17.7239 11.111
17.7391 11.079
17.7543 11.295
17.7694 10.949
17.7846 10.665
17.7998 10.776
17.8150 10.630
17.8301 10.350
17.8453 10.166
17.8605 10.259
17.8757 10.451
17.8908 10.713
17.9060 10.616
17.9212 10.182
17.9364 10.144
17.9515 10.213
17.9667 10.181
17.9819 10.010
17.9971 10.050
18.0122 10.071
18.0274 10.091
18.0426 10.312
18.0578 10.300
18.0729 10.067
18.0881 9.911
18.1033 9.788
18.1185 9.856
18.1336 10.016
18.1488 9.943
18.1640 10.028
18.1792 10.028
18.1943 9.884
18.2095 9.839
18.2247 9.924
18.2399 9.878
18.2550 9.789
18.2702 9.779
18.2854 9.776
18.3006 9.775
18.3157 9.810
18.3309 9.839
18.3461 9.757
18.3613 9.830
18.3764 9.792
18.3916 9.900
18.4068 10.053
18.4220 9.927
18.4371 9.604
18.4523 9.537
18.4675 9.670
18.4827 9.940
18.4978 9.953
18.5130 9.844
18.5282 9.982
18.5434 10.047
18.5585 10.184
18.5737 10.152
18.5889 9.922
18.6041 9.871
18.6192 9.900
18.6344 9.790
18.6496 9.856
18.6648 9.873
18.6799 9.891
18.6951 9.919
18.7103 9.769
18.7255 9.708
18.7406 9.801
18.7558 9.809
18.7710 9.874
18.7862 9.770
18.8013 9.718
18.8165 9.682
18.8317 9.791
18.8469 9.784
18.8620 9.908
18.8772 10.092
18.8924 10.186
18.9076 9.941
18.9227 10.045
18.9379 10.097
18.9531 9.855
18.9683 9.954
18.9834 10.152
18.9986 10.197
19.0138 10.009
19.0290 9.957
19.0441 10.033
19.0593 10.336
19.0745 10.476
19.0897 10.437
19.1048 10.320
19.1200 10.028
19.1352 10.053
19.1504 10.416
19.1655 10.630
19.1807 10.400
19.1959 10.250
19.2111 10.416
19.2262 10.660
19.2414 10.727
19.2566 10.904
19.2718 10.914
19.2869 10.958
19.3021 11.162
19.3173 11.061
19.3325 11.052
19.3476 11.063
19.3628 10.872
19.3780 10.936
19.3932 11.176
19.4083 11.332
19.4235 11.094
19.4387 10.935
19.4539 11.306
19.4690 11.252
19.4842 11.432
19.4994 11.544
19.5146 11.559
19.5297 11.699
19.5449 11.535
19.5601 11.437
19.5753 11.513
19.5904 11.482
19.6056 11.488
19.6208 11.760
19.6360 11.851
19.6511 11.734
19.6663 11.592
19.6815 11.744
19.6967 12.017
19.7118 11.929
19.7270 11.548
19.7422 11.504
19.7574 11.645
19.7725 11.758
19.7877 12.004
19.8029 12.093
19.8180 12.026
19.8332 12.066
19.8484 12.220
19.8636 12.244
19.8787 12.492
19.8939 12.789
19.9091 13.056
19.9243 13.465
19.9394 13.789
19.9546 14.175
19.9698 14.401
19.9850 14.434
20.0001 14.416
20.0153 14.394
20.0305 14.046
20.0457 13.975
20.0608 13.848
20.0760 13.732
20.0912 13.894
20.1064 13.551
20.1215 13.413
20.1367 13.132
20.1519 13.078
20.1671 13.196
20.1822 12.989
20.1974 12.873
20.2126 12.889
20.2278 12.630
20.2429 12.782
20.2581 12.447
20.2733 12.094
20.2885 12.154
20.3036 12.196
20.3188 12.112
20.3340 12.189
20.3492 12.305
20.3643 12.223
20.3795 11.915
20.3947 11.779
20.4099 11.764
20.4250 12.082
20.4402 11.883
20.4554 11.962
20.4706 11.784
20.4857 11.773
20.5009 11.752
20.5161 11.770
20.5313 11.352
20.5464 11.347
20.5616 11.286
20.5768 11.072
20.5920 11.356
20.6071 11.409
20.6223 10.807
20.6375 10.490
20.6527 10.564
20.6678 10.609
20.6830 10.713
20.6982 10.675
20.7134 10.581
20.7285 10.526
20.7437 10.604
20.7589 10.504
20.7741 10.509
20.7892 10.334
20.8044 10.424
20.8196 10.426
20.8348 10.559
20.8499 10.148
20.8651 10.094
20.8803 10.467
20.8955 10.208
20.9106 10.267
20.9258 10.204
20.9410 10.067
20.9562 10.288
20.9713 9.940
20.9865 10.371
21.0017 10.206
21.0169 10.083
21.0320 10.465
21.0472 10.240
21.0624 9.954
21.0776 9.940
21.0927 9.786
21.1079 9.665
21.1231 10.080
21.1383 9.908
21.1534 9.967
21.1686 9.583
21.1838 9.670
21.1990 9.814
21.2141 9.703
21.2293 9.647
21.2445 9.385
21.2597 9.631
21.2748 9.500
21.2900 9.746
21.3052 9.283
21.3204 9.428
21.3355 9.699
21.3507 9.802
21.3659 9.488
21.3811 9.467
21.3962 9.460
21.4114 9.300
21.4266 9.542
21.4418 9.695
21.4569 9.593
21.4721 9.372
21.4873 9.640
21.5025 9.402
21.5176 9.187
21.5328 9.336
21.5480 9.409
21.5632 9.033
21.5783 9.327
21.5935 9.375
21.6087 9.677
21.6239 9.419
21.6390 9.407
21.6542 9.333
21.6694 9.216
21.6846 9.101
21.6997 8.985
21.7149 9.002
21.7301 9.097
21.7453 9.086
21.7604 9.095
21.7756 9.108
21.7908 8.828
21.8060 8.952
21.8211 8.958
21.8363 8.943
21.8515 9.049
21.8667 9.098
21.8818 9.034
21.8970 9.131
21.9122 9.026
21.9274 8.818
21.9425 8.892
21.9577 9.001
21.9729 8.928
21.9881 8.975
22.0032 8.902
22.0184 8.912
22.0336 8.949
22.0488 8.985
22.0639 8.985
22.0791 8.811
22.0943 8.728
22.1095 8.702
22.1246 8.754
22.1398 8.928
22.1550 8.830
22.1702 8.771
22.1853 8.869
22.2005 8.680
22.2157 8.537
22.2309 8.632
22.2460 8.622
22.2612 8.500
22.2764 8.602
22.2916 8.550
22.3067 8.571
22.3219 8.728
22.3371 8.303
22.3523 8.520
22.3674 8.421
22.3826 8.213
22.3978 8.573
22.4130 8.664
22.4281 8.382
22.4433 8.524
22.4585 8.587
22.4737 8.407
22.4888 8.234
22.5040 8.408
22.5192 8.404
22.5344 8.639
22.5495 8.301
22.5647 8.251
22.5799 8.406
22.5951 8.328
22.6102 8.354
22.6254 8.397
22.6406 8.321
22.6558 8.472
22.6709 8.218
22.6861 8.145
22.7013 8.209
22.7165 7.900
22.7316 6.468
