'Id: "" Comment: "" Operator: "Lab Manager" Anode: "Mo" Scantype: "Still (Eiger2R_500K (1D mode))" TimePerStep: "300" X: "11.8" Y: "9.4" Z: "11.284" 
7.2532 18.910
7.2684 19.450
7.2836 18.899
7.2987 18.854
7.3139 18.952
7.3291 19.265
7.3443 19.224
7.3594 19.573
7.3746 19.580
7.3898 19.481
7.4050 19.416
7.4201 19.357
7.4353 19.485
7.4505 19.832
7.4657 19.907
7.4808 19.839
7.4960 20.216
7.5112 20.111
7.5264 19.443
7.5415 19.869
7.5567 19.860
7.5719 19.692
7.5871 19.539
7.6022 20.076
7.6174 20.097
7.6326 20.240
7.6478 20.281
7.6629 20.452
7.6781 20.354
7.6933 20.058
7.7085 20.494
7.7236 20.661
7.7388 20.470
7.7540 20.504
7.7692 20.530
7.7843 20.723
7.7995 20.818
7.8147 20.866
7.8299 20.922
7.8450 20.843
7.8602 20.766
7.8754 20.949
7.8905 21.441
7.9057 21.937
7.9209 21.460
7.9361 21.127
7.9512 21.247
7.9664 21.251
7.9816 21.050
7.9968 21.430
8.0119 21.426
8.0271 21.136
8.0423 21.093
8.0575 21.223
8.0726 21.443
8.0878 21.415
8.1030 21.432
8.1182 21.772
8.1333 21.693
8.1485 21.458
8.1637 21.450
8.1789 21.257
8.1940 21.692
8.2092 21.730
8.2244 21.884
8.2396 21.834
8.2547 22.006
8.2699 21.835
8.2851 22.038
8.3003 22.273
8.3154 21.900
8.3306 21.862
8.3458 21.774
8.3610 21.772
8.3761 21.902
8.3913 21.806
8.4065 21.616
8.4217 21.841
8.4368 22.053
8.4520 22.208
8.4672 22.501
8.4824 21.670
8.4975 22.269
8.5127 22.395
8.5279 22.208
8.5431 22.252
8.5582 22.120
8.5734 22.427
8.5886 22.569
8.6038 22.068
8.6189 22.287
8.6341 22.204
8.6493 22.381
8.6645 22.653
8.6796 22.863
8.6948 22.646
8.7100 22.213
8.7252 22.502
8.7403 22.914
8.7555 23.060
8.7707 22.664
8.7859 22.709
8.8010 22.435
8.8162 22.945
8.8314 22.517
8.8466 22.911
8.8617 22.773
8.8769 22.838
8.8921 22.494
8.9073 22.514
8.9224 22.753
8.9376 22.529
8.9528 22.950
8.9680 22.615
8.9831 23.142
8.9983 22.756
9.0135 23.085
9.0287 22.756
9.0438 22.824
9.0590 22.307
9.0742 22.789
9.0894 22.913
9.1045 22.992
9.1197 22.882
9.1349 22.577
9.1501 23.045
9.1652 23.318
9.1804 23.197
9.1956 22.812
9.2108 22.815
9.2259 22.951
9.2411 23.289
9.2563 22.847
9.2715 22.799
9.2866 22.982
9.3018 23.286
9.3170 23.040
9.3322 22.907
9.3473 23.221
9.3625 23.063
9.3777 22.836
9.3929 22.708
9.4080 22.940
9.4232 22.916
9.4384 22.983
9.4536 22.941
9.4687 23.370
9.4839 23.405
9.4991 23.209
9.5143 23.383
9.5294 23.774
9.5446 23.752
9.5598 23.362
9.5750 23.194
9.5901 23.159
9.6053 23.331
9.6205 23.545
9.6357 23.474
9.6508 23.498
9.6660 23.594
9.6812 23.869
9.6964 23.877
9.7115 24.108
9.7267 24.399
9.7419 24.201
9.7571 24.353
9.7722 24.330
9.7874 24.084
9.8026 23.971
9.8178 23.593
9.8329 23.743
9.8481 23.807
9.8633 23.174
9.8785 23.418
9.8936 23.915
9.9088 23.643
9.9240 23.724
9.9392 23.761
9.9543 23.655
9.9695 23.856
9.9847 23.914
9.9999 23.590
10.0150 23.645
10.0302 23.791
10.0454 23.952
10.0606 23.875
10.0757 23.783
10.0909 23.821
10.1061 24.154
10.1213 23.903
10.1364 23.569
10.1516 23.953
10.1668 24.545
10.1820 24.211
10.1971 23.694
10.2123 23.874
10.2275 24.284
10.2427 24.138
10.2578 24.145
10.2730 23.960
10.2882 23.913
10.3034 23.731
10.3185 23.513
10.3337 23.582
10.3489 23.408
10.3641 23.154
10.3792 23.088
10.3944 23.142
10.4096 23.021
10.4248 22.857
10.4399 22.835
10.4551 22.992
10.4703 22.809
10.4855 22.628
10.5006 22.744
10.5158 22.856
10.5310 22.550
10.5462 22.674
10.5613 22.936
10.5765 23.194
10.5917 23.334
10.6069 22.973
10.6220 22.896
10.6372 22.835
10.6524 22.405
10.6676 22.622
10.6827 22.869
10.6979 22.657
10.7131 22.719
10.7283 22.912
10.7434 22.654
10.7586 22.785
10.7738 23.111
10.7890 22.628
10.8041 22.370
10.8193 22.351
10.8345 22.151
10.8497 22.378
10.8648 22.308
10.8800 22.396
10.8952 22.172
10.9104 21.946
10.9255 22.200
10.9407 22.290
10.9559 22.342
10.9711 22.081
10.9862 22.213
11.0014 22.385
11.0166 22.311
11.0318 22.258
11.0469 22.232
11.0621 22.121
11.0773 22.136
11.0925 22.275
11.1076 21.749
11.1228 21.993
11.1380 21.822
11.1532 21.786
11.1683 22.075
11.1835 21.831
11.1987 22.091
11.2139 22.013
11.2290 21.731
11.2442 21.572
11.2594 22.132
11.2746 21.940
11.2897 21.698
11.3049 21.700
11.3201 21.817
11.3353 21.982
11.3504 21.948
11.3656 21.362
11.3808 21.321
11.3960 21.438
11.4111 21.262
11.4263 21.503
11.4415 21.361
11.4567 21.596
11.4718 21.139
11.4870 21.075
11.5022 21.399
11.5174 21.474
11.5325 21.156
11.5477 21.111
11.5629 21.297
11.5781 21.153
11.5932 20.866
11.6084 20.721
11.6236 20.747
11.6388 20.626
11.6539 20.768
11.6691 20.976
11.6843 20.649
11.6995 20.518
11.7146 20.477
11.7298 20.385
11.7450 20.470
11.7602 20.485
11.7753 20.495
11.7905 19.963
11.8057 20.359
11.8209 20.528
11.8360 19.949
11.8512 19.821
11.8664 19.640
11.8816 19.965
11.8967 20.020
11.9119 19.627
11.9271 19.242
11.9423 19.403
11.9574 19.686
11.9726 19.913
11.9878 19.514
12.0030 19.361
12.0181 19.211
12.0333 19.294
12.0485 19.350
12.0637 19.374
12.0788 19.069
12.0940 19.258
12.1092 19.247
12.1244 19.035
12.1395 19.028
12.1547 18.706
12.1699 18.651
12.1851 18.318
12.2002 18.158
12.2154 18.216
12.2306 18.099
12.2458 17.784
12.2609 17.783
12.2761 17.910
12.2913 17.884
12.3065 17.416
12.3216 17.858
12.3368 17.688
12.3520 17.547
12.3672 17.555
12.3823 17.478
12.3975 17.304
12.4127 17.402
12.4279 17.354
12.4430 17.395
12.4582 17.367
12.4734 17.038
12.4886 16.988
12.5037 16.817
12.5189 16.681
12.5341 16.676
12.5493 16.741
12.5644 16.697
12.5796 16.418
12.5948 16.292
12.6100 16.432
12.6251 16.283
12.6403 16.109
12.6555 15.939
12.6707 16.005
12.6858 15.882
12.7010 15.667
12.7162 15.524
12.7314 15.248
12.7465 15.283
12.7617 15.259
12.7769 15.146
12.7921 15.230
12.8072 15.179
12.8224 14.808
12.8376 14.979
12.8528 15.317
12.8679 15.142
12.8831 14.859
12.8983 14.723
12.9135 14.519
12.9286 14.363
12.9438 14.444
12.9590 14.605
12.9742 14.638
12.9893 14.446
13.0045 14.347
13.0197 14.523
13.0349 14.386
13.0500 13.974
13.0652 13.950
13.0804 13.897
13.0956 13.656
13.1107 13.667
13.1259 13.646
13.1411 13.640
13.1563 13.721
13.1714 13.587
13.1866 13.535
13.2018 13.645
13.2170 13.383
13.2321 13.192
13.2473 13.401
13.2625 13.441
13.2777 13.420
13.2928 13.346
13.3080 12.939
13.3232 12.843
13.3384 13.080
13.3535 13.110
13.3687 12.982
13.3839 12.684
13.3991 12.780
13.4142 12.897
13.4294 12.735
13.4446 12.825
13.4598 12.966
13.4749 12.790
13.4901 12.641
13.5053 12.521
13.5205 12.442
13.5356 12.457
13.5508 12.447
13.5660 12.400
13.5812 12.228
13.5963 12.112
13.6115 12.149
13.6267 12.150
13.6419 11.973
13.6570 11.940
13.6722 12.154
13.6874 12.194
13.7026 12.038
13.7177 12.069
13.7329 12.009
13.7481 11.877
13.7633 12.362
13.7784 12.315
13.7936 12.166
13.8088 12.236
13.8239 12.226
13.8391 12.250
13.8543 12.300
13.8695 12.158
13.8846 12.180
13.8998 11.922
13.9150 11.871
13.9302 11.840
13.9453 11.787
13.9605 11.893
13.9757 11.669
13.9909 11.674
14.0060 11.566
14.0212 11.300
14.0364 11.267
14.0516 11.355
14.0667 11.241
14.0819 11.479
14.0971 11.542
14.1123 11.569
14.1274 11.757
14.1426 11.673
14.1578 11.676
14.1730 11.668
14.1881 11.670
14.2033 11.772
14.2185 12.134
14.2337 12.164
14.2488 12.035
14.2640 12.116
14.2792 12.115
14.2944 12.183
14.3095 12.310
14.3247 12.383
14.3399 12.420
14.3551 12.823
14.3702 12.864
14.3854 13.003
14.4006 12.859
14.4158 13.260
14.4309 13.196
14.4461 12.786
14.4613 13.257
14.4765 13.047
14.4916 12.907
14.5068 13.013
14.5220 12.471
14.5372 12.754
14.5523 12.550
14.5675 12.319
14.5827 12.215
14.5979 11.917
14.6130 12.037
14.6282 11.746
14.6434 11.493
14.6586 11.373
14.6737 11.359
14.6889 11.481
14.7041 11.430
14.7193 10.934
14.7344 10.719
14.7496 10.826
14.7648 11.037
14.7800 10.920
14.7951 10.764
14.8103 10.751
14.8255 10.675
14.8407 10.723
14.8558 10.783
14.8710 10.909
14.8862 11.123
14.9014 10.647
14.9165 10.737
14.9317 11.038
14.9469 10.444
14.9621 10.408
14.9772 10.016
14.9924 10.514
15.0076 10.684
15.0228 10.424
15.0379 10.634
15.0531 10.814
15.0683 10.692
15.0835 10.605
15.0986 10.556
15.1138 10.671
15.1290 10.476
15.1442 10.571
15.1593 10.572
15.1745 10.581
15.1897 10.692
15.2049 10.389
15.2200 10.686
15.2352 10.614
15.2504 10.285
15.2656 10.320
15.2807 10.531
15.2959 10.315
15.3111 10.437
15.3263 10.635
15.3414 10.329
15.3566 10.302
15.3718 10.453
15.3870 10.281
15.4021 10.456
15.4173 10.664
15.4325 10.573
15.4477 10.435
15.4628 10.613
15.4780 10.705
15.4932 10.792
15.5084 10.306
15.5235 10.282
15.5387 10.524
15.5539 10.501
15.5691 10.355
15.5842 10.417
15.5994 10.166
15.6146 10.009
15.6298 10.214
15.6449 10.289
15.6601 10.025
15.6753 10.257
15.6905 10.024
15.7056 10.179
15.7208 10.057
15.7360 9.750
15.7512 10.010
15.7663 9.823
15.7815 9.741
15.7967 9.835
15.8119 9.757
15.8270 10.028
15.8422 9.900
15.8574 9.783
15.8726 9.840
15.8877 9.772
15.9029 9.744
15.9181 9.606
15.9333 9.962
15.9484 9.706
15.9636 9.836
15.9788 9.788
15.9940 9.957
16.0091 9.805
16.0243 9.738
16.0395 9.705
16.0547 9.841
16.0698 9.809
16.0850 9.523
16.1002 9.444
16.1154 9.520
16.1305 9.772
16.1457 9.929
16.1609 9.925
16.1761 9.702
16.1912 9.630
16.2064 9.817
16.2216 10.049
16.2368 9.919
16.2519 10.042
16.2671 9.924
16.2823 10.056
16.2975 10.362
16.3126 10.516
16.3278 10.424
16.3430 10.128
16.3582 10.054
16.3733 10.217
16.3885 10.342
16.4037 10.117
16.4189 9.806
16.4340 9.989
16.4492 9.986
16.4644 10.083
16.4796 10.065
16.4947 9.921
16.5099 9.818
16.5251 9.931
16.5403 9.790
16.5554 9.807
16.5706 9.807
16.5858 9.824
16.6010 9.896
16.6161 9.836
16.6313 9.951
16.6465 9.669
16.6617 9.722
16.6768 9.811
16.6920 9.846
16.7072 9.891
16.7224 9.938
16.7375 10.173
16.7527 10.222
16.7679 10.023
16.7831 9.966
16.7982 9.997
16.8134 10.001
16.8286 10.050
16.8438 9.975
16.8589 9.775
16.8741 9.980
16.8893 9.956
16.9045 9.676
16.9196 9.689
16.9348 9.669
16.9500 9.758
16.9652 9.656
16.9803 9.519
16.9955 9.783
17.0107 9.940
17.0259 10.207
17.0410 10.270
17.0562 10.204
17.0714 10.115
17.0866 10.133
17.1017 10.400
17.1169 10.635
17.1321 10.761
17.1473 11.102
17.1624 11.643
17.1776 12.216
17.1928 13.123
17.2080 14.111
17.2231 15.030
17.2383 16.283
17.2535 17.582
17.2687 18.660
17.2838 18.664
17.2990 18.018
17.3142 17.018
17.3294 16.158
17.3445 16.038
17.3597 16.127
17.3749 15.952
17.3901 15.206
17.4052 14.055
17.4204 13.098
17.4356 12.464
17.4508 12.098
17.4659 11.776
17.4811 11.383
17.4963 11.467
17.5115 11.418
17.5266 11.235
17.5418 11.234
17.5570 11.477
17.5722 11.675
17.5873 11.672
17.6025 11.765
17.6177 11.551
17.6329 11.050
17.6480 10.974
17.6632 11.067
17.6784 10.975
17.6936 11.172
17.7087 11.308
17.7239 10.937
17.7391 10.807
17.7543 10.818
17.7694 10.791
17.7846 11.030
17.7998 11.164
17.8150 11.308
17.8301 11.233
17.8453 11.084
17.8605 11.006
17.8757 11.017
17.8908 11.178
17.9060 11.066
17.9212 11.138
17.9364 10.920
17.9515 10.744
17.9667 10.735
17.9819 10.710
17.9971 10.602
18.0122 10.458
18.0274 10.378
18.0426 10.264
18.0578 10.190
18.0729 10.179
18.0881 10.213
18.1033 10.290
18.1185 10.147
18.1336 9.904
18.1488 9.808
18.1640 9.824
18.1792 9.942
18.1943 10.024
18.2095 9.901
18.2247 9.809
18.2399 9.872
18.2550 10.224
18.2702 10.011
18.2854 9.880
18.3006 9.919
18.3157 9.838
18.3309 9.708
18.3461 9.666
18.3613 9.771
18.3764 9.815
18.3916 9.649
18.4068 9.903
18.4220 10.077
18.4371 9.934
18.4523 9.876
18.4675 9.840
18.4827 9.822
18.4978 9.808
18.5130 9.772
18.5282 9.865
18.5434 9.762
18.5585 9.668
18.5737 9.875
18.5889 10.014
18.6041 9.843
18.6192 9.742
18.6344 9.646
18.6496 9.930
18.6648 9.860
18.6799 9.853
18.6951 10.005
18.7103 9.889
18.7255 9.629
18.7406 9.629
18.7558 9.562
18.7710 9.722
18.7862 9.883
18.8013 9.841
18.8165 9.662
18.8317 9.795
18.8469 9.922
18.8620 9.959
18.8772 9.986
18.8924 9.926
18.9076 9.886
18.9227 9.740
18.9379 9.835
18.9531 9.919
18.9683 9.993
18.9834 10.009
18.9986 10.122
19.0138 10.170
19.0290 10.128
19.0441 10.173
19.0593 10.288
19.0745 10.278
19.0897 10.323
19.1048 10.346
19.1200 10.467
19.1352 10.483
19.1504 10.614
19.1655 10.544
19.1807 10.438
19.1959 10.316
19.2111 10.499
19.2262 10.766
19.2414 10.926
19.2566 10.914
19.2718 10.609
19.2869 10.700
19.3021 10.830
19.3173 10.766
19.3325 10.792
19.3476 10.957
19.3628 11.124
19.3780 11.213
19.3932 11.170
19.4083 10.968
19.4235 10.915
19.4387 10.999
19.4539 11.315
19.4690 11.263
19.4842 11.258
19.4994 11.505
19.5146 11.521
19.5297 11.417
19.5449 11.427
19.5601 11.461
19.5753 11.631
19.5904 11.855
19.6056 11.714
19.6208 11.756
19.6360 11.851
19.6511 11.715
19.6663 11.581
19.6815 11.746
19.6967 11.839
19.7118 11.681
19.7270 11.808
19.7422 11.867
19.7574 11.738
19.7725 11.665
19.7877 11.648
19.8029 11.771
19.8180 11.882
19.8332 11.825
19.8484 12.064
19.8636 12.177
19.8787 12.154
19.8939 12.676
19.9091 13.271
19.9243 13.688
19.9394 13.747
19.9546 13.733
19.9698 14.138
19.9850 14.325
20.0001 14.277
20.0153 14.171
20.0305 13.915
20.0457 13.921
20.0608 13.537
20.0760 13.676
20.0912 13.862
20.1064 13.613
20.1215 13.408
20.1367 13.235
20.1519 13.074
20.1671 13.032
20.1822 13.082
20.1974 13.063
20.2126 13.016
20.2278 12.706
20.2429 12.669
20.2581 12.731
20.2733 12.338
20.2885 12.053
20.3036 11.829
20.3188 11.590
20.3340 11.559
20.3492 11.797
20.3643 11.952
20.3795 11.689
20.3947 11.346
20.4099 11.031
20.4250 11.071
20.4402 11.205
20.4554 11.113
20.4706 10.995
20.4857 11.072
20.5009 10.968
20.5161 10.986
20.5313 10.970
20.5464 11.040
20.5616 11.227
20.5768 11.067
20.5920 10.910
20.6071 10.899
20.6223 11.004
20.6375 10.964
20.6527 10.817
20.6678 11.104
20.6830 10.701
20.6982 10.561
20.7134 10.694
20.7285 10.684
20.7437 10.789
20.7589 10.746
20.7741 10.736
20.7892 10.807
20.8044 10.609
20.8196 10.515
20.8348 10.475
20.8499 10.478
20.8651 10.431
20.8803 10.292
20.8955 10.405
20.9106 10.429
20.9258 10.522
20.9410 10.135
20.9562 10.149
20.9713 10.426
20.9865 10.014
21.0017 10.047
21.0169 10.187
21.0320 10.078
21.0472 10.074
21.0624 9.890
21.0776 9.897
21.0927 9.634
21.1079 9.659
21.1231 9.612
21.1383 9.916
21.1534 9.971
21.1686 9.713
21.1838 9.763
21.1990 9.813
21.2141 9.764
21.2293 9.439
21.2445 9.453
21.2597 9.787
21.2748 9.426
21.2900 9.363
21.3052 9.736
21.3204 9.605
21.3355 9.350
21.3507 9.293
21.3659 9.649
21.3811 9.763
21.3962 9.426
21.4114 9.544
21.4266 9.412
21.4418 9.379
21.4569 9.077
21.4721 9.714
21.4873 9.694
21.5025 9.361
21.5176 9.256
21.5328 9.418
21.5480 9.321
21.5632 9.230
21.5783 9.093
21.5935 9.238
21.6087 9.601
21.6239 9.446
21.6390 9.227
21.6542 9.187
21.6694 9.045
21.6846 9.187
21.6997 8.903
21.7149 9.102
21.7301 9.126
21.7453 9.204
21.7604 9.094
21.7756 9.092
21.7908 9.300
21.8060 9.140
21.8211 9.041
21.8363 8.916
21.8515 8.805
21.8667 8.910
21.8818 9.136
21.8970 8.946
21.9122 8.896
21.9274 9.069
21.9425 9.123
21.9577 9.087
21.9729 9.102
21.9881 8.988
22.0032 8.894
22.0184 8.953
22.0336 8.714
22.0488 8.789
22.0639 8.692
22.0791 8.603
22.0943 8.833
22.1095 8.712
22.1246 8.748
22.1398 8.649
22.1550 8.564
22.1702 8.690
22.1853 8.835
22.2005 8.798
22.2157 8.474
22.2309 8.507
22.2460 8.526
22.2612 8.504
22.2764 8.569
22.2916 8.711
22.3067 8.865
22.3219 8.658
22.3371 8.514
22.3523 8.432
22.3674 8.373
22.3826 8.724
22.3978 8.513
22.4130 8.343
22.4281 8.415
22.4433 8.522
22.4585 8.396
22.4737 8.387
22.4888 8.444
22.5040 8.514
22.5192 8.282
22.5344 8.665
22.5495 8.541
22.5647 8.384
22.5799 8.547
22.5951 8.334
22.6102 8.650
22.6254 8.613
22.6406 8.640
22.6558 8.620
22.6709 8.606
22.6861 8.450
22.7013 8.516
22.7165 8.319
22.7316 6.581
