'Id: "" Comment: "" Operator: "Lab Manager" Anode: "Mo" Scantype: "Still (Eiger2R_500K (1D mode))" TimePerStep: "300" X: "11.8" Y: "9.4" Z: "11.284" 
7.2532 18.760
7.2684 19.224
7.2836 19.610
7.2987 18.852
7.3139 19.259
7.3291 19.105
7.3443 19.316
7.3594 19.337
7.3746 19.512
7.3898 19.592
7.4050 19.358
7.4201 19.615
7.4353 19.810
7.4505 19.423
7.4657 19.551
7.4808 19.680
7.4960 19.770
7.5112 19.531
7.5264 19.536
7.5415 19.539
7.5567 19.607
7.5719 19.369
7.5871 19.738
7.6022 20.270
7.6174 19.916
7.6326 19.893
7.6478 19.997
7.6629 19.922
7.6781 20.124
7.6933 20.347
7.7085 20.411
7.7236 20.568
7.7388 20.375
7.7540 20.564
7.7692 20.615
7.7843 20.582
7.7995 20.732
7.8147 20.395
7.8299 20.498
7.8450 20.729
7.8602 20.687
7.8754 20.690
7.8905 20.642
7.9057 20.971
7.9209 21.027
7.9361 20.941
7.9512 21.065
7.9664 21.081
7.9816 20.896
7.9968 21.019
8.0119 21.180
8.0271 21.182
8.0423 21.320
8.0575 21.379
8.0726 21.490
8.0878 21.585
8.1030 21.609
8.1182 21.288
8.1333 21.133
8.1485 21.099
8.1637 21.442
8.1789 21.337
8.1940 21.746
8.2092 21.650
8.2244 21.724
8.2396 21.843
8.2547 22.118
8.2699 22.126
8.2851 21.440
8.3003 21.472
8.3154 21.702
8.3306 21.620
8.3458 22.300
8.3610 21.956
8.3761 22.226
8.3913 22.196
8.4065 21.987
8.4217 22.016
8.4368 22.225
8.4520 22.033
8.4672 22.191
8.4824 22.003
8.4975 22.158
8.5127 22.400
8.5279 22.083
8.5431 22.041
8.5582 21.948
8.5734 22.147
8.5886 22.402
8.6038 23.076
8.6189 22.221
8.6341 22.159
8.6493 21.874
8.6645 22.337
8.6796 22.265
8.6948 22.261
8.7100 22.549
8.7252 22.357
8.7403 22.251
8.7555 22.619
8.7707 22.341
8.7859 22.790
8.8010 22.101
8.8162 22.606
8.8314 22.681
8.8466 22.917
8.8617 23.020
8.8769 22.868
8.8921 22.907
8.9073 22.326
8.9224 22.547
8.9376 22.843
8.9528 23.144
8.9680 23.076
8.9831 22.934
8.9983 22.669
9.0135 22.660
9.0287 22.256
9.0438 22.680
9.0590 22.899
9.0742 22.416
9.0894 22.683
9.1045 22.633
9.1197 22.617
9.1349 22.751
9.1501 22.703
9.1652 23.365
9.1804 23.047
9.1956 23.061
9.2108 22.759
9.2259 22.713
9.2411 22.869
9.2563 22.849
9.2715 23.196
9.2866 23.225
9.3018 23.135
9.3170 22.998
9.3322 23.242
9.3473 23.247
9.3625 23.332
9.3777 22.851
9.3929 23.232
9.4080 23.387
9.4232 22.891
9.4384 23.060
9.4536 23.157
9.4687 23.147
9.4839 23.186
9.4991 23.429
9.5143 23.283
9.5294 23.217
9.5446 23.305
9.5598 23.136
9.5750 22.935
9.5901 23.091
9.6053 23.266
9.6205 23.195
9.6357 23.362
9.6508 23.499
9.6660 23.489
9.6812 23.742
9.6964 23.926
9.7115 24.012
9.7267 24.470
9.7419 24.615
9.7571 24.321
9.7722 24.069
9.7874 23.768
9.8026 23.661
9.8178 23.545
9.8329 23.868
9.8481 24.117
9.8633 24.084
9.8785 24.105
9.8936 24.107
9.9088 24.030
9.9240 24.037
9.9392 24.134
9.9543 23.961
9.9695 23.634
9.9847 23.618
9.9999 23.751
10.0150 23.263
10.0302 23.348
10.0454 23.281
10.0606 22.821
10.0757 22.891
10.0909 23.011
10.1061 23.125
10.1213 23.052
10.1364 23.187
10.1516 23.413
10.1668 23.070
10.1820 22.884
10.1971 23.206
10.2123 23.215
10.2275 23.361
10.2427 23.358
10.2578 23.206
10.2730 23.163
10.2882 23.086
10.3034 23.094
10.3185 23.136
10.3337 22.882
10.3489 22.882
10.3641 23.202
10.3792 22.789
10.3944 22.626
10.4096 22.806
10.4248 22.893
10.4399 22.916
10.4551 22.761
10.4703 22.686
10.4855 22.883
10.5006 23.180
10.5158 23.015
10.5310 22.709
10.5462 22.801
10.5613 22.675
10.5765 22.652
10.5917 22.956
10.6069 23.033
10.6220 23.007
10.6372 22.572
10.6524 22.564
10.6676 22.741
10.6827 22.564
10.6979 22.493
10.7131 22.595
10.7283 22.356
10.7434 22.352
10.7586 22.387
10.7738 22.616
10.7890 22.478
10.8041 22.202
10.8193 22.037
10.8345 22.502
10.8497 22.519
10.8648 22.391
10.8800 21.957
10.8952 21.870
10.9104 21.963
10.9255 22.199
10.9407 22.187
10.9559 22.055
10.9711 21.865
10.9862 21.992
11.0014 22.359
11.0166 22.183
11.0318 21.881
11.0469 21.903
11.0621 21.745
11.0773 21.781
11.0925 21.827
11.1076 21.677
11.1228 21.834
11.1380 21.754
11.1532 21.949
11.1683 21.837
11.1835 21.703
11.1987 21.237
11.2139 21.557
11.2290 21.423
11.2442 21.369
11.2594 21.610
11.2746 21.792
11.2897 21.607
11.3049 21.299
11.3201 21.254
11.3353 21.383
11.3504 21.389
11.3656 21.587
11.3808 21.590
11.3960 21.377
11.4111 21.271
11.4263 21.466
11.4415 21.589
11.4567 21.160
11.4718 20.973
11.4870 21.257
11.5022 21.355
11.5174 21.205
11.5325 21.303
11.5477 21.049
11.5629 21.081
11.5781 20.994
11.5932 21.237
11.6084 21.211
11.6236 20.497
11.6388 20.750
11.6539 20.873
11.6691 20.871
11.6843 20.554
11.6995 20.612
11.7146 20.329
11.7298 20.445
11.7450 20.414
11.7602 20.329
11.7753 20.153
11.7905 20.002
11.8057 19.672
11.8209 19.560
11.8360 19.839
11.8512 19.918
11.8664 19.917
11.8816 19.687
11.8967 19.525
11.9119 19.492
11.9271 19.688
11.9423 19.867
11.9574 19.425
11.9726 19.474
11.9878 19.530
12.0030 19.231
12.0181 19.166
12.0333 19.014
12.0485 18.678
12.0637 18.875
12.0788 19.035
12.0940 19.142
12.1092 18.762
12.1244 18.614
12.1395 18.722
12.1547 18.623
12.1699 18.323
12.1851 18.365
12.2002 18.612
12.2154 18.210
12.2306 18.183
12.2458 18.015
12.2609 17.720
12.2761 17.962
12.2913 17.899
12.3065 17.569
12.3216 17.731
12.3368 17.500
12.3520 17.167
12.3672 17.041
12.3823 17.195
12.3975 17.552
12.4127 17.397
12.4279 16.904
12.4430 16.928
12.4582 17.081
12.4734 16.589
12.4886 16.820
12.5037 16.930
12.5189 16.664
12.5341 16.510
12.5493 16.547
12.5644 16.420
12.5796 16.302
12.5948 16.204
12.6100 15.998
12.6251 15.906
12.6403 16.104
12.6555 15.882
12.6707 15.867
12.6858 15.738
12.7010 15.583
12.7162 15.670
12.7314 15.723
12.7465 15.727
12.7617 15.564
12.7769 15.345
12.7921 15.314
12.8072 15.145
12.8224 15.159
12.8376 15.317
12.8528 15.208
12.8679 14.842
12.8831 14.948
12.8983 15.032
12.9135 14.628
12.9286 14.592
12.9438 14.694
12.9590 14.668
12.9742 14.695
12.9893 14.384
13.0045 14.295
13.0197 14.277
13.0349 14.121
13.0500 13.965
13.0652 13.860
13.0804 13.976
13.0956 13.876
13.1107 13.531
13.1259 13.687
13.1411 14.019
13.1563 13.919
13.1714 13.739
13.1866 13.677
13.2018 13.868
13.2170 13.909
13.2321 13.565
13.2473 13.231
13.2625 13.236
13.2777 13.434
13.2928 13.409
13.3080 13.303
13.3232 13.229
13.3384 13.085
13.3535 13.116
13.3687 13.209
13.3839 13.111
13.3991 13.044
13.4142 13.032
13.4294 12.898
13.4446 12.872
13.4598 12.991
13.4749 12.999
13.4901 13.045
13.5053 12.881
13.5205 12.805
13.5356 12.635
13.5508 12.365
13.5660 12.370
13.5812 12.302
13.5963 12.460
13.6115 12.390
13.6267 12.287
13.6419 12.211
13.6570 12.360
13.6722 12.130
13.6874 11.958
13.7026 12.044
13.7177 12.188
13.7329 12.307
13.7481 12.524
13.7633 12.299
13.7784 12.102
13.7936 12.162
13.8088 12.196
13.8239 12.392
13.8391 12.434
13.8543 12.436
13.8695 12.365
13.8846 12.463
13.8998 12.482
13.9150 12.153
13.9302 12.321
13.9453 12.219
13.9605 11.836
13.9757 11.703
13.9909 11.616
14.0060 11.757
14.0212 11.683
14.0364 11.695
14.0516 11.408
14.0667 11.370
14.0819 11.703
14.0971 11.550
14.1123 11.393
14.1274 11.207
14.1426 11.500
14.1578 11.644
14.1730 11.479
14.1881 11.211
14.2033 11.376
14.2185 11.411
14.2337 11.738
14.2488 11.611
14.2640 11.418
14.2792 11.389
14.2944 11.368
14.3095 11.671
14.3247 11.803
14.3399 11.759
14.3551 11.764
14.3702 12.320
14.3854 12.217
14.4006 12.337
14.4158 12.623
14.4309 12.721
14.4461 12.404
14.4613 12.611
14.4765 12.278
14.4916 12.369
14.5068 12.388
14.5220 12.065
14.5372 11.689
14.5523 11.498
14.5675 11.578
14.5827 11.580
14.5979 11.454
14.6130 11.219
14.6282 11.368
14.6434 11.022
14.6586 11.184
14.6737 11.161
14.6889 10.853
14.7041 11.124
14.7193 11.084
14.7344 11.058
14.7496 11.036
14.7648 10.862
14.7800 11.038
14.7951 10.890
14.8103 10.679
14.8255 11.170
14.8407 10.858
14.8558 10.614
14.8710 11.065
14.8862 10.613
14.9014 10.655
14.9165 11.184
14.9317 11.097
14.9469 10.752
14.9621 10.776
14.9772 10.428
14.9924 10.797
15.0076 10.701
15.0228 10.963
15.0379 10.526
15.0531 10.648
15.0683 10.706
15.0835 10.394
15.0986 10.211
15.1138 10.528
15.1290 10.505
15.1442 10.406
15.1593 10.500
15.1745 10.131
15.1897 10.310
15.2049 10.721
15.2200 10.247
15.2352 10.392
15.2504 10.678
15.2656 10.565
15.2807 10.479
15.2959 10.254
15.3111 10.312
15.3263 10.563
15.3414 10.189
15.3566 10.348
15.3718 10.226
15.3870 10.210
15.4021 10.380
15.4173 10.237
15.4325 10.416
15.4477 10.495
15.4628 10.314
15.4780 10.535
15.4932 10.363
15.5084 10.610
15.5235 10.199
15.5387 10.014
15.5539 10.152
15.5691 10.199
15.5842 10.273
15.5994 9.989
15.6146 9.980
15.6298 10.169
15.6449 10.065
15.6601 9.937
15.6753 10.282
15.6905 10.024
15.7056 10.161
15.7208 9.912
15.7360 9.739
15.7512 9.779
15.7663 10.081
15.7815 9.795
15.7967 9.822
15.8119 10.149
15.8270 9.970
15.8422 9.686
15.8574 9.675
15.8726 9.839
15.8877 9.546
15.9029 9.642
15.9181 9.743
15.9333 9.691
15.9484 9.826
15.9636 9.874
15.9788 9.737
15.9940 9.877
16.0091 9.878
16.0243 10.017
16.0395 9.738
16.0547 9.634
16.0698 9.849
16.0850 9.817
16.1002 9.701
16.1154 9.538
16.1305 9.776
16.1457 9.627
16.1609 9.681
16.1761 10.001
16.1912 9.781
16.2064 9.770
16.2216 9.669
16.2368 9.986
16.2519 10.191
16.2671 9.943
16.2823 9.930
16.2975 10.056
16.3126 10.151
16.3278 10.157
16.3430 10.195
16.3582 10.181
16.3733 9.860
16.3885 9.949
16.4037 10.141
16.4189 9.922
16.4340 10.157
16.4492 10.229
16.4644 9.929
16.4796 9.855
16.4947 9.737
16.5099 10.018
16.5251 9.981
16.5403 9.880
16.5554 9.748
16.5706 9.507
16.5858 9.705
16.6010 10.049
16.6161 10.046
16.6313 9.904
16.6465 9.866
16.6617 9.755
16.6768 9.792
16.6920 9.844
16.7072 10.179
16.7224 10.390
16.7375 10.263
16.7527 10.184
16.7679 10.175
16.7831 10.213
16.7982 9.999
16.8134 10.043
16.8286 10.037
16.8438 9.972
16.8589 9.956
16.8741 9.971
16.8893 9.810
16.9045 9.701
16.9196 9.794
16.9348 9.806
16.9500 9.979
16.9652 10.079
16.9803 9.938
16.9955 10.002
17.0107 9.939
17.0259 10.050
17.0410 10.280
17.0562 10.432
17.0714 10.448
17.0866 10.579
17.1017 10.654
17.1169 10.900
17.1321 11.275
17.1473 11.339
17.1624 11.962
17.1776 12.788
17.1928 13.303
17.2080 13.916
17.2231 15.119
17.2383 16.444
17.2535 17.779
17.2687 18.846
17.2838 18.945
17.2990 18.419
17.3142 17.206
17.3294 16.245
17.3445 15.894
17.3597 16.083
17.3749 16.046
17.3901 15.334
17.4052 14.428
17.4204 13.363
17.4356 12.283
17.4508 11.669
17.4659 11.645
17.4811 11.330
17.4963 10.981
17.5115 10.594
17.5266 10.420
17.5418 10.640
17.5570 10.669
17.5722 10.527
17.5873 10.557
17.6025 10.491
17.6177 10.332
17.6329 10.105
17.6480 9.894
17.6632 10.275
17.6784 10.375
17.6936 10.116
17.7087 10.160
17.7239 10.177
17.7391 10.022
17.7543 10.282
17.7694 10.546
17.7846 10.570
17.7998 10.601
17.8150 10.852
17.8301 11.113
17.8453 11.031
17.8605 11.122
17.8757 11.057
17.8908 10.960
17.9060 11.015
17.9212 11.082
17.9364 10.915
17.9515 10.610
17.9667 10.757
17.9819 10.815
17.9971 10.809
18.0122 10.482
18.0274 10.309
18.0426 10.478
18.0578 10.452
18.0729 10.318
18.0881 10.105
18.1033 9.984
18.1185 9.881
18.1336 9.994
18.1488 10.108
18.1640 10.018
18.1792 9.959
18.1943 9.952
18.2095 9.893
18.2247 9.943
18.2399 9.809
18.2550 9.678
18.2702 9.963
18.2854 10.250
18.3006 10.030
18.3157 10.066
18.3309 10.138
18.3461 9.608
18.3613 9.495
18.3764 9.944
18.3916 9.928
18.4068 9.901
18.4220 9.657
18.4371 9.685
18.4523 9.919
18.4675 9.675
18.4827 9.737
18.4978 9.674
18.5130 9.780
18.5282 9.992
18.5434 9.948
18.5585 9.877
18.5737 10.090
18.5889 9.882
18.6041 9.652
18.6192 9.930
18.6344 9.910
18.6496 9.932
18.6648 10.012
18.6799 9.893
18.6951 10.034
18.7103 9.902
18.7255 9.772
18.7406 9.704
18.7558 9.904
18.7710 9.961
18.7862 9.805
18.8013 9.586
18.8165 9.662
18.8317 9.910
18.8469 9.880
18.8620 9.877
18.8772 10.205
18.8924 9.970
18.9076 9.860
18.9227 9.796
18.9379 9.905
18.9531 10.255
18.9683 10.084
18.9834 10.056
18.9986 10.199
19.0138 10.055
19.0290 9.994
19.0441 10.099
19.0593 10.257
19.0745 10.601
19.0897 10.464
19.1048 10.441
19.1200 10.685
19.1352 10.746
19.1504 10.677
19.1655 10.602
19.1807 10.720
19.1959 10.654
19.2111 10.692
19.2262 10.815
19.2414 10.706
19.2566 10.778
19.2718 10.835
19.2869 10.911
19.3021 10.995
19.3173 11.071
19.3325 11.081
19.3476 11.043
19.3628 11.079
19.3780 11.197
19.3932 11.302
19.4083 11.301
19.4235 11.305
19.4387 11.446
19.4539 11.583
19.4690 11.590
19.4842 11.585
19.4994 11.586
19.5146 11.295
19.5297 11.398
19.5449 11.700
19.5601 11.650
19.5753 11.420
19.5904 11.362
19.6056 11.701
19.6208 11.734
19.6360 11.640
19.6511 11.741
19.6663 11.840
19.6815 11.831
19.6967 11.795
19.7118 11.794
19.7270 11.784
19.7422 11.808
19.7574 11.817
19.7725 11.731
19.7877 11.809
19.8029 11.873
19.8180 12.050
19.8332 12.220
19.8484 12.011
19.8636 12.034
19.8787 12.552
19.8939 12.828
19.9091 12.994
19.9243 13.255
19.9394 13.742
19.9546 14.285
19.9698 14.505
19.9850 14.723
20.0001 14.610
20.0153 14.457
20.0305 14.206
20.0457 14.045
20.0608 13.780
20.0760 13.742
20.0912 13.652
20.1064 13.639
20.1215 13.528
20.1367 13.214
20.1519 12.956
20.1671 12.756
20.1822 12.689
20.1974 12.524
20.2126 12.437
20.2278 12.500
20.2429 12.494
20.2581 11.981
20.2733 11.739
20.2885 11.664
20.3036 11.601
20.3188 11.524
20.3340 11.696
20.3492 11.866
20.3643 11.836
20.3795 11.333
20.3947 11.164
20.4099 10.870
20.4250 10.688
20.4402 10.726
20.4554 10.587
20.4706 10.705
20.4857 10.762
20.5009 10.817
20.5161 10.744
20.5313 10.762
20.5464 10.544
20.5616 10.406
20.5768 10.723
20.5920 10.612
20.6071 10.713
20.6223 10.577
20.6375 10.290
20.6527 10.433
20.6678 10.608
20.6830 10.637
20.6982 10.414
20.7134 10.780
20.7285 10.473
20.7437 10.502
20.7589 10.255
20.7741 10.170
20.7892 10.120
20.8044 10.637
20.8196 10.378
20.8348 10.437
20.8499 10.345
20.8651 10.265
20.8803 10.318
20.8955 10.385
20.9106 10.232
20.9258 10.637
20.9410 10.608
20.9562 10.387
20.9713 10.483
20.9865 10.499
21.0017 10.478
21.0169 10.317
21.0320 10.340
21.0472 10.188
21.0624 10.266
21.0776 10.018
21.0927 10.189
21.1079 9.968
21.1231 10.027
21.1383 9.906
21.1534 10.029
21.1686 9.993
21.1838 9.773
21.1990 9.906
21.2141 9.594
21.2293 9.753
21.2445 9.317
21.2597 9.688
21.2748 9.370
21.2900 9.375
21.3052 9.397
21.3204 9.663
21.3355 9.487
21.3507 9.613
21.3659 9.728
21.3811 9.627
21.3962 9.424
21.4114 9.937
21.4266 9.336
21.4418 9.213
21.4569 9.328
21.4721 9.530
21.4873 9.533
21.5025 9.862
21.5176 9.419
21.5328 9.409
21.5480 9.387
21.5632 9.548
21.5783 9.464
21.5935 9.373
21.6087 9.150
21.6239 9.264
21.6390 9.285
21.6542 9.278
21.6694 9.244
21.6846 9.316
21.6997 9.165
21.7149 8.961
21.7301 9.104
21.7453 9.048
21.7604 9.020
21.7756 9.023
21.7908 9.093
21.8060 9.152
21.8211 9.160
21.8363 9.060
21.8515 8.995
21.8667 9.007
21.8818 9.146
21.8970 8.968
21.9122 9.068
21.9274 9.029
21.9425 8.791
21.9577 8.739
21.9729 8.962
21.9881 9.070
22.0032 9.026
22.0184 9.014
22.0336 8.908
22.0488 8.821
22.0639 8.682
22.0791 8.669
22.0943 8.572
22.1095 8.548
22.1246 8.662
22.1398 8.811
22.1550 8.733
22.1702 8.772
22.1853 8.594
22.2005 8.588
22.2157 8.552
22.2309 8.331
22.2460 8.496
22.2612 8.615
22.2764 8.760
22.2916 8.621
22.3067 8.470
22.3219 8.430
22.3371 8.507
22.3523 8.474
22.3674 8.614
22.3826 8.661
22.3978 8.496
22.4130 8.344
22.4281 8.457
22.4433 8.459
22.4585 8.639
22.4737 8.715
22.4888 8.454
22.5040 8.482
22.5192 8.255
22.5344 8.478
22.5495 8.702
22.5647 8.390
22.5799 8.502
22.5951 8.624
22.6102 8.473
22.6254 8.670
22.6406 8.294
22.6558 8.523
22.6709 8.429
22.6861 8.188
22.7013 8.392
22.7165 8.003
22.7316 6.335
