'Id: "" Comment: "" Operator: "Lab Manager" Anode: "Mo" Scantype: "Still (Eiger2R_500K (1D mode))" TimePerStep: "300" X: "11.8" Y: "9.4" Z: "11.284" 
7.2532 19.086
7.2684 18.757
7.2836 19.518
7.2987 18.442
7.3139 19.485
7.3291 19.167
7.3443 19.354
7.3594 19.345
7.3746 19.779
7.3898 19.008
7.4050 19.045
7.4201 19.705
7.4353 19.702
7.4505 19.688
7.4657 19.394
7.4808 19.447
7.4960 19.292
7.5112 19.380
7.5264 19.759
7.5415 19.963
7.5567 19.857
7.5719 19.873
7.5871 20.200
7.6022 20.334
7.6174 20.247
7.6326 20.226
7.6478 20.497
7.6629 20.407
7.6781 20.370
7.6933 20.194
7.7085 20.403
7.7236 20.767
7.7388 20.695
7.7540 20.413
7.7692 20.537
7.7843 20.850
7.7995 20.958
7.8147 20.778
7.8299 20.829
7.8450 20.808
7.8602 20.835
7.8754 20.772
7.8905 20.973
7.9057 21.147
7.9209 20.893
7.9361 21.089
7.9512 21.275
7.9664 21.366
7.9816 21.295
7.9968 21.314
8.0119 21.237
8.0271 21.082
8.0423 20.985
8.0575 21.108
8.0726 21.266
8.0878 21.496
8.1030 21.430
8.1182 21.297
8.1333 21.444
8.1485 21.430
8.1637 21.389
8.1789 21.581
8.1940 21.919
8.2092 21.567
8.2244 21.536
8.2396 21.916
8.2547 21.960
8.2699 21.819
8.2851 21.822
8.3003 21.819
8.3154 21.840
8.3306 21.668
8.3458 21.844
8.3610 21.873
8.3761 22.125
8.3913 21.986
8.4065 21.951
8.4217 21.710
8.4368 21.605
8.4520 22.420
8.4672 21.636
8.4824 21.648
8.4975 22.293
8.5127 22.437
8.5279 22.105
8.5431 22.205
8.5582 22.188
8.5734 21.887
8.5886 22.007
8.6038 22.275
8.6189 22.712
8.6341 22.392
8.6493 22.397
8.6645 22.723
8.6796 22.495
8.6948 22.612
8.7100 22.836
8.7252 22.975
8.7403 22.710
8.7555 22.655
8.7707 22.837
8.7859 22.446
8.8010 22.557
8.8162 22.551
8.8314 22.628
8.8466 22.693
8.8617 22.314
8.8769 22.266
8.8921 22.531
8.9073 22.591
8.9224 22.866
8.9376 22.749
8.9528 22.506
8.9680 23.012
8.9831 22.269
8.9983 22.443
9.0135 22.462
9.0287 22.558
9.0438 23.116
9.0590 22.764
9.0742 22.644
9.0894 22.763
9.1045 22.889
9.1197 23.423
9.1349 23.285
9.1501 23.184
9.1652 23.021
9.1804 23.162
9.1956 22.940
9.2108 22.897
9.2259 22.969
9.2411 23.418
9.2563 23.198
9.2715 23.311
9.2866 23.241
9.3018 23.267
9.3170 23.225
9.3322 23.171
9.3473 23.346
9.3625 23.256
9.3777 23.289
9.3929 23.241
9.4080 22.978
9.4232 22.881
9.4384 23.031
9.4536 23.134
9.4687 23.141
9.4839 23.772
9.4991 23.574
9.5143 23.309
9.5294 23.091
9.5446 23.098
9.5598 23.439
9.5750 23.269
9.5901 23.028
9.6053 23.435
9.6205 23.466
9.6357 23.207
9.6508 23.400
9.6660 23.469
9.6812 23.659
9.6964 23.841
9.7115 23.837
9.7267 24.117
9.7419 24.475
9.7571 24.454
9.7722 24.005
9.7874 24.164
9.8026 24.090
9.8178 23.704
9.8329 23.423
9.8481 23.367
9.8633 23.528
9.8785 23.606
9.8936 23.683
9.9088 23.630
9.9240 23.637
9.9392 23.663
9.9543 23.777
9.9695 23.807
9.9847 23.642
9.9999 23.865
10.0150 24.029
10.0302 23.939
10.0454 23.983
10.0606 23.747
10.0757 23.447
10.0909 23.697
10.1061 24.014
10.1213 23.606
10.1364 23.569
10.1516 24.019
10.1668 24.471
10.1820 24.100
10.1971 23.988
10.2123 24.107
10.2275 24.355
10.2427 24.784
10.2578 24.169
10.2730 23.963
10.2882 23.811
10.3034 23.666
10.3185 23.802
10.3337 23.749
10.3489 23.618
10.3641 23.247
10.3792 23.012
10.3944 22.856
10.4096 23.131
10.4248 23.032
10.4399 23.137
10.4551 22.995
10.4703 22.775
10.4855 22.853
10.5006 22.834
10.5158 22.822
10.5310 22.861
10.5462 22.947
10.5613 22.891
10.5765 23.034
10.5917 22.948
10.6069 22.718
10.6220 22.617
10.6372 22.681
10.6524 22.668
10.6676 22.525
10.6827 22.869
10.6979 22.901
10.7131 22.550
10.7283 22.202
10.7434 22.511
10.7586 22.651
10.7738 22.704
10.7890 22.382
10.8041 22.306
10.8193 22.256
10.8345 22.628
10.8497 22.453
10.8648 22.202
10.8800 22.310
10.8952 22.241
10.9104 22.040
10.9255 22.231
10.9407 22.305
10.9559 22.401
10.9711 22.202
10.9862 22.061
11.0014 22.193
11.0166 22.059
11.0318 22.269
11.0469 21.684
11.0621 21.430
11.0773 21.768
11.0925 21.509
11.1076 21.752
11.1228 21.806
11.1380 21.797
11.1532 21.939
11.1683 21.853
11.1835 22.089
11.1987 21.700
11.2139 21.611
11.2290 21.811
11.2442 21.763
11.2594 22.033
11.2746 21.741
11.2897 21.824
11.3049 21.590
11.3201 21.779
11.3353 21.782
11.3504 21.728
11.3656 21.461
11.3808 21.314
11.3960 21.313
11.4111 21.281
11.4263 21.158
11.4415 20.881
11.4567 20.956
11.4718 21.412
11.4870 21.372
11.5022 21.400
11.5174 21.150
11.5325 21.149
11.5477 21.042
11.5629 20.981
11.5781 20.746
11.5932 20.736
11.6084 20.765
11.6236 20.842
11.6388 20.854
11.6539 20.327
11.6691 20.452
11.6843 20.526
11.6995 20.714
11.7146 20.642
11.7298 20.233
11.7450 20.119
11.7602 20.114
11.7753 20.033
11.7905 20.004
11.8057 20.112
11.8209 20.136
11.8360 19.961
11.8512 19.756
11.8664 20.026
11.8816 20.082
11.8967 19.842
11.9119 19.371
11.9271 19.586
11.9423 19.489
11.9574 19.125
11.9726 19.139
11.9878 19.183
12.0030 19.108
12.0181 19.417
12.0333 19.578
12.0485 19.044
12.0637 19.140
12.0788 18.877
12.0940 18.834
12.1092 18.737
12.1244 18.571
12.1395 18.459
12.1547 18.555
12.1699 18.430
12.1851 18.324
12.2002 18.511
12.2154 18.220
12.2306 18.119
12.2458 17.894
12.2609 17.720
12.2761 17.854
12.2913 17.784
12.3065 17.811
12.3216 17.710
12.3368 17.719
12.3520 17.377
12.3672 17.259
12.3823 17.348
12.3975 17.088
12.4127 16.952
12.4279 17.260
12.4430 17.135
12.4582 16.898
12.4734 17.149
12.4886 16.924
12.5037 17.066
12.5189 17.058
12.5341 16.728
12.5493 16.315
12.5644 16.075
12.5796 16.226
12.5948 16.345
12.6100 15.945
12.6251 15.743
12.6403 15.963
12.6555 15.818
12.6707 15.704
12.6858 15.561
12.7010 15.356
12.7162 15.507
12.7314 15.667
12.7465 15.704
12.7617 15.203
12.7769 15.192
12.7921 15.359
12.8072 15.228
12.8224 15.232
12.8376 15.290
12.8528 14.973
12.8679 14.798
12.8831 14.911
12.8983 14.912
12.9135 14.873
12.9286 14.690
12.9438 14.546
12.9590 14.203
12.9742 14.192
12.9893 14.398
13.0045 14.088
13.0197 13.991
13.0349 14.089
13.0500 13.861
13.0652 13.843
13.0804 13.963
13.0956 13.955
13.1107 13.943
13.1259 13.990
13.1411 13.654
13.1563 13.513
13.1714 13.663
13.1866 13.472
13.2018 13.344
13.2170 13.366
13.2321 13.466
13.2473 13.518
13.2625 13.247
13.2777 13.048
13.2928 13.222
13.3080 13.182
13.3232 13.072
13.3384 13.177
13.3535 13.528
13.3687 13.316
13.3839 12.764
13.3991 12.627
13.4142 12.714
13.4294 12.898
13.4446 12.920
13.4598 12.848
13.4749 12.713
13.4901 12.407
13.5053 12.339
13.5205 12.564
13.5356 12.433
13.5508 12.287
13.5660 12.279
13.5812 12.298
13.5963 12.321
13.6115 12.215
13.6267 12.094
13.6419 11.984
13.6570 12.010
13.6722 12.149
13.6874 12.015
13.7026 11.952
13.7177 11.951
13.7329 12.090
13.7481 12.135
13.7633 11.960
13.7784 11.895
13.7936 12.193
13.8088 12.256
13.8239 12.077
13.8391 12.333
13.8543 12.233
13.8695 12.186
13.8846 12.059
13.8998 12.096
13.9150 12.337
13.9302 12.419
13.9453 12.055
13.9605 11.826
13.9757 11.602
13.9909 11.720
14.0060 11.529
14.0212 11.444
14.0364 11.417
14.0516 11.433
14.0667 11.441
14.0819 11.485
14.0971 11.521
14.1123 11.192
14.1274 11.448
14.1426 11.585
14.1578 11.310
14.1730 11.384
14.1881 11.592
14.2033 11.663
14.2185 11.806
14.2337 11.711
14.2488 11.640
14.2640 11.843
14.2792 12.087
14.2944 11.946
14.3095 11.963
14.3247 12.261
14.3399 12.295
14.3551 12.331
14.3702 12.519
14.3854 12.931
14.4006 13.220
14.4158 13.219
14.4309 12.691
14.4461 13.259
14.4613 13.368
14.4765 12.877
14.4916 13.143
14.5068 13.228
14.5220 12.790
14.5372 12.796
14.5523 12.526
14.5675 11.966
14.5827 12.220
14.5979 12.301
14.6130 12.225
14.6282 12.008
14.6434 11.869
14.6586 11.776
14.6737 11.362
14.6889 11.759
14.7041 11.483
14.7193 11.548
14.7344 11.114
14.7496 11.261
14.7648 11.159
14.7800 11.027
14.7951 10.890
14.8103 10.815
14.8255 10.634
14.8407 10.757
14.8558 10.390
14.8710 10.477
14.8862 10.665
14.9014 10.618
14.9165 11.040
14.9317 10.672
14.9469 10.410
14.9621 10.710
14.9772 10.715
14.9924 10.277
15.0076 10.742
15.0228 10.846
15.0379 10.464
15.0531 10.718
15.0683 10.628
15.0835 10.612
15.0986 10.675
15.1138 10.859
15.1290 10.631
15.1442 10.646
15.1593 10.698
15.1745 10.680
15.1897 10.557
15.2049 10.381
15.2200 10.615
15.2352 10.655
15.2504 10.292
15.2656 10.413
15.2807 10.377
15.2959 10.671
15.3111 10.325
15.3263 10.441
15.3414 10.868
15.3566 10.400
15.3718 10.395
15.3870 10.492
15.4021 10.464
15.4173 10.414
15.4325 10.813
15.4477 10.845
15.4628 10.571
15.4780 10.310
15.4932 10.743
15.5084 10.463
15.5235 10.065
15.5387 10.202
15.5539 10.621
15.5691 10.053
15.5842 10.020
15.5994 10.129
15.6146 10.280
15.6298 10.183
15.6449 10.211
15.6601 9.963
15.6753 10.104
15.6905 10.016
15.7056 10.036
15.7208 9.881
15.7360 9.831
15.7512 10.030
15.7663 10.026
15.7815 9.535
15.7967 9.940
15.8119 9.923
15.8270 9.936
15.8422 9.660
15.8574 10.097
15.8726 9.882
15.8877 9.791
15.9029 9.930
15.9181 9.852
15.9333 9.690
15.9484 9.655
15.9636 9.780
15.9788 9.792
15.9940 9.701
16.0091 9.706
16.0243 9.915
16.0395 9.693
16.0547 9.828
16.0698 9.679
16.0850 9.893
16.1002 9.749
16.1154 9.524
16.1305 9.836
16.1457 10.026
16.1609 9.833
16.1761 9.937
16.1912 9.837
16.2064 9.774
16.2216 9.766
16.2368 9.899
16.2519 9.742
16.2671 10.005
16.2823 10.439
16.2975 10.180
16.3126 10.073
16.3278 10.079
16.3430 10.090
16.3582 10.080
16.3733 10.153
16.3885 10.399
16.4037 10.311
16.4189 10.023
16.4340 10.024
16.4492 9.909
16.4644 9.892
16.4796 9.946
16.4947 10.026
16.5099 9.843
16.5251 9.573
16.5403 9.589
16.5554 9.889
16.5706 9.843
16.5858 9.790
16.6010 9.739
16.6161 9.752
16.6313 9.818
16.6465 9.844
16.6617 9.883
16.6768 9.832
16.6920 9.929
16.7072 9.735
16.7224 9.839
16.7375 9.899
16.7527 9.870
16.7679 9.770
16.7831 9.914
16.7982 9.973
16.8134 9.915
16.8286 9.900
16.8438 9.805
16.8589 9.654
16.8741 9.607
16.8893 9.587
16.9045 9.642
16.9196 9.668
16.9348 9.830
16.9500 9.807
16.9652 9.699
16.9803 9.678
16.9955 9.923
17.0107 9.941
17.0259 9.787
17.0410 10.073
17.0562 10.346
17.0714 10.258
17.0866 10.205
17.1017 10.432
17.1169 10.582
17.1321 10.794
17.1473 11.176
17.1624 11.717
17.1776 12.397
17.1928 12.993
17.2080 13.734
17.2231 14.736
17.2383 16.041
17.2535 17.322
17.2687 18.367
17.2838 18.573
17.2990 17.637
17.3142 16.791
17.3294 16.424
17.3445 16.170
17.3597 16.074
17.3749 15.959
17.3901 15.122
17.4052 14.105
17.4204 13.284
17.4356 12.487
17.4508 12.030
17.4659 11.506
17.4811 11.243
17.4963 11.279
17.5115 11.262
17.5266 11.074
17.5418 10.989
17.5570 11.039
17.5722 11.084
17.5873 11.363
17.6025 11.148
17.6177 10.864
17.6329 10.940
17.6480 10.829
17.6632 10.918
17.6784 11.111
17.6936 10.903
17.7087 10.724
17.7239 10.798
17.7391 10.825
17.7543 10.712
17.7694 10.914
17.7846 11.045
17.7998 11.148
17.8150 11.268
17.8301 11.408
17.8453 11.672
17.8605 11.533
17.8757 11.461
17.8908 11.666
17.9060 11.778
17.9212 11.752
17.9364 11.449
17.9515 11.074
17.9667 10.870
17.9819 10.911
17.9971 10.736
18.0122 10.633
18.0274 10.618
18.0426 10.531
18.0578 10.623
18.0729 10.501
18.0881 10.536
18.1033 10.386
18.1185 10.105
18.1336 9.851
18.1488 9.645
18.1640 9.829
18.1792 9.960
18.1943 9.928
18.2095 10.117
18.2247 10.159
18.2399 9.947
18.2550 9.822
18.2702 9.874
18.2854 9.812
18.3006 10.074
18.3157 10.179
18.3309 9.826
18.3461 9.775
18.3613 9.920
18.3764 9.901
18.3916 9.968
18.4068 9.945
18.4220 10.024
18.4371 9.922
18.4523 9.981
18.4675 9.989
18.4827 9.819
18.4978 9.637
18.5130 9.694
18.5282 9.836
18.5434 9.984
18.5585 9.744
18.5737 9.765
18.5889 9.785
18.6041 9.932
18.6192 10.010
18.6344 9.753
18.6496 9.574
18.6648 9.687
18.6799 9.846
18.6951 9.845
18.7103 9.684
18.7255 9.759
18.7406 9.801
18.7558 9.995
18.7710 9.679
18.7862 9.638
18.8013 9.513
18.8165 9.396
18.8317 9.742
18.8469 9.817
18.8620 9.908
18.8772 9.961
18.8924 9.990
18.9076 10.202
18.9227 10.207
18.9379 9.940
18.9531 10.171
18.9683 10.052
18.9834 10.043
18.9986 10.176
19.0138 10.085
19.0290 10.075
19.0441 10.113
19.0593 10.282
19.0745 10.304
19.0897 9.997
19.1048 10.176
19.1200 10.234
19.1352 10.336
19.1504 10.535
19.1655 10.680
19.1807 10.767
19.1959 10.655
19.2111 10.643
19.2262 10.911
19.2414 10.908
19.2566 10.809
19.2718 10.772
19.2869 10.855
19.3021 10.807
19.3173 10.907
19.3325 11.053
19.3476 11.032
19.3628 11.334
19.3780 11.405
19.3932 11.255
19.4083 11.381
19.4235 11.323
19.4387 11.160
19.4539 11.162
19.4690 11.244
19.4842 11.402
19.4994 11.526
19.5146 11.384
19.5297 11.571
19.5449 11.761
19.5601 11.708
19.5753 11.566
19.5904 11.407
19.6056 11.790
19.6208 11.825
19.6360 11.625
19.6511 11.695
19.6663 11.623
19.6815 11.476
19.6967 11.620
19.7118 11.816
19.7270 11.852
19.7422 11.657
19.7574 11.586
19.7725 11.800
19.7877 11.898
19.8029 11.950
19.8180 11.822
19.8332 11.971
19.8484 12.034
19.8636 12.226
19.8787 12.352
19.8939 12.605
19.9091 13.140
19.9243 13.226
19.9394 13.445
19.9546 13.924
19.9698 14.290
19.9850 14.761
20.0001 14.739
20.0153 14.354
20.0305 14.023
20.0457 13.547
20.0608 13.455
20.0760 13.515
20.0912 13.625
20.1064 13.539
20.1215 13.247
20.1367 13.168
20.1519 12.699
20.1671 12.768
20.1822 12.876
20.1974 12.500
20.2126 12.705
20.2278 13.098
20.2429 12.863
20.2581 12.461
20.2733 12.132
20.2885 12.162
20.3036 12.142
20.3188 11.788
20.3340 11.864
20.3492 11.779
20.3643 11.653
20.3795 11.477
20.3947 11.343
20.4099 11.338
20.4250 11.176
20.4402 10.876
20.4554 10.941
20.4706 10.871
20.4857 10.830
20.5009 10.900
20.5161 10.946
20.5313 10.873
20.5464 11.078
20.5616 11.045
20.5768 10.788
20.5920 10.868
20.6071 10.994
20.6223 11.078
20.6375 11.188
20.6527 10.775
20.6678 10.662
20.6830 10.599
20.6982 10.880
20.7134 10.575
20.7285 10.778
20.7437 10.685
20.7589 10.718
20.7741 10.878
20.7892 10.817
20.8044 10.718
20.8196 10.600
20.8348 10.444
20.8499 10.380
20.8651 10.538
20.8803 10.581
20.8955 10.966
20.9106 10.568
20.9258 10.426
20.9410 10.401
20.9562 10.479
20.9713 10.131
20.9865 10.231
21.0017 10.166
21.0169 10.421
21.0320 10.175
21.0472 10.328
21.0624 10.265
21.0776 10.552
21.0927 10.060
21.1079 10.101
21.1231 9.797
21.1383 10.173
21.1534 10.102
21.1686 9.836
21.1838 9.684
21.1990 9.894
21.2141 9.980
21.2293 9.726
21.2445 9.768
21.2597 9.555
21.2748 9.365
21.2900 9.244
21.3052 9.429
21.3204 9.671
21.3355 9.212
21.3507 9.204
21.3659 9.634
21.3811 9.651
21.3962 9.426
21.4114 9.455
21.4266 9.391
21.4418 9.340
21.4569 9.245
21.4721 9.335
21.4873 9.325
21.5025 9.365
21.5176 9.480
21.5328 9.400
21.5480 9.229
21.5632 9.381
21.5783 9.327
21.5935 9.430
21.6087 9.395
21.6239 9.274
21.6390 9.202
21.6542 9.228
21.6694 9.289
21.6846 8.940
21.6997 9.077
21.7149 9.103
21.7301 9.211
21.7453 8.937
21.7604 8.983
21.7756 9.135
21.7908 9.208
21.8060 8.980
21.8211 9.015
21.8363 9.164
21.8515 9.043
21.8667 8.958
21.8818 9.037
21.8970 9.084
21.9122 9.101
21.9274 8.975
21.9425 8.851
21.9577 8.772
21.9729 8.628
21.9881 8.657
22.0032 8.588
22.0184 8.788
22.0336 8.991
22.0488 8.950
22.0639 8.803
22.0791 8.588
22.0943 8.657
22.1095 8.683
22.1246 8.657
22.1398 8.654
22.1550 8.574
22.1702 8.517
22.1853 8.578
22.2005 8.632
22.2157 8.598
22.2309 8.398
22.2460 8.572
22.2612 8.538
22.2764 8.498
22.2916 8.680
22.3067 8.753
22.3219 8.655
22.3371 8.164
22.3523 8.433
22.3674 8.366
22.3826 8.472
22.3978 8.657
22.4130 8.478
22.4281 8.579
22.4433 8.390
22.4585 8.443
22.4737 8.274
22.4888 8.270
22.5040 8.502
22.5192 8.226
22.5344 8.421
22.5495 8.438
22.5647 8.343
22.5799 8.409
22.5951 8.715
22.6102 8.706
22.6254 8.709
22.6406 8.367
22.6558 8.357
22.6709 8.505
22.6861 8.231
22.7013 8.341
22.7165 8.048
22.7316 6.343
