'Id: "" Comment: "" Operator: "Lab Manager" Anode: "Mo" Scantype: "Still (Eiger2R_500K (1D mode))" TimePerStep: "300" X: "11.8" Y: "9.4" Z: "11.284" 
7.2532 18.443
7.2684 18.965
7.2836 19.050
7.2987 19.202
7.3139 19.034
7.3291 19.166
7.3443 19.353
7.3594 18.874
7.3746 19.357
7.3898 18.782
7.4050 18.620
7.4201 19.475
7.4353 19.301
7.4505 19.327
7.4657 19.285
7.4808 19.331
7.4960 19.347
7.5112 19.355
7.5264 19.216
7.5415 19.636
7.5567 19.995
7.5719 19.689
7.5871 19.404
7.6022 19.355
7.6174 19.952
7.6326 20.099
7.6478 20.002
7.6629 19.993
7.6781 20.028
7.6933 19.898
7.7085 20.068
7.7236 20.285
7.7388 20.309
7.7540 20.379
7.7692 20.383
7.7843 20.181
7.7995 20.161
7.8147 20.179
7.8299 20.477
7.8450 20.174
7.8602 20.260
7.8754 20.692
7.8905 20.775
7.9057 20.809
7.9209 20.776
7.9361 20.963
7.9512 20.947
7.9664 20.600
7.9816 21.057
7.9968 21.015
8.0119 21.077
8.0271 20.839
8.0423 20.750
8.0575 20.855
8.0726 21.277
8.0878 21.302
8.1030 21.257
8.1182 20.650
8.1333 20.896
8.1485 21.234
8.1637 21.066
8.1789 21.301
8.1940 20.957
8.2092 21.484
8.2244 21.386
8.2396 21.355
8.2547 21.374
8.2699 21.333
8.2851 21.077
8.3003 21.438
8.3154 21.612
8.3306 21.664
8.3458 21.632
8.3610 21.296
8.3761 21.876
8.3913 21.508
8.4065 21.620
8.4217 22.124
8.4368 22.043
8.4520 21.229
8.4672 22.105
8.4824 22.199
8.4975 21.833
8.5127 21.898
8.5279 22.341
8.5431 22.230
8.5582 22.007
8.5734 21.875
8.5886 22.370
8.6038 22.382
8.6189 22.051
8.6341 22.593
8.6493 22.737
8.6645 22.126
8.6796 21.937
8.6948 22.362
8.7100 22.196
8.7252 22.201
8.7403 22.515
8.7555 22.540
8.7707 22.196
8.7859 21.877
8.8010 22.319
8.8162 22.249
8.8314 22.314
8.8466 22.147
8.8617 22.599
8.8769 22.474
8.8921 22.308
8.9073 22.599
8.9224 22.475
8.9376 22.616
8.9528 22.863
8.9680 22.275
8.9831 22.553
8.9983 22.369
9.0135 22.323
9.0287 22.316
9.0438 22.293
9.0590 22.471
9.0742 22.596
9.0894 22.679
9.1045 22.417
9.1197 22.097
9.1349 22.683
9.1501 22.707
9.1652 23.060
9.1804 23.348
9.1956 22.574
9.2108 22.383
9.2259 23.020
9.2411 22.679
9.2563 22.911
9.2715 22.914
9.2866 22.677
9.3018 22.675
9.3170 22.829
9.3322 22.836
9.3473 22.738
9.3625 22.804
9.3777 22.832
9.3929 23.210
9.4080 22.793
9.4232 22.797
9.4384 23.018
9.4536 22.994
9.4687 23.069
9.4839 22.961
9.4991 23.147
9.5143 22.861
9.5294 22.801
9.5446 23.311
9.5598 23.328
9.5750 23.332
9.5901 23.155
9.6053 23.154
9.6205 23.228
9.6357 23.165
9.6508 23.173
9.6660 23.293
9.6812 23.516
9.6964 23.507
9.7115 23.640
9.7267 23.774
9.7419 23.725
9.7571 23.757
9.7722 23.448
9.7874 23.624
9.8026 23.517
9.8178 23.051
9.8329 23.154
9.8481 23.203
9.8633 22.863
9.8785 22.873
9.8936 23.196
9.9088 23.280
9.9240 23.245
9.9392 23.313
9.9543 23.304
9.9695 23.182
9.9847 23.184
9.9999 23.135
10.0150 23.189
10.0302 23.141
10.0454 23.217
10.0606 23.156
10.0757 23.212
10.0909 23.371
10.1061 23.398
10.1213 23.459
10.1364 23.432
10.1516 23.427
10.1668 23.365
10.1820 23.087
10.1971 23.198
10.2123 23.532
10.2275 23.095
10.2427 23.043
10.2578 23.038
10.2730 22.749
10.2882 22.664
10.3034 23.000
10.3185 22.981
10.3337 22.765
10.3489 22.449
10.3641 22.784
10.3792 22.906
10.3944 22.831
10.4096 22.828
10.4248 22.882
10.4399 22.751
10.4551 22.691
10.4703 22.062
10.4855 22.423
10.5006 22.588
10.5158 22.351
10.5310 22.254
10.5462 22.194
10.5613 22.342
10.5765 22.290
10.5917 22.525
10.6069 22.578
10.6220 22.666
10.6372 22.327
10.6524 22.384
10.6676 22.468
10.6827 22.201
10.6979 22.307
10.7131 22.588
10.7283 22.715
10.7434 22.213
10.7586 22.108
10.7738 22.240
10.7890 22.002
10.8041 22.069
10.8193 21.997
10.8345 22.143
10.8497 22.115
10.8648 22.184
10.8800 22.191
10.8952 22.166
10.9104 22.198
10.9255 21.924
10.9407 22.095
10.9559 21.804
10.9711 21.695
10.9862 21.992
11.0014 21.963
11.0166 21.963
11.0318 21.789
11.0469 21.622
11.0621 21.468
11.0773 21.890
11.0925 21.597
11.1076 21.525
11.1228 21.375
11.1380 21.400
11.1532 21.632
11.1683 21.638
11.1835 21.757
11.1987 21.464
11.2139 21.432
11.2290 21.719
11.2442 21.567
11.2594 21.931
11.2746 21.666
11.2897 21.456
11.3049 21.403
11.3201 21.115
11.3353 21.400
11.3504 21.687
11.3656 21.260
11.3808 21.219
11.3960 21.131
11.4111 21.077
11.4263 21.325
11.4415 21.682
11.4567 21.221
11.4718 21.112
11.4870 20.860
11.5022 20.799
11.5174 20.659
11.5325 20.443
11.5477 20.706
11.5629 20.588
11.5781 20.403
11.5932 20.321
11.6084 20.654
11.6236 20.658
11.6388 20.268
11.6539 20.263
11.6691 20.400
11.6843 20.351
11.6995 20.496
11.7146 20.686
11.7298 20.360
11.7450 19.926
11.7602 20.047
11.7753 19.998
11.7905 19.828
11.8057 19.794
11.8209 19.970
11.8360 19.876
11.8512 19.752
11.8664 19.363
11.8816 19.333
11.8967 19.491
11.9119 19.555
11.9271 19.479
11.9423 19.132
11.9574 19.083
11.9726 19.261
11.9878 19.247
12.0030 19.246
12.0181 18.745
12.0333 18.940
12.0485 18.816
12.0637 18.707
12.0788 19.105
12.0940 18.917
12.1092 18.415
12.1244 18.409
12.1395 18.402
12.1547 18.629
12.1699 18.810
12.1851 18.389
12.2002 18.058
12.2154 18.379
12.2306 18.101
12.2458 17.865
12.2609 17.981
12.2761 18.089
12.2913 17.800
12.3065 17.604
12.3216 17.506
12.3368 17.567
12.3520 17.627
12.3672 17.295
12.3823 17.162
12.3975 16.900
12.4127 16.876
12.4279 16.865
12.4430 16.980
12.4582 16.945
12.4734 16.767
12.4886 16.732
12.5037 16.801
12.5189 16.491
12.5341 16.080
12.5493 16.341
12.5644 16.353
12.5796 16.184
12.5948 16.231
12.6100 16.242
12.6251 15.774
12.6403 15.837
12.6555 15.965
12.6707 15.806
12.6858 15.673
12.7010 15.739
12.7162 15.638
12.7314 15.539
12.7465 15.451
12.7617 15.198
12.7769 15.113
12.7921 15.006
12.8072 15.033
12.8224 15.175
12.8376 15.006
12.8528 14.941
12.8679 14.904
12.8831 14.700
12.8983 14.629
12.9135 14.483
12.9286 14.356
12.9438 14.431
12.9590 14.421
12.9742 14.518
12.9893 14.515
13.0045 14.203
13.0197 14.063
13.0349 14.268
13.0500 13.984
13.0652 13.750
13.0804 13.793
13.0956 13.842
13.1107 13.869
13.1259 13.896
13.1411 13.917
13.1563 13.539
13.1714 13.415
13.1866 13.482
13.2018 13.242
13.2170 13.286
13.2321 13.475
13.2473 13.383
13.2625 13.342
13.2777 13.255
13.2928 13.119
13.3080 12.946
13.3232 12.811
13.3384 12.854
13.3535 12.957
13.3687 12.981
13.3839 12.966
13.3991 13.000
13.4142 13.014
13.4294 12.946
13.4446 12.941
13.4598 12.733
13.4749 12.480
13.4901 12.462
13.5053 12.390
13.5205 12.478
13.5356 12.301
13.5508 12.231
13.5660 12.346
13.5812 12.285
13.5963 12.123
13.6115 12.117
13.6267 12.121
13.6419 11.933
13.6570 12.024
13.6722 11.904
13.6874 11.909
13.7026 12.221
13.7177 12.060
13.7329 12.050
13.7481 12.060
13.7633 12.033
13.7784 12.004
13.7936 11.987
13.8088 12.214
13.8239 12.488
13.8391 12.340
13.8543 12.290
13.8695 12.468
13.8846 12.584
13.8998 12.224
13.9150 12.100
13.9302 12.195
13.9453 12.282
13.9605 11.971
13.9757 11.799
13.9909 11.683
14.0060 11.619
14.0212 11.797
14.0364 11.854
14.0516 11.588
14.0667 11.453
14.0819 11.799
14.0971 11.694
14.1123 11.479
14.1274 11.762
14.1426 11.776
14.1578 11.641
14.1730 11.728
14.1881 11.777
14.2033 11.388
14.2185 11.581
14.2337 12.075
14.2488 11.819
14.2640 11.906
14.2792 11.745
14.2944 12.068
14.3095 12.036
14.3247 12.232
14.3399 12.063
14.3551 12.327
14.3702 12.712
14.3854 12.624
14.4006 13.018
14.4158 12.988
14.4309 13.036
14.4461 12.862
14.4613 12.652
14.4765 12.157
14.4916 12.372
14.5068 12.053
14.5220 12.059
14.5372 11.731
14.5523 11.554
14.5675 11.122
14.5827 11.050
14.5979 11.118
14.6130 10.625
14.6282 11.108
14.6434 11.315
14.6586 10.863
14.6737 10.542
14.6889 10.821
14.7041 10.821
14.7193 10.607
14.7344 10.809
14.7496 10.548
14.7648 10.568
14.7800 10.508
14.7951 11.028
14.8103 10.442
14.8255 10.527
14.8407 10.554
14.8558 10.684
14.8710 10.567
14.8862 10.394
14.9014 10.458
14.9165 10.828
14.9317 10.808
14.9469 10.753
14.9621 10.531
14.9772 9.968
14.9924 10.298
15.0076 10.039
15.0228 10.103
15.0379 10.508
15.0531 10.860
15.0683 10.521
15.0835 10.508
15.0986 10.170
15.1138 10.498
15.1290 10.070
15.1442 10.316
15.1593 10.461
15.1745 10.119
15.1897 9.919
15.2049 9.894
15.2200 10.014
15.2352 10.025
15.2504 9.907
15.2656 9.804
15.2807 10.052
15.2959 10.209
15.3111 10.290
15.3263 9.915
15.3414 10.148
15.3566 9.810
15.3718 9.981
15.3870 10.299
15.4021 9.957
15.4173 10.240
15.4325 10.309
15.4477 10.221
15.4628 10.106
15.4780 10.166
15.4932 10.029
15.5084 10.298
15.5235 9.858
15.5387 9.831
15.5539 10.098
15.5691 9.800
15.5842 9.804
15.5994 9.774
15.6146 9.668
15.6298 9.764
15.6449 10.073
15.6601 9.902
15.6753 9.883
15.6905 9.888
15.7056 9.636
15.7208 9.701
15.7360 9.716
15.7512 10.037
15.7663 9.713
15.7815 9.731
15.7967 9.645
15.8119 9.810
15.8270 9.533
15.8422 9.842
15.8574 9.527
15.8726 9.553
15.8877 9.367
15.9029 9.530
15.9181 9.700
15.9333 9.703
15.9484 9.734
15.9636 9.375
15.9788 9.480
15.9940 9.573
16.0091 9.679
16.0243 9.425
16.0395 9.344
16.0547 9.364
16.0698 9.430
16.0850 9.730
16.1002 9.509
16.1154 9.721
16.1305 9.544
16.1457 9.608
16.1609 9.453
16.1761 9.768
16.1912 9.640
16.2064 9.584
16.2216 9.728
16.2368 9.598
16.2519 9.570
16.2671 9.579
16.2823 9.675
16.2975 9.599
16.3126 9.869
16.3278 9.900
16.3430 9.681
16.3582 9.585
16.3733 9.644
16.3885 9.692
16.4037 9.879
16.4189 10.036
16.4340 9.966
16.4492 9.792
16.4644 9.744
16.4796 9.705
16.4947 9.407
16.5099 9.676
16.5251 9.640
16.5403 9.502
16.5554 9.547
16.5706 9.477
16.5858 9.980
16.6010 9.803
16.6161 9.721
16.6313 9.624
16.6465 9.656
16.6617 9.776
16.6768 9.669
16.6920 9.696
16.7072 9.763
16.7224 9.945
16.7375 9.896
16.7527 9.906
16.7679 9.751
16.7831 9.604
16.7982 9.837
16.8134 9.999
16.8286 10.209
16.8438 10.036
16.8589 9.741
16.8741 9.761
16.8893 9.809
16.9045 9.754
16.9196 9.944
16.9348 9.991
16.9500 9.688
16.9652 9.734
16.9803 9.896
16.9955 9.856
17.0107 9.866
17.0259 9.765
17.0410 10.099
17.0562 10.449
17.0714 10.223
17.0866 10.193
17.1017 10.735
17.1169 11.055
17.1321 11.091
17.1473 11.326
17.1624 11.739
17.1776 12.206
17.1928 13.018
17.2080 14.010
17.2231 15.053
17.2383 16.370
17.2535 17.584
17.2687 18.294
17.2838 18.381
17.2990 17.752
17.3142 16.764
17.3294 16.159
17.3445 16.253
17.3597 16.415
17.3749 16.182
17.3901 15.297
17.4052 14.376
17.4204 13.602
17.4356 12.719
17.4508 12.046
17.4659 11.741
17.4811 11.675
17.4963 11.478
17.5115 11.492
17.5266 11.306
17.5418 10.941
17.5570 10.804
17.5722 10.761
17.5873 10.836
17.6025 11.194
17.6177 11.381
17.6329 11.135
17.6480 11.186
17.6632 11.496
17.6784 11.442
17.6936 11.463
17.7087 11.511
17.7239 11.149
17.7391 11.102
17.7543 11.144
17.7694 11.061
17.7846 11.090
17.7998 11.207
17.8150 10.915
17.8301 10.650
17.8453 10.198
17.8605 10.226
17.8757 10.454
17.8908 10.259
17.9060 10.118
17.9212 10.100
17.9364 10.084
17.9515 10.094
17.9667 10.385
17.9819 10.417
17.9971 10.152
18.0122 10.105
18.0274 10.141
18.0426 10.085
18.0578 10.188
18.0729 10.149
18.0881 10.232
18.1033 10.197
18.1185 10.196
18.1336 10.059
18.1488 9.878
18.1640 9.993
18.1792 9.896
18.1943 9.861
18.2095 10.005
18.2247 10.216
18.2399 10.126
18.2550 9.803
18.2702 9.759
18.2854 9.895
18.3006 9.843
18.3157 9.736
18.3309 9.904
18.3461 9.718
18.3613 9.527
18.3764 9.777
18.3916 9.858
18.4068 9.722
18.4220 9.526
18.4371 9.760
18.4523 9.706
18.4675 9.719
18.4827 9.900
18.4978 9.800
18.5130 9.726
18.5282 9.811
18.5434 9.833
18.5585 9.782
18.5737 9.672
18.5889 9.729
18.6041 9.841
18.6192 9.808
18.6344 9.703
18.6496 9.637
18.6648 9.626
18.6799 9.793
18.6951 9.968
18.7103 9.970
18.7255 9.789
18.7406 9.947
18.7558 9.981
18.7710 9.780
18.7862 9.776
18.8013 9.775
18.8165 9.671
18.8317 9.826
18.8469 9.773
18.8620 9.670
18.8772 9.777
18.8924 9.925
18.9076 9.837
18.9227 9.872
18.9379 9.915
18.9531 9.875
18.9683 9.950
18.9834 10.063
18.9986 10.097
19.0138 10.265
19.0290 10.213
19.0441 10.167
19.0593 10.141
19.0745 10.097
19.0897 10.472
19.1048 10.238
19.1200 10.437
19.1352 10.484
19.1504 10.429
19.1655 10.749
19.1807 10.750
19.1959 10.514
19.2111 10.459
19.2262 10.498
19.2414 10.587
19.2566 10.627
19.2718 10.811
19.2869 11.027
19.3021 10.974
19.3173 11.026
19.3325 10.981
19.3476 10.988
19.3628 11.058
19.3780 10.904
19.3932 10.978
19.4083 11.200
19.4235 11.374
19.4387 11.217
19.4539 11.238
19.4690 11.446
19.4842 11.473
19.4994 11.494
19.5146 11.479
19.5297 11.225
19.5449 11.397
19.5601 11.759
19.5753 11.753
19.5904 11.477
19.6056 11.482
19.6208 11.696
19.6360 11.712
19.6511 11.642
19.6663 11.804
19.6815 11.974
19.6967 11.866
19.7118 11.853
19.7270 11.987
19.7422 11.783
19.7574 11.883
19.7725 12.161
19.7877 12.047
19.8029 12.015
19.8180 11.785
19.8332 11.939
19.8484 12.270
19.8636 12.403
19.8787 12.620
19.8939 12.783
19.9091 13.140
19.9243 13.516
19.9394 13.736
19.9546 13.862
19.9698 14.108
19.9850 14.254
20.0001 14.199
20.0153 14.025
20.0305 13.932
20.0457 13.722
20.0608 13.544
20.0760 13.719
20.0912 13.701
20.1064 13.925
20.1215 13.681
20.1367 13.385
20.1519 12.727
20.1671 12.720
20.1822 12.971
20.1974 12.575
20.2126 12.619
20.2278 12.860
20.2429 12.716
20.2581 12.439
20.2733 12.360
20.2885 12.130
20.3036 12.074
20.3188 12.075
20.3340 11.948
20.3492 12.138
20.3643 11.870
20.3795 12.114
20.3947 12.095
20.4099 11.835
20.4250 11.524
20.4402 11.617
20.4554 11.750
20.4706 11.705
20.4857 11.680
20.5009 11.579
20.5161 11.396
20.5313 11.282
20.5464 11.179
20.5616 11.135
20.5768 11.291
20.5920 11.245
20.6071 10.914
20.6223 10.802
20.6375 10.740
20.6527 10.655
20.6678 10.492
20.6830 10.765
20.6982 10.739
20.7134 10.751
20.7285 10.540
20.7437 10.326
20.7589 10.375
20.7741 10.533
20.7892 10.696
20.8044 10.416
20.8196 10.496
20.8348 10.289
20.8499 10.122
20.8651 10.173
20.8803 10.220
20.8955 10.113
20.9106 10.178
20.9258 10.283
20.9410 10.170
20.9562 10.088
20.9713 10.194
20.9865 9.836
21.0017 10.112
21.0169 9.879
21.0320 10.105
21.0472 9.995
21.0624 9.940
21.0776 10.046
21.0927 9.870
21.1079 9.871
21.1231 9.941
21.1383 9.496
21.1534 9.755
21.1686 9.613
21.1838 9.472
21.1990 9.449
21.2141 9.869
21.2293 9.891
21.2445 9.377
21.2597 9.675
21.2748 9.752
21.2900 9.495
21.3052 9.583
21.3204 9.638
21.3355 9.442
21.3507 9.684
21.3659 9.637
21.3811 9.691
21.3962 9.581
21.4114 9.359
21.4266 9.671
21.4418 9.311
21.4569 9.219
21.4721 9.656
21.4873 9.684
21.5025 9.351
21.5176 9.121
21.5328 9.281
21.5480 9.215
21.5632 9.348
21.5783 9.670
21.5935 9.481
21.6087 9.366
21.6239 9.082
21.6390 9.338
21.6542 9.130
21.6694 9.200
21.6846 9.131
21.6997 9.028
21.7149 9.081
21.7301 9.094
21.7453 9.095
21.7604 9.084
21.7756 9.017
21.7908 9.147
21.8060 8.956
21.8211 9.120
21.8363 9.203
21.8515 9.145
21.8667 9.287
21.8818 9.187
21.8970 8.991
21.9122 8.795
21.9274 8.708
21.9425 8.940
21.9577 8.954
21.9729 8.840
21.9881 8.761
22.0032 8.675
22.0184 8.776
22.0336 8.799
22.0488 8.796
22.0639 8.711
22.0791 8.628
22.0943 8.789
22.1095 8.728
22.1246 8.799
22.1398 8.747
22.1550 8.665
22.1702 8.693
22.1853 8.675
22.2005 8.478
22.2157 8.495
22.2309 8.394
22.2460 8.522
22.2612 8.552
22.2764 8.483
22.2916 8.421
22.3067 8.496
22.3219 8.356
22.3371 8.349
22.3523 8.599
22.3674 8.398
22.3826 8.272
22.3978 8.314
22.4130 8.615
22.4281 8.305
22.4433 8.407
22.4585 8.666
22.4737 8.216
22.4888 8.333
22.5040 8.645
22.5192 8.556
22.5344 8.281
22.5495 8.366
22.5647 8.565
22.5799 8.262
22.5951 8.696
22.6102 8.375
22.6254 8.450
22.6406 8.352
22.6558 8.304
22.6709 8.465
22.6861 8.309
22.7013 7.965
22.7165 8.000
22.7316 6.365
