'Id: "" Comment: "" Operator: "Lab Manager" Anode: "Mo" Scantype: "Still (Eiger2R_500K (1D mode))" TimePerStep: "300" X: "11.8" Y: "9.4" Z: "11.284" 
7.2532 19.400
7.2684 18.933
7.2836 19.038
7.2987 18.401
7.3139 18.417
7.3291 19.066
7.3443 19.055
7.3594 19.097
7.3746 19.584
7.3898 19.467
7.4050 19.192
7.4201 19.383
7.4353 19.668
7.4505 19.420
7.4657 19.569
7.4808 19.759
7.4960 19.736
7.5112 19.769
7.5264 19.492
7.5415 19.100
7.5567 19.737
7.5719 20.032
7.5871 20.140
7.6022 19.991
7.6174 20.279
7.6326 20.129
7.6478 20.139
7.6629 20.433
7.6781 20.352
7.6933 20.237
7.7085 20.175
7.7236 20.160
7.7388 20.201
7.7540 20.419
7.7692 20.775
7.7843 20.631
7.7995 20.232
7.8147 20.525
7.8299 20.826
7.8450 20.803
7.8602 20.817
7.8754 20.900
7.8905 20.853
7.9057 20.735
7.9209 20.612
7.9361 20.927
7.9512 21.196
7.9664 21.012
7.9816 21.195
7.9968 21.250
8.0119 21.362
8.0271 21.223
8.0423 21.155
8.0575 21.272
8.0726 21.028
8.0878 21.103
8.1030 21.288
8.1182 21.245
8.1333 21.288
8.1485 21.291
8.1637 21.390
8.1789 21.386
8.1940 21.586
8.2092 21.993
8.2244 21.539
8.2396 21.212
8.2547 21.401
8.2699 21.959
8.2851 22.384
8.3003 21.999
8.3154 21.673
8.3306 21.615
8.3458 22.072
8.3610 21.735
8.3761 21.909
8.3913 21.766
8.4065 21.893
8.4217 22.294
8.4368 21.564
8.4520 22.073
8.4672 21.722
8.4824 21.584
8.4975 21.964
8.5127 22.428
8.5279 22.235
8.5431 22.306
8.5582 21.833
8.5734 22.634
8.5886 22.589
8.6038 21.674
8.6189 22.159
8.6341 22.322
8.6493 22.015
8.6645 22.149
8.6796 22.017
8.6948 22.380
8.7100 22.286
8.7252 22.572
8.7403 22.179
8.7555 22.551
8.7707 22.552
8.7859 22.600
8.8010 22.627
8.8162 22.460
8.8314 22.691
8.8466 22.024
8.8617 22.285
8.8769 22.476
8.8921 22.586
8.9073 22.756
8.9224 22.803
8.9376 22.875
8.9528 22.505
8.9680 22.635
8.9831 22.954
8.9983 22.666
9.0135 22.889
9.0287 23.038
9.0438 22.478
9.0590 22.561
9.0742 23.093
9.0894 23.016
9.1045 22.930
9.1197 23.057
9.1349 22.972
9.1501 23.015
9.1652 23.086
9.1804 22.732
9.1956 22.496
9.2108 22.650
9.2259 23.016
9.2411 22.894
9.2563 22.957
9.2715 22.857
9.2866 22.756
9.3018 22.924
9.3170 22.979
9.3322 23.108
9.3473 23.002
9.3625 22.984
9.3777 23.366
9.3929 22.953
9.4080 22.724
9.4232 22.919
9.4384 23.067
9.4536 23.382
9.4687 23.290
9.4839 22.828
9.4991 23.187
9.5143 23.421
9.5294 23.244
9.5446 22.999
9.5598 22.944
9.5750 23.104
9.5901 23.258
9.6053 23.239
9.6205 23.288
9.6357 23.535
9.6508 23.831
9.6660 23.891
9.6812 23.752
9.6964 23.942
9.7115 23.912
9.7267 23.979
9.7419 23.890
9.7571 23.943
9.7722 24.205
9.7874 23.918
9.8026 23.688
9.8178 23.782
9.8329 23.771
9.8481 23.488
9.8633 23.603
9.8785 23.482
9.8936 23.185
9.9088 23.131
9.9240 23.355
9.9392 23.197
9.9543 22.961
9.9695 23.318
9.9847 23.496
9.9999 23.547
10.0150 23.191
10.0302 23.033
10.0454 23.428
10.0606 23.354
10.0757 23.314
10.0909 23.663
10.1061 23.919
10.1213 23.902
10.1364 23.709
10.1516 23.830
10.1668 23.406
10.1820 22.975
10.1971 23.331
10.2123 23.175
10.2275 22.896
10.2427 23.049
10.2578 23.266
10.2730 22.809
10.2882 22.504
10.3034 22.570
10.3185 23.029
10.3337 23.059
10.3489 22.735
10.3641 22.740
10.3792 22.906
10.3944 22.311
10.4096 22.466
10.4248 23.036
10.4399 22.623
10.4551 22.379
10.4703 22.619
10.4855 22.457
10.5006 22.240
10.5158 22.609
10.5310 22.793
10.5462 22.472
10.5613 22.362
10.5765 22.699
10.5917 22.706
10.6069 22.656
10.6220 22.593
10.6372 22.632
10.6524 22.567
10.6676 22.329
10.6827 22.601
10.6979 22.514
10.7131 22.451
10.7283 22.184
10.7434 22.177
10.7586 22.615
10.7738 22.860
10.7890 22.337
10.8041 22.120
10.8193 22.325
10.8345 22.105
10.8497 22.250
10.8648 22.199
10.8800 22.396
10.8952 22.555
10.9104 22.185
10.9255 21.900
10.9407 22.233
10.9559 21.797
10.9711 21.797
10.9862 21.979
11.0014 21.967
11.0166 22.282
11.0318 22.596
11.0469 22.211
11.0621 22.168
11.0773 22.018
11.0925 21.512
11.1076 21.931
11.1228 22.061
11.1380 21.773
11.1532 21.677
11.1683 21.987
11.1835 21.472
11.1987 21.610
11.2139 21.466
11.2290 21.450
11.2442 21.742
11.2594 21.844
11.2746 21.359
11.2897 21.309
11.3049 21.490
11.3201 21.595
11.3353 21.452
11.3504 21.471
11.3656 21.560
11.3808 21.798
11.3960 21.222
11.4111 21.140
11.4263 21.336
11.4415 21.095
11.4567 20.838
11.4718 20.926
11.4870 20.812
11.5022 21.167
11.5174 21.306
11.5325 21.089
11.5477 20.848
11.5629 20.621
11.5781 21.090
11.5932 20.899
11.6084 20.914
11.6236 20.676
11.6388 20.839
11.6539 20.457
11.6691 20.421
11.6843 20.380
11.6995 20.661
11.7146 20.467
11.7298 20.724
11.7450 20.289
11.7602 19.939
11.7753 20.120
11.7905 20.367
11.8057 20.445
11.8209 20.305
11.8360 19.988
11.8512 19.484
11.8664 19.617
11.8816 19.685
11.8967 19.318
11.9119 19.453
11.9271 19.769
11.9423 19.515
11.9574 19.404
11.9726 19.685
11.9878 19.410
12.0030 19.210
12.0181 19.448
12.0333 19.295
12.0485 18.834
12.0637 19.040
12.0788 19.195
12.0940 18.988
12.1092 18.885
12.1244 18.538
12.1395 18.671
12.1547 18.770
12.1699 18.479
12.1851 18.387
12.2002 18.444
12.2154 18.529
12.2306 18.215
12.2458 18.052
12.2609 17.788
12.2761 17.729
12.2913 17.834
12.3065 17.724
12.3216 17.866
12.3368 17.564
12.3520 17.541
12.3672 17.459
12.3823 17.552
12.3975 17.561
12.4127 17.231
12.4279 17.077
12.4430 16.909
12.4582 16.664
12.4734 16.590
12.4886 16.742
12.5037 16.542
12.5189 16.511
12.5341 16.607
12.5493 16.413
12.5644 16.530
12.5796 16.251
12.5948 16.046
12.6100 16.164
12.6251 16.075
12.6403 15.925
12.6555 16.073
12.6707 16.119
12.6858 15.893
12.7010 15.838
12.7162 15.920
12.7314 15.705
12.7465 15.524
12.7617 15.282
12.7769 15.280
12.7921 15.415
12.8072 15.300
12.8224 15.388
12.8376 15.170
12.8528 14.813
12.8679 14.624
12.8831 14.447
12.8983 14.632
12.9135 14.788
12.9286 14.831
12.9438 14.701
12.9590 14.256
12.9742 14.118
12.9893 14.272
13.0045 14.262
13.0197 14.297
13.0349 14.454
13.0500 14.402
13.0652 14.252
13.0804 14.206
13.0956 13.942
13.1107 13.737
13.1259 13.634
13.1411 13.741
13.1563 13.767
13.1714 13.512
13.1866 13.527
13.2018 13.550
13.2170 13.458
13.2321 13.304
13.2473 13.277
13.2625 13.432
13.2777 13.532
13.2928 13.661
13.3080 13.482
13.3232 13.161
13.3384 13.156
13.3535 13.155
13.3687 13.184
13.3839 13.050
13.3991 12.940
13.4142 12.878
13.4294 12.939
13.4446 12.923
13.4598 12.688
13.4749 12.641
13.4901 12.699
13.5053 12.590
13.5205 12.529
13.5356 12.527
13.5508 12.410
13.5660 12.289
13.5812 12.251
13.5963 12.298
13.6115 12.388
13.6267 12.474
13.6419 12.394
13.6570 12.315
13.6722 12.192
13.6874 12.037
13.7026 12.080
13.7177 12.099
13.7329 11.971
13.7481 12.025
13.7633 11.873
13.7784 11.984
13.7936 12.091
13.8088 12.521
13.8239 12.442
13.8391 12.346
13.8543 12.647
13.8695 12.427
13.8846 12.094
13.8998 12.181
13.9150 12.190
13.9302 12.096
13.9453 12.197
13.9605 11.884
13.9757 11.846
13.9909 11.952
14.0060 11.783
14.0212 11.614
14.0364 11.541
14.0516 11.290
14.0667 11.268
14.0819 11.359
14.0971 11.369
14.1123 11.419
14.1274 11.623
14.1426 11.526
14.1578 11.464
14.1730 11.556
14.1881 11.374
14.2033 11.465
14.2185 11.720
14.2337 11.672
14.2488 11.636
14.2640 11.728
14.2792 11.695
14.2944 11.923
14.3095 12.256
14.3247 12.523
14.3399 12.930
14.3551 12.976
14.3702 13.216
14.3854 13.576
14.4006 13.720
14.4158 13.655
14.4309 13.066
14.4461 13.068
14.4613 12.649
14.4765 12.563
14.4916 12.595
14.5068 12.034
14.5220 12.005
14.5372 11.552
14.5523 11.251
14.5675 11.243
14.5827 11.008
14.5979 10.877
14.6130 10.763
14.6282 10.807
14.6434 11.034
14.6586 11.011
14.6737 11.227
14.6889 10.990
14.7041 10.989
14.7193 10.580
14.7344 10.695
14.7496 10.598
14.7648 10.963
14.7800 10.771
14.7951 10.681
14.8103 10.577
14.8255 10.484
14.8407 10.582
14.8558 10.497
14.8710 10.748
14.8862 10.570
14.9014 10.541
14.9165 11.110
14.9317 10.881
14.9469 10.485
14.9621 10.496
14.9772 10.374
14.9924 10.444
15.0076 10.467
15.0228 10.492
15.0379 10.173
15.0531 10.261
15.0683 10.311
15.0835 10.253
15.0986 10.496
15.1138 10.415
15.1290 10.247
15.1442 10.174
15.1593 10.116
15.1745 10.482
15.1897 10.166
15.2049 9.876
15.2200 10.146
15.2352 10.154
15.2504 9.970
15.2656 10.319
15.2807 10.439
15.2959 9.977
15.3111 10.413
15.3263 10.011
15.3414 9.909
15.3566 10.451
15.3718 10.143
15.3870 10.232
15.4021 10.499
15.4173 10.306
15.4325 10.538
15.4477 10.194
15.4628 10.111
15.4780 10.216
15.4932 10.337
15.5084 10.111
15.5235 10.080
15.5387 10.096
15.5539 10.111
15.5691 10.158
15.5842 10.056
15.5994 10.151
15.6146 10.106
15.6298 9.883
15.6449 10.126
15.6601 9.866
15.6753 9.987
15.6905 10.031
15.7056 9.585
15.7208 9.695
15.7360 9.883
15.7512 9.722
15.7663 9.724
15.7815 9.923
15.7967 10.133
15.8119 9.869
15.8270 9.568
15.8422 9.562
15.8574 9.653
15.8726 9.550
15.8877 9.735
15.9029 9.509
15.9181 9.636
15.9333 9.884
15.9484 10.037
15.9636 9.560
15.9788 9.496
15.9940 9.577
16.0091 9.874
16.0243 10.121
16.0395 9.788
16.0547 9.636
16.0698 9.732
16.0850 9.875
16.1002 9.499
16.1154 9.671
16.1305 9.545
16.1457 9.573
16.1609 10.084
16.1761 9.709
16.1912 9.605
16.2064 9.913
16.2216 9.787
16.2368 9.470
16.2519 9.729
16.2671 9.865
16.2823 9.882
16.2975 9.772
16.3126 9.754
16.3278 9.878
16.3430 9.861
16.3582 10.149
16.3733 9.976
16.3885 10.040
16.4037 9.891
16.4189 9.696
16.4340 9.801
16.4492 9.731
16.4644 9.928
16.4796 10.057
16.4947 9.748
16.5099 9.564
16.5251 9.824
16.5403 9.759
16.5554 9.860
16.5706 9.827
16.5858 9.813
16.6010 9.516
16.6161 9.495
16.6313 9.677
16.6465 9.827
16.6617 9.736
16.6768 9.847
16.6920 9.833
16.7072 9.927
16.7224 9.979
16.7375 10.078
16.7527 9.990
16.7679 9.961
16.7831 9.826
16.7982 9.817
16.8134 10.022
16.8286 10.061
16.8438 10.239
16.8589 9.988
16.8741 9.664
16.8893 9.507
16.9045 9.529
16.9196 10.007
16.9348 9.931
16.9500 9.701
16.9652 9.847
16.9803 9.862
16.9955 9.992
17.0107 9.975
17.0259 10.021
17.0410 10.014
17.0562 10.291
17.0714 10.542
17.0866 10.293
17.1017 10.449
17.1169 10.837
17.1321 11.066
17.1473 11.203
17.1624 11.553
17.1776 12.264
17.1928 12.936
17.2080 13.848
17.2231 15.028
17.2383 16.076
17.2535 17.422
17.2687 18.493
17.2838 18.648
17.2990 17.824
17.3142 16.777
17.3294 16.340
17.3445 15.929
17.3597 15.762
17.3749 15.689
17.3901 15.149
17.4052 14.090
17.4204 12.969
17.4356 12.441
17.4508 12.029
17.4659 11.540
17.4811 11.287
17.4963 11.251
17.5115 11.231
17.5266 11.163
17.5418 10.828
17.5570 10.892
17.5722 11.114
17.5873 11.098
17.6025 11.477
17.6177 11.604
17.6329 11.372
17.6480 11.434
17.6632 11.701
17.6784 11.740
17.6936 11.956
17.7087 11.944
17.7239 11.709
17.7391 11.454
17.7543 11.327
17.7694 11.308
17.7846 11.250
17.7998 11.029
17.8150 10.816
17.8301 10.581
17.8453 10.450
17.8605 10.419
17.8757 10.293
17.8908 10.359
17.9060 10.262
17.9212 10.383
17.9364 10.345
17.9515 10.177
17.9667 10.269
17.9819 10.220
17.9971 10.126
18.0122 10.129
18.0274 10.113
18.0426 9.972
18.0578 10.188
18.0729 10.368
18.0881 10.028
18.1033 9.807
18.1185 9.886
18.1336 9.895
18.1488 9.719
18.1640 9.754
18.1792 10.109
18.1943 10.036
18.2095 9.941
18.2247 10.149
18.2399 9.952
18.2550 9.917
18.2702 10.040
18.2854 9.927
18.3006 10.020
18.3157 9.962
18.3309 10.057
18.3461 9.971
18.3613 9.839
18.3764 9.914
18.3916 9.918
18.4068 9.793
18.4220 9.894
18.4371 9.839
18.4523 9.692
18.4675 9.746
18.4827 9.903
18.4978 9.834
18.5130 9.748
18.5282 9.685
18.5434 9.632
18.5585 9.689
18.5737 9.857
18.5889 9.916
18.6041 9.950
18.6192 9.945
18.6344 9.868
18.6496 9.947
18.6648 9.974
18.6799 9.558
18.6951 9.660
18.7103 9.834
18.7255 9.894
18.7406 9.788
18.7558 9.730
18.7710 9.892
18.7862 9.860
18.8013 9.713
18.8165 9.618
18.8317 9.764
18.8469 10.094
18.8620 10.186
18.8772 10.300
18.8924 10.179
18.9076 10.043
18.9227 10.038
18.9379 10.020
18.9531 10.012
18.9683 9.954
18.9834 9.908
18.9986 10.093
19.0138 10.153
19.0290 10.359
19.0441 10.296
19.0593 10.002
19.0745 10.113
19.0897 10.553
19.1048 10.489
19.1200 10.258
19.1352 10.275
19.1504 10.486
19.1655 10.471
19.1807 10.373
19.1959 10.539
19.2111 10.649
19.2262 10.653
19.2414 10.605
19.2566 10.809
19.2718 10.862
19.2869 10.910
19.3021 11.185
19.3173 11.302
19.3325 11.162
19.3476 11.361
19.3628 11.291
19.3780 11.201
19.3932 11.289
19.4083 11.241
19.4235 10.988
19.4387 11.181
19.4539 11.264
19.4690 11.155
19.4842 11.263
19.4994 11.400
19.5146 11.426
19.5297 11.415
19.5449 11.517
19.5601 11.349
19.5753 11.509
19.5904 11.683
19.6056 11.501
19.6208 11.470
19.6360 11.685
19.6511 11.515
19.6663 11.673
19.6815 11.950
19.6967 11.773
19.7118 11.808
19.7270 11.847
19.7422 11.849
19.7574 11.898
19.7725 11.765
19.7877 11.736
19.8029 12.009
19.8180 11.985
19.8332 11.832
19.8484 12.151
19.8636 12.386
19.8787 12.493
19.8939 12.670
19.9091 12.817
19.9243 13.421
19.9394 13.897
19.9546 14.077
19.9698 14.227
19.9850 14.281
20.0001 14.094
20.0153 14.030
20.0305 13.815
20.0457 13.656
20.0608 13.828
20.0760 13.924
20.0912 13.693
20.1064 13.437
20.1215 13.353
20.1367 13.103
20.1519 12.490
20.1671 12.540
20.1822 12.601
20.1974 12.237
20.2126 12.425
20.2278 12.689
20.2429 12.602
20.2581 12.411
20.2733 12.113
20.2885 11.929
20.3036 12.108
20.3188 12.126
20.3340 11.831
20.3492 12.092
20.3643 12.138
20.3795 12.236
20.3947 12.060
20.4099 11.862
20.4250 11.799
20.4402 11.951
20.4554 11.951
20.4706 11.754
20.4857 11.882
20.5009 11.808
20.5161 11.772
20.5313 11.722
20.5464 11.632
20.5616 11.344
20.5768 11.445
20.5920 11.157
20.6071 10.984
20.6223 10.748
20.6375 10.671
20.6527 10.881
20.6678 10.916
20.6830 10.828
20.6982 10.570
20.7134 10.769
20.7285 10.689
20.7437 10.321
20.7589 10.393
20.7741 10.533
20.7892 10.268
20.8044 10.223
20.8196 10.240
20.8348 10.253
20.8499 9.967
20.8651 10.359
20.8803 10.309
20.8955 10.283
20.9106 10.131
20.9258 9.926
20.9410 10.307
20.9562 10.077
20.9713 10.245
20.9865 9.945
21.0017 9.959
21.0169 9.970
21.0320 9.836
21.0472 9.969
21.0624 10.256
21.0776 9.877
21.0927 10.167
21.1079 9.775
21.1231 9.717
21.1383 9.759
21.1534 9.815
21.1686 9.742
21.1838 9.803
21.1990 9.740
21.2141 9.677
21.2293 9.904
21.2445 9.797
21.2597 9.798
21.2748 10.040
21.2900 9.434
21.3052 9.760
21.3204 9.608
21.3355 9.188
21.3507 9.440
21.3659 9.573
21.3811 9.500
21.3962 9.524
21.4114 9.439
21.4266 9.708
21.4418 9.864
21.4569 9.446
21.4721 9.427
21.4873 9.339
21.5025 9.341
21.5176 9.596
21.5328 9.502
21.5480 9.320
21.5632 9.348
21.5783 9.184
21.5935 9.031
21.6087 9.278
21.6239 9.072
21.6390 9.161
21.6542 9.125
21.6694 8.926
21.6846 9.272
21.6997 9.104
21.7149 9.041
21.7301 9.163
21.7453 9.260
21.7604 9.160
21.7756 8.908
21.7908 9.009
21.8060 9.147
21.8211 9.158
21.8363 8.945
21.8515 9.130
21.8667 9.050
21.8818 8.951
21.8970 9.014
21.9122 9.188
21.9274 9.065
21.9425 9.011
21.9577 9.077
21.9729 9.053
21.9881 8.817
22.0032 8.815
22.0184 8.965
22.0336 8.952
22.0488 8.959
22.0639 8.968
22.0791 8.866
22.0943 8.694
22.1095 8.514
22.1246 8.570
22.1398 8.675
22.1550 8.725
22.1702 8.417
22.1853 8.462
22.2005 8.510
22.2157 8.743
22.2309 8.754
22.2460 8.667
22.2612 8.621
22.2764 8.616
22.2916 8.486
22.3067 8.491
22.3219 8.535
22.3371 8.458
22.3523 8.681
22.3674 8.463
22.3826 8.381
22.3978 8.205
22.4130 8.376
22.4281 8.440
22.4433 8.675
22.4585 8.631
22.4737 8.318
22.4888 8.509
22.5040 8.324
22.5192 8.423
22.5344 8.318
22.5495 8.362
22.5647 8.627
22.5799 8.664
22.5951 8.522
22.6102 8.490
22.6254 8.270
22.6406 8.342
22.6558 8.221
22.6709 8.160
22.6861 8.195
22.7013 8.346
22.7165 7.812
22.7316 6.372
