'Id: "" Comment: "" Operator: "Lab Manager" Anode: "Mo" Scantype: "Still (Eiger2R_500K (1D mode))" TimePerStep: "300" X: "11.8" Y: "9.4" Z: "11.284" 
7.2532 18.389
7.2684 18.804
7.2836 18.419
7.2987 18.589
7.3139 18.764
7.3291 18.921
7.3443 18.850
7.3594 19.485
7.3746 19.321
7.3898 19.167
7.4050 19.052
7.4201 19.644
7.4353 19.844
7.4505 19.142
7.4657 19.182
7.4808 19.342
7.4960 19.126
7.5112 19.443
7.5264 19.487
7.5415 19.701
7.5567 20.090
7.5719 19.800
7.5871 19.693
7.6022 19.876
7.6174 19.920
7.6326 19.920
7.6478 20.257
7.6629 20.337
7.6781 19.897
7.6933 19.945
7.7085 20.070
7.7236 20.162
7.7388 20.339
7.7540 20.119
7.7692 20.295
7.7843 20.349
7.7995 20.216
7.8147 20.395
7.8299 20.412
7.8450 20.539
7.8602 20.611
7.8754 20.724
7.8905 20.891
7.9057 20.856
7.9209 20.611
7.9361 20.554
7.9512 20.702
7.9664 20.750
7.9816 20.631
7.9968 20.712
8.0119 20.897
8.0271 21.035
8.0423 21.058
8.0575 20.917
8.0726 21.214
8.0878 21.102
8.1030 20.913
8.1182 20.904
8.1333 20.916
8.1485 21.139
8.1637 21.555
8.1789 21.705
8.1940 21.120
8.2092 21.415
8.2244 21.376
8.2396 21.592
8.2547 21.574
8.2699 21.390
8.2851 21.742
8.3003 21.143
8.3154 21.527
8.3306 21.774
8.3458 21.822
8.3610 21.449
8.3761 21.669
8.3913 21.725
8.4065 21.476
8.4217 21.575
8.4368 22.000
8.4520 21.720
8.4672 21.888
8.4824 22.023
8.4975 21.520
8.5127 21.872
8.5279 21.956
8.5431 22.034
8.5582 21.815
8.5734 22.052
8.5886 22.207
8.6038 22.030
8.6189 22.132
8.6341 22.005
8.6493 22.067
8.6645 22.174
8.6796 22.331
8.6948 21.904
8.7100 22.495
8.7252 22.435
8.7403 22.190
8.7555 22.364
8.7707 22.655
8.7859 22.326
8.8010 22.403
8.8162 22.059
8.8314 22.119
8.8466 22.441
8.8617 22.021
8.8769 21.758
8.8921 22.598
8.9073 22.710
8.9224 22.453
8.9376 22.613
8.9528 22.325
8.9680 22.386
8.9831 22.329
8.9983 22.593
9.0135 22.552
9.0287 22.162
9.0438 22.406
9.0590 22.343
9.0742 22.823
9.0894 22.628
9.1045 22.320
9.1197 22.830
9.1349 22.994
9.1501 22.460
9.1652 22.908
9.1804 23.038
9.1956 22.474
9.2108 22.337
9.2259 22.554
9.2411 22.942
9.2563 22.790
9.2715 22.894
9.2866 22.618
9.3018 22.638
9.3170 22.745
9.3322 22.683
9.3473 22.557
9.3625 22.869
9.3777 23.148
9.3929 23.258
9.4080 22.968
9.4232 22.961
9.4384 22.897
9.4536 22.967
9.4687 22.901
9.4839 22.877
9.4991 23.143
9.5143 23.200
9.5294 23.284
9.5446 23.161
9.5598 23.080
9.5750 22.887
9.5901 22.907
9.6053 22.947
9.6205 23.083
9.6357 23.264
9.6508 23.311
9.6660 23.546
9.6812 23.549
9.6964 23.593
9.7115 23.860
9.7267 23.585
9.7419 23.651
9.7571 23.972
9.7722 23.961
9.7874 23.891
9.8026 23.865
9.8178 23.702
9.8329 23.248
9.8481 22.994
9.8633 23.156
9.8785 23.399
9.8936 23.208
9.9088 23.130
9.9240 23.184
9.9392 23.118
9.9543 23.281
9.9695 23.312
9.9847 23.168
9.9999 23.057
10.0150 22.935
10.0302 23.016
10.0454 23.352
10.0606 23.295
10.0757 23.370
10.0909 23.433
10.1061 23.460
10.1213 23.740
10.1364 23.614
10.1516 23.560
10.1668 23.466
10.1820 23.167
10.1971 23.092
10.2123 22.856
10.2275 23.037
10.2427 23.152
10.2578 22.889
10.2730 22.560
10.2882 22.813
10.3034 22.931
10.3185 22.645
10.3337 22.831
10.3489 22.761
10.3641 22.528
10.3792 23.146
10.3944 23.039
10.4096 23.049
10.4248 23.081
10.4399 22.696
10.4551 22.284
10.4703 22.284
10.4855 22.767
10.5006 22.679
10.5158 22.557
10.5310 22.639
10.5462 22.694
10.5613 22.389
10.5765 22.344
10.5917 22.473
10.6069 22.625
10.6220 22.392
10.6372 22.261
10.6524 22.377
10.6676 22.118
10.6827 22.530
10.6979 22.680
10.7131 22.304
10.7283 22.545
10.7434 22.451
10.7586 22.498
10.7738 22.363
10.7890 22.105
10.8041 22.443
10.8193 22.333
10.8345 22.261
10.8497 22.275
10.8648 22.111
10.8800 22.368
10.8952 22.262
10.9104 22.065
10.9255 22.014
10.9407 21.815
10.9559 21.727
10.9711 21.781
10.9862 21.769
11.0014 21.836
11.0166 21.683
11.0318 22.246
11.0469 21.744
11.0621 21.523
11.0773 21.705
11.0925 21.997
11.1076 22.061
11.1228 21.845
11.1380 21.804
11.1532 21.800
11.1683 21.641
11.1835 21.451
11.1987 21.467
11.2139 21.678
11.2290 21.717
11.2442 21.271
11.2594 21.392
11.2746 21.403
11.2897 21.334
11.3049 21.596
11.3201 21.492
11.3353 21.927
11.3504 21.679
11.3656 21.275
11.3808 21.478
11.3960 21.629
11.4111 21.296
11.4263 21.501
11.4415 21.195
11.4567 21.071
11.4718 21.189
11.4870 21.304
11.5022 21.538
11.5174 21.211
11.5325 20.985
11.5477 20.721
11.5629 20.784
11.5781 20.897
11.5932 21.045
11.6084 20.700
11.6236 20.342
11.6388 20.575
11.6539 20.663
11.6691 20.692
11.6843 20.660
11.6995 20.403
11.7146 20.360
11.7298 20.321
11.7450 20.136
11.7602 20.280
11.7753 20.214
11.7905 20.024
11.8057 20.342
11.8209 20.406
11.8360 20.118
11.8512 19.793
11.8664 19.797
11.8816 20.084
11.8967 19.664
11.9119 19.500
11.9271 19.319
11.9423 19.203
11.9574 19.238
11.9726 19.239
11.9878 19.317
12.0030 19.152
12.0181 18.982
12.0333 19.170
12.0485 19.089
12.0637 19.230
12.0788 19.123
12.0940 19.226
12.1092 19.025
12.1244 18.939
12.1395 18.732
12.1547 18.246
12.1699 18.402
12.1851 18.308
12.2002 18.211
12.2154 18.325
12.2306 17.850
12.2458 17.935
12.2609 17.943
12.2761 17.954
12.2913 17.867
12.3065 17.503
12.3216 17.489
12.3368 17.731
12.3520 17.269
12.3672 17.146
12.3823 17.155
12.3975 17.371
12.4127 16.998
12.4279 16.826
12.4430 17.038
12.4582 17.041
12.4734 16.746
12.4886 16.586
12.5037 16.536
12.5189 16.565
12.5341 16.597
12.5493 16.378
12.5644 16.004
12.5796 16.088
12.5948 16.250
12.6100 16.145
12.6251 16.098
12.6403 15.903
12.6555 15.783
12.6707 15.703
12.6858 15.714
12.7010 15.678
12.7162 15.469
12.7314 15.471
12.7465 15.589
12.7617 15.404
12.7769 15.611
12.7921 15.368
12.8072 15.133
12.8224 15.308
12.8376 14.970
12.8528 14.723
12.8679 14.713
12.8831 14.640
12.8983 14.619
12.9135 14.664
12.9286 14.576
12.9438 14.460
12.9590 14.415
12.9742 14.216
12.9893 14.098
13.0045 14.195
13.0197 14.144
13.0349 14.047
13.0500 13.998
13.0652 13.984
13.0804 13.891
13.0956 13.649
13.1107 13.697
13.1259 13.841
13.1411 13.682
13.1563 13.644
13.1714 13.708
13.1866 13.546
13.2018 13.594
13.2170 13.547
13.2321 13.303
13.2473 13.143
13.2625 13.114
13.2777 13.249
13.2928 13.128
13.3080 13.228
13.3232 13.329
13.3384 13.027
13.3535 12.941
13.3687 12.990
13.3839 12.769
13.3991 12.696
13.4142 12.780
13.4294 12.684
13.4446 12.703
13.4598 12.695
13.4749 12.678
13.4901 12.521
13.5053 12.358
13.5205 12.484
13.5356 12.415
13.5508 12.122
13.5660 12.295
13.5812 12.216
13.5963 12.113
13.6115 12.087
13.6267 11.866
13.6419 12.000
13.6570 12.175
13.6722 12.123
13.6874 12.156
13.7026 11.966
13.7177 11.927
13.7329 12.067
13.7481 11.961
13.7633 12.072
13.7784 12.180
13.7936 12.311
13.8088 12.219
13.8239 12.182
13.8391 12.370
13.8543 12.307
13.8695 12.275
13.8846 12.202
13.8998 12.191
13.9150 12.089
13.9302 12.059
13.9453 11.733
13.9605 11.689
13.9757 11.678
13.9909 11.696
14.0060 11.773
14.0212 11.840
14.0364 11.729
14.0516 11.673
14.0667 11.633
14.0819 11.421
14.0971 11.657
14.1123 11.777
14.1274 11.573
14.1426 11.490
14.1578 11.676
14.1730 11.554
14.1881 11.483
14.2033 11.742
14.2185 11.730
14.2337 11.837
14.2488 11.923
14.2640 11.923
14.2792 12.061
14.2944 11.893
14.3095 11.841
14.3247 11.927
14.3399 12.397
14.3551 12.367
14.3702 12.443
14.3854 12.550
14.4006 12.773
14.4158 13.011
14.4309 12.642
14.4461 12.562
14.4613 12.481
14.4765 12.395
14.4916 12.175
14.5068 11.835
14.5220 11.615
14.5372 11.607
14.5523 11.314
14.5675 11.343
14.5827 11.325
14.5979 11.026
14.6130 10.826
14.6282 11.008
14.6434 10.905
14.6586 10.829
14.6737 10.825
14.6889 10.658
14.7041 10.771
14.7193 10.929
14.7344 10.850
14.7496 10.640
14.7648 10.354
14.7800 10.543
14.7951 10.236
14.8103 10.439
14.8255 10.151
14.8407 9.949
14.8558 10.461
14.8710 10.361
14.8862 10.162
14.9014 10.160
14.9165 10.653
14.9317 10.380
14.9469 9.999
14.9621 10.413
14.9772 10.080
14.9924 10.578
15.0076 10.070
15.0228 10.378
15.0379 10.201
15.0531 10.203
15.0683 10.127
15.0835 10.162
15.0986 9.921
15.1138 10.271
15.1290 10.115
15.1442 10.417
15.1593 10.484
15.1745 10.099
15.1897 10.506
15.2049 10.199
15.2200 10.150
15.2352 10.327
15.2504 9.915
15.2656 10.269
15.2807 9.948
15.2959 9.951
15.3111 9.899
15.3263 10.077
15.3414 10.088
15.3566 10.248
15.3718 10.327
15.3870 9.907
15.4021 10.205
15.4173 10.323
15.4325 10.316
15.4477 10.175
15.4628 10.186
15.4780 10.097
15.4932 9.907
15.5084 9.832
15.5235 9.961
15.5387 9.942
15.5539 9.958
15.5691 10.196
15.5842 10.012
15.5994 9.846
15.6146 9.897
15.6298 9.743
15.6449 9.839
15.6601 9.775
15.6753 9.477
15.6905 9.739
15.7056 9.679
15.7208 9.775
15.7360 9.780
15.7512 9.556
15.7663 9.368
15.7815 9.649
15.7967 9.779
15.8119 9.867
15.8270 9.839
15.8422 9.573
15.8574 9.720
15.8726 9.762
15.8877 9.535
15.9029 9.493
15.9181 9.351
15.9333 9.610
15.9484 9.609
15.9636 9.398
15.9788 9.526
15.9940 9.696
16.0091 9.845
16.0243 9.810
16.0395 9.402
16.0547 9.249
16.0698 9.445
16.0850 9.377
16.1002 9.727
16.1154 9.685
16.1305 9.677
16.1457 9.532
16.1609 9.494
16.1761 9.588
16.1912 9.726
16.2064 9.913
16.2216 9.907
16.2368 9.730
16.2519 9.750
16.2671 9.658
16.2823 9.909
16.2975 9.752
16.3126 9.610
16.3278 9.508
16.3430 9.510
16.3582 9.873
16.3733 9.913
16.3885 9.736
16.4037 9.661
16.4189 9.736
16.4340 9.579
16.4492 9.551
16.4644 9.577
16.4796 9.586
16.4947 9.695
16.5099 9.716
16.5251 9.713
16.5403 9.576
16.5554 9.598
16.5706 9.455
16.5858 9.452
16.6010 9.415
16.6161 9.458
16.6313 9.412
16.6465 9.627
16.6617 9.681
16.6768 9.647
16.6920 9.646
16.7072 9.837
16.7224 9.838
16.7375 9.788
16.7527 9.623
16.7679 9.623
16.7831 9.654
16.7982 9.815
16.8134 9.793
16.8286 9.632
16.8438 9.870
16.8589 9.784
16.8741 9.636
16.8893 9.581
16.9045 9.524
16.9196 9.534
16.9348 9.557
16.9500 9.765
16.9652 9.758
16.9803 9.613
16.9955 9.668
17.0107 9.786
17.0259 9.830
17.0410 9.832
17.0562 10.102
17.0714 10.294
17.0866 10.149
17.1017 10.439
17.1169 10.796
17.1321 10.814
17.1473 11.295
17.1624 11.803
17.1776 12.120
17.1928 12.879
17.2080 13.837
17.2231 14.784
17.2383 16.016
17.2535 17.238
17.2687 18.125
17.2838 18.351
17.2990 17.818
17.3142 17.208
17.3294 16.569
17.3445 16.356
17.3597 16.264
17.3749 15.919
17.3901 15.394
17.4052 14.265
17.4204 13.247
17.4356 12.516
17.4508 11.998
17.4659 11.766
17.4811 11.569
17.4963 11.268
17.5115 11.147
17.5266 11.112
17.5418 10.947
17.5570 10.865
17.5722 10.920
17.5873 11.123
17.6025 11.155
17.6177 11.140
17.6329 11.181
17.6480 11.373
17.6632 11.533
17.6784 11.424
17.6936 11.157
17.7087 11.032
17.7239 11.170
17.7391 11.181
17.7543 11.128
17.7694 11.086
17.7846 11.016
17.7998 10.918
17.8150 10.718
17.8301 10.483
17.8453 10.177
17.8605 10.218
17.8757 10.408
17.8908 10.465
17.9060 10.356
17.9212 10.432
17.9364 10.273
17.9515 9.918
17.9667 10.090
17.9819 10.290
17.9971 10.269
18.0122 10.107
18.0274 9.890
18.0426 10.153
18.0578 10.294
18.0729 9.991
18.0881 9.911
18.1033 10.034
18.1185 10.054
18.1336 9.987
18.1488 9.961
18.1640 9.875
18.1792 9.717
18.1943 9.724
18.2095 9.780
18.2247 9.787
18.2399 9.891
18.2550 9.975
18.2702 9.894
18.2854 9.922
18.3006 9.890
18.3157 9.926
18.3309 9.768
18.3461 9.848
18.3613 9.979
18.3764 9.940
18.3916 9.911
18.4068 9.580
18.4220 9.599
18.4371 9.507
18.4523 9.533
18.4675 10.021
18.4827 9.923
18.4978 9.608
18.5130 9.839
18.5282 10.041
18.5434 9.785
18.5585 9.765
18.5737 9.781
18.5889 9.776
18.6041 9.480
18.6192 9.481
18.6344 9.528
18.6496 9.552
18.6648 9.751
18.6799 9.892
18.6951 9.920
18.7103 9.789
18.7255 9.658
18.7406 9.671
18.7558 9.801
18.7710 9.886
18.7862 9.752
18.8013 9.832
18.8165 9.796
18.8317 9.837
18.8469 9.996
18.8620 9.951
18.8772 9.874
18.8924 9.999
18.9076 10.143
18.9227 10.048
18.9379 9.839
18.9531 10.043
18.9683 10.003
18.9834 9.965
18.9986 10.177
19.0138 10.182
19.0290 10.241
19.0441 10.244
19.0593 10.305
19.0745 10.403
19.0897 10.291
19.1048 10.250
19.1200 10.236
19.1352 10.244
19.1504 10.513
19.1655 10.641
19.1807 10.619
19.1959 10.646
19.2111 10.862
19.2262 10.855
19.2414 10.857
19.2566 10.859
19.2718 10.787
19.2869 10.956
19.3021 11.021
19.3173 11.012
19.3325 11.281
19.3476 11.502
19.3628 11.425
19.3780 11.116
19.3932 10.999
19.4083 11.173
19.4235 11.337
19.4387 11.351
19.4539 11.159
19.4690 11.269
19.4842 11.279
19.4994 11.510
19.5146 11.590
19.5297 11.313
19.5449 11.397
19.5601 11.677
19.5753 11.859
19.5904 12.011
19.6056 11.871
19.6208 11.592
19.6360 11.571
19.6511 11.674
19.6663 11.643
19.6815 11.720
19.6967 11.555
19.7118 11.391
19.7270 11.634
19.7422 11.737
19.7574 11.628
19.7725 11.659
19.7877 11.919
19.8029 12.037
19.8180 11.955
19.8332 11.951
19.8484 12.289
19.8636 12.654
19.8787 12.842
19.8939 13.078
19.9091 13.167
19.9243 13.268
19.9394 13.905
19.9546 14.368
19.9698 14.579
19.9850 14.597
20.0001 14.532
20.0153 14.478
20.0305 14.236
20.0457 13.898
20.0608 13.695
20.0760 13.987
20.0912 13.944
20.1064 13.828
20.1215 13.562
20.1367 13.159
20.1519 13.060
20.1671 13.090
20.1822 13.186
20.1974 13.111
20.2126 12.822
20.2278 12.615
20.2429 12.641
20.2581 12.692
20.2733 12.303
20.2885 12.060
20.3036 12.144
20.3188 11.987
20.3340 12.031
20.3492 12.166
20.3643 12.149
20.3795 12.049
20.3947 11.859
20.4099 11.887
20.4250 11.894
20.4402 11.656
20.4554 11.750
20.4706 11.870
20.4857 11.843
20.5009 11.727
20.5161 11.625
20.5313 11.657
20.5464 11.743
20.5616 11.799
20.5768 11.387
20.5920 11.352
20.6071 10.919
20.6223 10.937
20.6375 10.887
20.6527 10.828
20.6678 10.852
20.6830 10.811
20.6982 10.755
20.7134 10.585
20.7285 10.616
20.7437 10.663
20.7589 10.631
20.7741 10.565
20.7892 10.389
20.8044 10.255
20.8196 10.449
20.8348 10.525
20.8499 10.369
20.8651 10.662
20.8803 10.173
20.8955 10.162
20.9106 10.127
20.9258 10.170
20.9410 10.311
20.9562 10.240
20.9713 10.265
20.9865 10.353
21.0017 10.033
21.0169 10.413
21.0320 10.166
21.0472 10.094
21.0624 10.094
21.0776 10.105
21.0927 9.817
21.1079 10.286
21.1231 9.824
21.1383 10.298
21.1534 9.942
21.1686 9.637
21.1838 9.875
21.1990 9.882
21.2141 9.640
21.2293 9.834
21.2445 9.944
21.2597 9.410
21.2748 9.635
21.2900 9.713
21.3052 9.798
21.3204 9.608
21.3355 9.500
21.3507 9.676
21.3659 9.746
21.3811 9.793
21.3962 9.732
21.4114 9.466
21.4266 9.497
21.4418 9.682
21.4569 9.620
21.4721 9.473
21.4873 9.568
21.5025 9.791
21.5176 9.757
21.5328 9.351
21.5480 9.231
21.5632 9.188
21.5783 9.227
21.5935 9.104
21.6087 9.278
21.6239 9.052
21.6390 9.147
21.6542 8.987
21.6694 9.123
21.6846 9.140
21.6997 9.080
21.7149 9.152
21.7301 8.990
21.7453 9.003
21.7604 9.194
21.7756 8.977
21.7908 9.008
21.8060 9.186
21.8211 9.311
21.8363 9.200
21.8515 9.148
21.8667 9.043
21.8818 9.089
21.8970 9.112
21.9122 9.065
21.9274 9.122
21.9425 8.894
21.9577 8.653
21.9729 8.720
21.9881 8.954
22.0032 8.874
22.0184 8.773
22.0336 8.911
22.0488 8.821
22.0639 8.659
22.0791 8.774
22.0943 8.734
22.1095 8.685
22.1246 8.714
22.1398 8.644
22.1550 8.637
22.1702 8.610
22.1853 8.548
22.2005 8.636
22.2157 8.610
22.2309 8.677
22.2460 8.604
22.2612 8.684
22.2764 8.565
22.2916 8.561
22.3067 8.436
22.3219 8.356
22.3371 8.612
22.3523 8.450
22.3674 8.563
22.3826 8.468
22.3978 8.387
22.4130 8.600
22.4281 8.535
22.4433 8.229
22.4585 8.514
22.4737 8.417
22.4888 8.557
22.5040 8.227
22.5192 8.553
22.5344 8.580
22.5495 8.521
22.5647 8.310
22.5799 8.375
22.5951 8.473
22.6102 8.249
22.6254 8.478
22.6406 8.198
22.6558 8.312
22.6709 8.143
22.6861 8.240
22.7013 8.086
22.7165 7.985
22.7316 6.640
