'Id: "" Comment: "" Operator: "Lab Manager" Anode: "Mo" Scantype: "Still (Eiger2R_500K (1D mode))" TimePerStep: "300" X: "11.8" Y: "9.4" Z: "11.284" 
7.2532 18.631
7.2684 18.733
7.2836 19.079
7.2987 18.868
7.3139 19.000
7.3291 18.838
7.3443 19.183
7.3594 19.155
7.3746 18.755
7.3898 19.569
7.4050 19.515
7.4201 19.334
7.4353 19.253
7.4505 19.452
7.4657 19.605
7.4808 19.723
7.4960 19.553
7.5112 19.879
7.5264 19.991
7.5415 19.877
7.5567 19.632
7.5719 19.883
7.5871 19.987
7.6022 19.531
7.6174 19.917
7.6326 20.335
7.6478 20.340
7.6629 20.257
7.6781 20.278
7.6933 20.270
7.7085 20.279
7.7236 20.481
7.7388 20.775
7.7540 20.517
7.7692 20.169
7.7843 20.501
7.7995 20.927
7.8147 21.011
7.8299 20.850
7.8450 20.764
7.8602 20.874
7.8754 21.175
7.8905 21.272
7.9057 21.277
7.9209 21.373
7.9361 21.257
7.9512 21.137
7.9664 20.967
7.9816 20.877
7.9968 20.937
8.0119 21.038
8.0271 21.278
8.0423 21.105
8.0575 21.225
8.0726 21.443
8.0878 21.529
8.1030 21.656
8.1182 21.401
8.1333 21.411
8.1485 21.437
8.1637 21.371
8.1789 21.463
8.1940 21.856
8.2092 21.694
8.2244 21.548
8.2396 21.633
8.2547 21.866
8.2699 21.950
8.2851 21.700
8.3003 22.060
8.3154 21.495
8.3306 21.969
8.3458 21.868
8.3610 21.865
8.3761 21.706
8.3913 22.047
8.4065 22.064
8.4217 21.735
8.4368 21.861
8.4520 22.019
8.4672 22.288
8.4824 21.988
8.4975 22.371
8.5127 22.144
8.5279 22.297
8.5431 22.074
8.5582 22.169
8.5734 22.272
8.5886 22.729
8.6038 22.122
8.6189 21.871
8.6341 22.370
8.6493 22.574
8.6645 22.824
8.6796 22.603
8.6948 22.796
8.7100 22.037
8.7252 22.537
8.7403 22.492
8.7555 22.560
8.7707 22.276
8.7859 22.612
8.8010 22.382
8.8162 22.828
8.8314 22.441
8.8466 22.335
8.8617 22.787
8.8769 22.814
8.8921 22.989
8.9073 22.088
8.9224 22.288
8.9376 22.122
8.9528 22.050
8.9680 22.249
8.9831 22.668
8.9983 22.555
9.0135 22.875
9.0287 22.939
9.0438 22.602
9.0590 22.626
9.0742 23.073
9.0894 22.984
9.1045 23.099
9.1197 22.872
9.1349 22.891
9.1501 23.142
9.1652 22.960
9.1804 22.753
9.1956 22.761
9.2108 22.751
9.2259 22.578
9.2411 23.138
9.2563 23.167
9.2715 23.416
9.2866 23.307
9.3018 23.271
9.3170 23.152
9.3322 23.191
9.3473 23.374
9.3625 23.221
9.3777 23.091
9.3929 23.572
9.4080 23.349
9.4232 23.429
9.4384 23.425
9.4536 23.531
9.4687 23.362
9.4839 23.118
9.4991 23.235
9.5143 23.068
9.5294 23.161
9.5446 23.294
9.5598 23.267
9.5750 23.336
9.5901 23.396
9.6053 23.444
9.6205 23.576
9.6357 23.464
9.6508 23.667
9.6660 23.653
9.6812 23.914
9.6964 23.948
9.7115 23.568
9.7267 23.611
9.7419 23.846
9.7571 24.111
9.7722 24.049
9.7874 24.059
9.8026 23.961
9.8178 23.676
9.8329 23.712
9.8481 23.589
9.8633 23.564
9.8785 23.700
9.8936 23.431
9.9088 23.487
9.9240 23.564
9.9392 23.697
9.9543 23.863
9.9695 23.850
9.9847 23.809
9.9999 23.749
10.0150 23.689
10.0302 23.550
10.0454 23.620
10.0606 23.579
10.0757 23.902
10.0909 23.991
10.1061 23.704
10.1213 23.720
10.1364 23.823
10.1516 24.175
10.1668 24.246
10.1820 24.049
10.1971 24.404
10.2123 24.368
10.2275 24.294
10.2427 24.384
10.2578 24.227
10.2730 24.150
10.2882 24.002
10.3034 23.959
10.3185 23.448
10.3337 23.305
10.3489 23.054
10.3641 22.996
10.3792 23.032
10.3944 22.988
10.4096 22.871
10.4248 22.742
10.4399 22.711
10.4551 22.791
10.4703 22.714
10.4855 22.618
10.5006 22.627
10.5158 22.446
10.5310 22.738
10.5462 22.667
10.5613 22.525
10.5765 22.305
10.5917 22.360
10.6069 22.458
10.6220 22.840
10.6372 23.060
10.6524 23.000
10.6676 22.916
10.6827 22.538
10.6979 22.449
10.7131 22.627
10.7283 22.959
10.7434 22.460
10.7586 22.077
10.7738 22.438
10.7890 22.381
10.8041 22.391
10.8193 22.536
10.8345 22.510
10.8497 22.665
10.8648 22.400
10.8800 22.399
10.8952 22.351
10.9104 22.389
10.9255 22.325
10.9407 22.051
10.9559 22.036
10.9711 22.181
10.9862 22.260
11.0014 22.221
11.0166 22.498
11.0318 22.325
11.0469 22.048
11.0621 21.941
11.0773 22.025
11.0925 22.103
11.1076 21.894
11.1228 21.860
11.1380 21.825
11.1532 21.865
11.1683 21.721
11.1835 21.824
11.1987 22.090
11.2139 21.943
11.2290 21.916
11.2442 22.180
11.2594 22.327
11.2746 22.131
11.2897 22.102
11.3049 22.115
11.3201 21.914
11.3353 22.010
11.3504 21.559
11.3656 21.687
11.3808 21.698
11.3960 21.520
11.4111 21.266
11.4263 21.120
11.4415 21.379
11.4567 21.445
11.4718 21.120
11.4870 21.473
11.5022 21.135
11.5174 20.909
11.5325 21.081
11.5477 21.025
11.5629 20.989
11.5781 21.015
11.5932 20.616
11.6084 20.384
11.6236 21.058
11.6388 20.846
11.6539 20.634
11.6691 20.361
11.6843 20.322
11.6995 20.551
11.7146 20.309
11.7298 20.317
11.7450 20.335
11.7602 20.101
11.7753 20.479
11.7905 20.496
11.8057 20.445
11.8209 20.352
11.8360 20.011
11.8512 20.216
11.8664 20.235
11.8816 19.799
11.8967 19.743
11.9119 19.906
11.9271 19.854
11.9423 19.516
11.9574 19.266
11.9726 19.436
11.9878 19.196
12.0030 19.196
12.0181 18.947
12.0333 19.425
12.0485 19.132
12.0637 18.928
12.0788 19.033
12.0940 18.861
12.1092 18.713
12.1244 18.645
12.1395 18.696
12.1547 18.410
12.1699 18.357
12.1851 18.478
12.2002 18.540
12.2154 18.462
12.2306 18.063
12.2458 18.001
12.2609 17.769
12.2761 17.568
12.2913 17.467
12.3065 17.575
12.3216 17.461
12.3368 17.331
12.3520 17.408
12.3672 17.550
12.3823 17.516
12.3975 17.504
12.4127 17.420
12.4279 17.520
12.4430 17.263
12.4582 17.180
12.4734 17.329
12.4886 17.137
12.5037 16.863
12.5189 16.669
12.5341 16.506
12.5493 16.705
12.5644 16.614
12.5796 16.468
12.5948 16.256
12.6100 15.921
12.6251 15.926
12.6403 16.135
12.6555 16.051
12.6707 15.807
12.6858 15.769
12.7010 15.919
12.7162 15.759
12.7314 15.494
12.7465 15.500
12.7617 15.529
12.7769 15.326
12.7921 15.161
12.8072 15.051
12.8224 14.954
12.8376 15.015
12.8528 15.063
12.8679 15.090
12.8831 14.942
12.8983 14.738
12.9135 14.588
12.9286 14.761
12.9438 14.549
12.9590 14.364
12.9742 14.540
12.9893 14.512
13.0045 14.369
13.0197 14.370
13.0349 14.076
13.0500 13.893
13.0652 13.911
13.0804 14.038
13.0956 14.143
13.1107 13.893
13.1259 13.999
13.1411 14.000
13.1563 13.740
13.1714 13.708
13.1866 13.708
13.2018 13.764
13.2170 13.799
13.2321 13.429
13.2473 13.220
13.2625 13.366
13.2777 13.458
13.2928 13.299
13.3080 12.927
13.3232 12.961
13.3384 13.173
13.3535 13.187
13.3687 13.063
13.3839 12.908
13.3991 12.834
13.4142 12.975
13.4294 12.923
13.4446 12.657
13.4598 12.544
13.4749 12.720
13.4901 12.578
13.5053 12.277
13.5205 12.466
13.5356 12.614
13.5508 12.529
13.5660 12.711
13.5812 12.360
13.5963 12.078
13.6115 12.249
13.6267 12.219
13.6419 12.082
13.6570 11.922
13.6722 11.861
13.6874 11.913
13.7026 11.743
13.7177 11.907
13.7329 12.048
13.7481 11.892
13.7633 12.087
13.7784 12.051
13.7936 11.775
13.8088 12.007
13.8239 12.349
13.8391 12.214
13.8543 12.134
13.8695 12.339
13.8846 12.201
13.8998 12.213
13.9150 12.037
13.9302 12.054
13.9453 11.950
13.9605 11.956
13.9757 11.621
13.9909 11.510
14.0060 11.669
14.0212 11.709
14.0364 11.611
14.0516 11.466
14.0667 11.320
14.0819 11.621
14.0971 11.738
14.1123 11.565
14.1274 11.566
14.1426 11.587
14.1578 11.660
14.1730 11.723
14.1881 11.691
14.2033 12.024
14.2185 12.028
14.2337 12.081
14.2488 11.658
14.2640 11.709
14.2792 11.955
14.2944 11.912
14.3095 12.234
14.3247 12.269
14.3399 12.562
14.3551 12.797
14.3702 13.057
14.3854 13.236
14.4006 13.420
14.4158 13.072
14.4309 12.750
14.4461 12.819
14.4613 13.250
14.4765 12.995
14.4916 12.509
14.5068 12.304
14.5220 12.441
14.5372 12.498
14.5523 11.990
14.5675 12.050
14.5827 11.905
14.5979 11.549
14.6130 11.390
14.6282 11.587
14.6434 11.793
14.6586 11.626
14.6737 11.233
14.6889 11.297
14.7041 10.884
14.7193 11.072
14.7344 10.943
14.7496 10.573
14.7648 10.582
14.7800 10.697
14.7951 10.659
14.8103 10.667
14.8255 10.629
14.8407 10.623
14.8558 10.711
14.8710 10.580
14.8862 10.601
14.9014 11.051
14.9165 10.836
14.9317 10.712
14.9469 10.658
14.9621 10.830
14.9772 10.300
14.9924 10.527
15.0076 10.401
15.0228 10.385
15.0379 10.668
15.0531 10.428
15.0683 10.441
15.0835 10.431
15.0986 10.513
15.1138 10.667
15.1290 10.808
15.1442 10.466
15.1593 10.702
15.1745 10.446
15.1897 10.397
15.2049 10.504
15.2200 10.482
15.2352 10.604
15.2504 10.423
15.2656 10.396
15.2807 10.671
15.2959 10.458
15.3111 10.363
15.3263 10.122
15.3414 10.172
15.3566 10.151
15.3718 10.317
15.3870 10.545
15.4021 10.463
15.4173 10.526
15.4325 10.592
15.4477 10.436
15.4628 10.326
15.4780 10.423
15.4932 10.424
15.5084 10.409
15.5235 10.602
15.5387 10.003
15.5539 10.471
15.5691 10.420
15.5842 10.458
15.5994 10.472
15.6146 10.057
15.6298 9.853
15.6449 9.896
15.6601 9.885
15.6753 9.881
15.6905 10.067
15.7056 10.123
15.7208 10.126
15.7360 9.902
15.7512 10.075
15.7663 9.827
15.7815 9.986
15.7967 9.876
15.8119 9.962
15.8270 9.861
15.8422 9.699
15.8574 9.892
15.8726 9.887
15.8877 9.632
15.9029 9.426
15.9181 9.847
15.9333 9.805
15.9484 9.757
15.9636 9.701
15.9788 9.527
15.9940 9.817
16.0091 9.828
16.0243 9.803
16.0395 9.799
16.0547 9.682
16.0698 9.692
16.0850 9.500
16.1002 9.726
16.1154 9.534
16.1305 9.726
16.1457 9.806
16.1609 9.585
16.1761 9.665
16.1912 9.745
16.2064 9.818
16.2216 9.653
16.2368 9.818
16.2519 10.008
16.2671 10.077
16.2823 10.144
16.2975 10.248
16.3126 10.423
16.3278 10.141
16.3430 10.171
16.3582 10.088
16.3733 9.895
16.3885 9.981
16.4037 9.863
16.4189 9.715
16.4340 9.861
16.4492 9.832
16.4644 9.870
16.4796 9.816
16.4947 9.818
16.5099 9.609
16.5251 9.545
16.5403 9.536
16.5554 9.638
16.5706 9.865
16.5858 9.748
16.6010 9.750
16.6161 9.643
16.6313 9.844
16.6465 9.738
16.6617 9.756
16.6768 9.780
16.6920 9.929
16.7072 9.945
16.7224 9.931
16.7375 10.040
16.7527 10.200
16.7679 10.297
16.7831 10.325
16.7982 10.136
16.8134 10.096
16.8286 9.844
16.8438 9.830
16.8589 9.911
16.8741 9.905
16.8893 9.757
16.9045 9.677
16.9196 9.775
16.9348 9.938
16.9500 9.976
16.9652 9.929
16.9803 9.780
16.9955 9.788
17.0107 9.951
17.0259 10.160
17.0410 10.084
17.0562 10.004
17.0714 10.320
17.0866 10.392
17.1017 10.704
17.1169 10.965
17.1321 10.930
17.1473 11.083
17.1624 11.492
17.1776 12.157
17.1928 12.910
17.2080 13.887
17.2231 15.027
17.2383 16.223
17.2535 17.353
17.2687 18.250
17.2838 18.542
17.2990 17.899
17.3142 17.012
17.3294 16.254
17.3445 16.109
17.3597 16.144
17.3749 15.788
17.3901 15.324
17.4052 14.378
17.4204 13.379
17.4356 12.485
17.4508 12.039
17.4659 11.979
17.4811 11.766
17.4963 11.577
17.5115 11.420
17.5266 11.277
17.5418 11.362
17.5570 11.590
17.5722 11.459
17.5873 11.420
17.6025 11.433
17.6177 11.382
17.6329 11.330
17.6480 11.174
17.6632 11.131
17.6784 11.256
17.6936 11.258
17.7087 11.042
17.7239 11.061
17.7391 10.949
17.7543 10.704
17.7694 10.811
17.7846 10.873
17.7998 11.037
17.8150 11.133
17.8301 10.987
17.8453 10.904
17.8605 10.908
17.8757 10.965
17.8908 10.902
17.9060 10.903
17.9212 10.920
17.9364 10.809
17.9515 10.554
17.9667 10.349
17.9819 10.288
17.9971 10.613
18.0122 10.627
18.0274 10.261
18.0426 10.338
18.0578 10.333
18.0729 10.248
18.0881 10.254
18.1033 10.074
18.1185 9.852
18.1336 10.057
18.1488 10.173
18.1640 9.973
18.1792 9.941
18.1943 9.933
18.2095 10.026
18.2247 10.055
18.2399 9.831
18.2550 9.880
18.2702 9.843
18.2854 9.874
18.3006 9.811
18.3157 9.920
18.3309 9.819
18.3461 9.756
18.3613 9.838
18.3764 9.888
18.3916 9.854
18.4068 9.792
18.4220 9.862
18.4371 9.683
18.4523 9.790
18.4675 9.960
18.4827 9.915
18.4978 9.894
18.5130 9.876
18.5282 9.867
18.5434 9.768
18.5585 9.936
18.5737 9.976
18.5889 10.076
18.6041 9.869
18.6192 9.641
18.6344 9.569
18.6496 9.728
18.6648 9.990
18.6799 9.970
18.6951 9.808
18.7103 9.718
18.7255 9.620
18.7406 9.896
18.7558 9.793
18.7710 9.593
18.7862 9.689
18.8013 9.504
18.8165 9.405
18.8317 9.855
18.8469 10.059
18.8620 9.922
18.8772 10.073
18.8924 9.954
18.9076 9.783
18.9227 9.801
18.9379 9.894
18.9531 10.030
18.9683 10.118
18.9834 10.046
18.9986 10.104
19.0138 10.121
19.0290 10.009
19.0441 10.180
19.0593 10.213
19.0745 10.197
19.0897 10.201
19.1048 10.148
19.1200 10.163
19.1352 10.320
19.1504 10.425
19.1655 10.583
19.1807 10.685
19.1959 10.564
19.2111 10.631
19.2262 10.590
19.2414 10.693
19.2566 10.779
19.2718 10.984
19.2869 11.102
19.3021 11.077
19.3173 10.973
19.3325 10.936
19.3476 11.041
19.3628 10.867
19.3780 10.910
19.3932 11.041
19.4083 10.985
19.4235 10.929
19.4387 11.236
19.4539 11.153
19.4690 11.162
19.4842 11.157
19.4994 11.167
19.5146 11.255
19.5297 11.458
19.5449 11.586
19.5601 11.495
19.5753 11.548
19.5904 11.713
19.6056 11.736
19.6208 11.498
19.6360 11.702
19.6511 11.646
19.6663 11.470
19.6815 11.652
19.6967 11.614
19.7118 11.486
19.7270 11.585
19.7422 11.687
19.7574 11.731
19.7725 11.782
19.7877 11.939
19.8029 11.878
19.8180 11.980
19.8332 12.239
19.8484 12.336
19.8636 12.572
19.8787 12.678
19.8939 12.739
19.9091 12.972
19.9243 13.453
19.9394 13.712
19.9546 14.006
19.9698 14.449
19.9850 14.367
20.0001 14.287
20.0153 14.178
20.0305 14.033
20.0457 13.871
20.0608 13.578
20.0760 13.596
20.0912 13.392
20.1064 13.237
20.1215 13.311
20.1367 13.252
20.1519 13.059
20.1671 12.942
20.1822 12.959
20.1974 13.012
20.2126 12.978
20.2278 12.894
20.2429 12.795
20.2581 12.588
20.2733 12.198
20.2885 11.852
20.3036 12.005
20.3188 12.133
20.3340 12.009
20.3492 11.989
20.3643 11.629
20.3795 11.326
20.3947 11.041
20.4099 10.972
20.4250 10.928
20.4402 11.114
20.4554 11.101
20.4706 11.052
20.4857 10.945
20.5009 10.930
20.5161 10.959
20.5313 10.777
20.5464 10.891
20.5616 11.090
20.5768 10.963
20.5920 10.946
20.6071 10.883
20.6223 10.669
20.6375 10.856
20.6527 10.685
20.6678 10.953
20.6830 11.039
20.6982 11.035
20.7134 10.743
20.7285 11.068
20.7437 10.816
20.7589 10.570
20.7741 10.557
20.7892 10.612
20.8044 10.212
20.8196 10.332
20.8348 10.381
20.8499 10.410
20.8651 10.391
20.8803 10.346
20.8955 10.210
20.9106 10.323
20.9258 10.190
20.9410 10.175
20.9562 10.200
20.9713 10.038
20.9865 10.421
21.0017 10.193
21.0169 10.064
21.0320 10.031
21.0472 10.004
21.0624 10.265
21.0776 9.954
21.0927 9.908
21.1079 9.921
21.1231 9.686
21.1383 9.877
21.1534 9.737
21.1686 9.485
21.1838 9.727
21.1990 9.807
21.2141 9.663
21.2293 9.581
21.2445 9.520
21.2597 9.941
21.2748 9.526
21.2900 9.336
21.3052 9.947
21.3204 9.461
21.3355 9.540
21.3507 10.047
21.3659 9.777
21.3811 9.400
21.3962 9.695
21.4114 9.277
21.4266 9.397
21.4418 9.614
21.4569 9.647
21.4721 9.358
21.4873 9.514
21.5025 9.766
21.5176 9.453
21.5328 9.088
21.5480 9.390
21.5632 9.246
21.5783 9.219
21.5935 9.396
21.6087 9.126
21.6239 8.866
21.6390 8.879
21.6542 9.239
21.6694 9.310
21.6846 9.203
21.6997 9.390
21.7149 9.246
21.7301 9.167
21.7453 8.834
21.7604 8.965
21.7756 9.052
21.7908 9.041
21.8060 8.936
21.8211 9.179
21.8363 9.055
21.8515 8.930
21.8667 8.873
21.8818 9.026
21.8970 9.256
21.9122 9.055
21.9274 8.902
21.9425 9.082
21.9577 9.107
21.9729 8.933
21.9881 8.931
22.0032 8.891
22.0184 8.996
22.0336 8.747
22.0488 8.569
22.0639 8.683
22.0791 8.642
22.0943 8.623
22.1095 8.644
22.1246 8.671
22.1398 8.797
22.1550 8.667
22.1702 8.656
22.1853 8.656
22.2005 8.539
22.2157 8.715
22.2309 8.573
22.2460 8.481
22.2612 8.446
22.2764 8.517
22.2916 8.595
22.3067 8.620
22.3219 8.581
22.3371 8.310
22.3523 8.513
22.3674 8.685
22.3826 8.433
22.3978 8.835
22.4130 8.592
22.4281 8.474
22.4433 8.629
22.4585 8.353
22.4737 8.470
22.4888 8.372
22.5040 8.407
22.5192 8.447
22.5344 8.431
22.5495 8.619
22.5647 8.621
22.5799 8.284
22.5951 8.319
22.6102 8.553
22.6254 8.451
22.6406 8.446
22.6558 8.196
22.6709 8.524
22.6861 8.264
22.7013 8.429
22.7165 8.049
22.7316 6.525
