'Id: "" Comment: "" Operator: "Lab Manager" Anode: "Mo" Scantype: "Still (Eiger2R_500K (1D mode))" TimePerStep: "300" X: "11.8" Y: "9.4" Z: "11.284" 
7.2532 18.983
7.2684 18.597
7.2836 18.606
7.2987 18.810
7.3139 19.151
7.3291 19.014
7.3443 18.974
7.3594 19.520
7.3746 19.379
7.3898 19.263
7.4050 18.805
7.4201 19.111
7.4353 19.413
7.4505 19.197
7.4657 19.117
7.4808 19.251
7.4960 19.397
7.5112 19.373
7.5264 19.633
7.5415 19.566
7.5567 19.231
7.5719 19.466
7.5871 19.634
7.6022 19.672
7.6174 19.599
7.6326 19.764
7.6478 19.983
7.6629 20.044
7.6781 19.942
7.6933 20.103
7.7085 20.136
7.7236 20.280
7.7388 20.130
7.7540 19.959
7.7692 20.263
7.7843 20.462
7.7995 20.432
7.8147 20.389
7.8299 20.111
7.8450 20.415
7.8602 20.535
7.8754 20.676
7.8905 20.946
7.9057 20.993
7.9209 21.036
7.9361 20.987
7.9512 20.734
7.9664 20.731
7.9816 20.810
7.9968 20.714
8.0119 20.771
8.0271 20.827
8.0423 20.778
8.0575 20.833
8.0726 21.084
8.0878 21.134
8.1030 20.977
8.1182 21.083
8.1333 21.276
8.1485 21.193
8.1637 20.889
8.1789 21.300
8.1940 21.305
8.2092 20.892
8.2244 21.105
8.2396 21.353
8.2547 20.991
8.2699 21.032
8.2851 21.473
8.3003 21.794
8.3154 21.523
8.3306 21.637
8.3458 21.994
8.3610 21.014
8.3761 21.328
8.3913 21.928
8.4065 21.644
8.4217 21.784
8.4368 21.894
8.4520 21.627
8.4672 21.960
8.4824 22.240
8.4975 21.705
8.5127 22.038
8.5279 22.185
8.5431 21.949
8.5582 21.672
8.5734 21.747
8.5886 21.718
8.6038 21.787
8.6189 22.328
8.6341 21.936
8.6493 21.993
8.6645 21.889
8.6796 21.785
8.6948 22.123
8.7100 22.357
8.7252 22.055
8.7403 22.247
8.7555 22.585
8.7707 22.167
8.7859 22.087
8.8010 22.343
8.8162 22.408
8.8314 22.242
8.8466 22.414
8.8617 22.708
8.8769 22.272
8.8921 22.287
8.9073 22.346
8.9224 22.411
8.9376 22.327
8.9528 22.691
8.9680 22.291
8.9831 22.488
8.9983 22.656
9.0135 22.496
9.0287 22.186
9.0438 22.539
9.0590 22.699
9.0742 22.277
9.0894 22.796
9.1045 22.797
9.1197 22.570
9.1349 22.553
9.1501 22.750
9.1652 22.635
9.1804 22.393
9.1956 22.572
9.2108 22.938
9.2259 22.667
9.2411 22.783
9.2563 22.901
9.2715 22.423
9.2866 22.605
9.3018 22.875
9.3170 23.026
9.3322 22.921
9.3473 22.958
9.3625 22.781
9.3777 22.766
9.3929 22.960
9.4080 22.982
9.4232 22.641
9.4384 22.588
9.4536 22.920
9.4687 22.952
9.4839 22.699
9.4991 22.704
9.5143 22.816
9.5294 23.129
9.5446 23.124
9.5598 22.965
9.5750 22.872
9.5901 22.921
9.6053 23.104
9.6205 23.104
9.6357 23.008
9.6508 22.949
9.6660 23.293
9.6812 23.637
9.6964 23.551
9.7115 23.825
9.7267 24.172
9.7419 23.919
9.7571 23.737
9.7722 23.835
9.7874 24.048
9.8026 23.707
9.8178 23.496
9.8329 23.484
9.8481 23.259
9.8633 22.890
9.8785 22.814
9.8936 22.933
9.9088 23.219
9.9240 23.425
9.9392 23.175
9.9543 23.027
9.9695 23.139
9.9847 23.175
9.9999 23.137
10.0150 23.188
10.0302 23.074
10.0454 23.030
10.0606 23.117
10.0757 22.934
10.0909 22.765
10.1061 23.018
10.1213 23.168
10.1364 23.262
10.1516 23.100
10.1668 23.077
10.1820 23.358
10.1971 23.051
10.2123 22.903
10.2275 22.785
10.2427 22.824
10.2578 23.060
10.2730 22.866
10.2882 22.650
10.3034 22.737
10.3185 22.634
10.3337 22.544
10.3489 22.697
10.3641 22.805
10.3792 22.728
10.3944 22.752
10.4096 22.908
10.4248 22.880
10.4399 22.892
10.4551 22.668
10.4703 22.800
10.4855 22.658
10.5006 22.571
10.5158 22.261
10.5310 22.425
10.5462 22.410
10.5613 22.533
10.5765 22.394
10.5917 22.251
10.6069 22.417
10.6220 22.499
10.6372 22.550
10.6524 22.610
10.6676 22.454
10.6827 22.110
10.6979 21.804
10.7131 22.233
10.7283 22.083
10.7434 22.313
10.7586 22.376
10.7738 22.271
10.7890 22.105
10.8041 21.906
10.8193 22.003
10.8345 22.438
10.8497 22.350
10.8648 22.372
10.8800 22.187
10.8952 22.257
10.9104 22.340
10.9255 22.316
10.9407 22.124
10.9559 21.820
10.9711 21.783
10.9862 21.968
11.0014 22.118
11.0166 21.783
11.0318 21.845
11.0469 21.574
11.0621 21.835
11.0773 21.901
11.0925 22.004
11.1076 21.898
11.1228 21.754
11.1380 21.638
11.1532 21.519
11.1683 21.834
11.1835 21.936
11.1987 21.601
11.2139 21.420
11.2290 21.370
11.2442 21.375
11.2594 21.373
11.2746 21.530
11.2897 21.566
11.3049 21.408
11.3201 21.854
11.3353 21.301
11.3504 21.153
11.3656 21.061
11.3808 21.217
11.3960 21.320
11.4111 21.085
11.4263 20.918
11.4415 21.171
11.4567 21.096
11.4718 21.071
11.4870 21.171
11.5022 20.862
11.5174 20.869
11.5325 20.881
11.5477 20.745
11.5629 20.808
11.5781 20.836
11.5932 20.870
11.6084 20.698
11.6236 20.704
11.6388 20.463
11.6539 20.525
11.6691 20.612
11.6843 20.713
11.6995 20.696
11.7146 20.716
11.7298 20.931
11.7450 20.451
11.7602 20.309
11.7753 20.140
11.7905 20.137
11.8057 19.945
11.8209 19.653
11.8360 19.910
11.8512 19.956
11.8664 19.677
11.8816 20.122
11.8967 20.004
11.9119 19.510
11.9271 19.412
11.9423 19.752
11.9574 19.343
11.9726 19.318
11.9878 19.550
12.0030 19.250
12.0181 19.120
12.0333 19.269
12.0485 19.122
12.0637 19.104
12.0788 18.817
12.0940 18.452
12.1092 18.390
12.1244 18.225
12.1395 18.410
12.1547 18.247
12.1699 18.109
12.1851 18.458
12.2002 18.880
12.2154 18.206
12.2306 17.953
12.2458 18.189
12.2609 18.293
12.2761 18.067
12.2913 17.940
12.3065 17.926
12.3216 17.491
12.3368 17.505
12.3520 17.380
12.3672 17.366
12.3823 17.177
12.3975 16.781
12.4127 17.056
12.4279 16.993
12.4430 16.789
12.4582 16.822
12.4734 16.907
12.4886 16.754
12.5037 16.588
12.5189 16.756
12.5341 16.614
12.5493 16.346
12.5644 16.126
12.5796 16.185
12.5948 16.025
12.6100 15.856
12.6251 15.978
12.6403 15.999
12.6555 15.984
12.6707 15.801
12.6858 15.501
12.7010 15.541
12.7162 15.532
12.7314 15.294
12.7465 15.611
12.7617 15.387
12.7769 15.191
12.7921 15.322
12.8072 15.187
12.8224 15.178
12.8376 15.288
12.8528 14.963
12.8679 14.748
12.8831 14.970
12.8983 14.813
12.9135 14.595
12.9286 14.505
12.9438 14.513
12.9590 14.491
12.9742 14.326
12.9893 14.261
13.0045 14.320
13.0197 14.155
13.0349 13.899
13.0500 13.874
13.0652 13.991
13.0804 14.192
13.0956 14.099
13.1107 13.790
13.1259 13.684
13.1411 13.826
13.1563 13.714
13.1714 13.551
13.1866 13.720
13.2018 13.687
13.2170 13.291
13.2321 13.128
13.2473 13.174
13.2625 13.114
13.2777 12.995
13.2928 12.997
13.3080 13.186
13.3232 13.009
13.3384 12.854
13.3535 13.021
13.3687 13.155
13.3839 13.078
13.3991 12.915
13.4142 12.855
13.4294 12.881
13.4446 12.671
13.4598 12.755
13.4749 12.673
13.4901 12.418
13.5053 12.747
13.5205 12.627
13.5356 12.265
13.5508 12.122
13.5660 12.224
13.5812 12.363
13.5963 12.240
13.6115 12.076
13.6267 12.048
13.6419 12.195
13.6570 12.087
13.6722 12.105
13.6874 12.099
13.7026 11.966
13.7177 12.036
13.7329 12.461
13.7481 12.093
13.7633 11.892
13.7784 12.062
13.7936 12.117
13.8088 11.920
13.8239 12.310
13.8391 12.507
13.8543 12.397
13.8695 12.402
13.8846 12.411
13.8998 12.280
13.9150 12.443
13.9302 12.174
13.9453 11.764
13.9605 11.910
13.9757 11.690
13.9909 11.540
14.0060 11.731
14.0212 11.607
14.0364 11.677
14.0516 11.645
14.0667 11.622
14.0819 11.389
14.0971 11.425
14.1123 11.479
14.1274 11.328
14.1426 11.481
14.1578 11.535
14.1730 11.783
14.1881 11.894
14.2033 11.706
14.2185 11.800
14.2337 11.823
14.2488 11.583
14.2640 11.687
14.2792 11.855
14.2944 11.891
14.3095 11.965
14.3247 12.289
14.3399 12.558
14.3551 12.666
14.3702 12.364
14.3854 12.993
14.4006 12.825
14.4158 13.036
14.4309 13.122
14.4461 12.642
14.4613 12.576
14.4765 12.722
14.4916 12.401
14.5068 12.125
14.5220 11.817
14.5372 11.487
14.5523 11.070
14.5675 11.398
14.5827 11.119
14.5979 10.867
14.6130 11.077
14.6282 10.977
14.6434 10.906
14.6586 10.650
14.6737 10.451
14.6889 10.465
14.7041 10.650
14.7193 10.357
14.7344 10.771
14.7496 10.706
14.7648 10.602
14.7800 10.688
14.7951 10.704
14.8103 10.752
14.8255 10.682
14.8407 10.635
14.8558 10.587
14.8710 10.176
14.8862 10.611
14.9014 10.390
14.9165 10.602
14.9317 10.537
14.9469 10.394
14.9621 10.540
14.9772 10.328
14.9924 10.288
15.0076 10.596
15.0228 10.493
15.0379 10.267
15.0531 10.387
15.0683 10.349
15.0835 10.427
15.0986 10.101
15.1138 10.447
15.1290 10.032
15.1442 10.145
15.1593 10.221
15.1745 10.147
15.1897 9.844
15.2049 9.896
15.2200 10.207
15.2352 10.064
15.2504 10.044
15.2656 10.246
15.2807 10.014
15.2959 10.257
15.3111 9.877
15.3263 10.455
15.3414 10.315
15.3566 10.158
15.3718 10.132
15.3870 9.917
15.4021 10.096
15.4173 10.330
15.4325 10.124
15.4477 10.257
15.4628 10.299
15.4780 10.408
15.4932 10.196
15.5084 10.044
15.5235 10.146
15.5387 10.306
15.5539 9.916
15.5691 9.902
15.5842 9.716
15.5994 9.936
15.6146 9.482
15.6298 10.033
15.6449 9.917
15.6601 9.932
15.6753 9.812
15.6905 9.912
15.7056 10.003
15.7208 9.546
15.7360 9.745
15.7512 9.857
15.7663 9.386
15.7815 9.479
15.7967 9.692
15.8119 9.887
15.8270 9.887
15.8422 9.888
15.8574 9.493
15.8726 9.537
15.8877 9.677
15.9029 9.405
15.9181 9.503
15.9333 9.545
15.9484 9.657
15.9636 9.680
15.9788 9.830
15.9940 9.783
16.0091 9.357
16.0243 9.442
16.0395 9.643
16.0547 9.413
16.0698 9.610
16.0850 9.321
16.1002 9.553
16.1154 9.776
16.1305 9.679
16.1457 9.535
16.1609 9.555
16.1761 9.622
16.1912 9.412
16.2064 9.539
16.2216 9.691
16.2368 9.572
16.2519 9.660
16.2671 9.485
16.2823 9.538
16.2975 9.549
16.3126 9.575
16.3278 9.654
16.3430 9.543
16.3582 9.743
16.3733 9.796
16.3885 9.810
16.4037 9.936
16.4189 9.826
16.4340 9.799
16.4492 9.733
16.4644 9.861
16.4796 9.460
16.4947 9.645
16.5099 9.796
16.5251 9.695
16.5403 9.751
16.5554 9.678
16.5706 9.585
16.5858 9.573
16.6010 9.557
16.6161 9.419
16.6313 9.438
16.6465 9.698
16.6617 9.857
16.6768 9.991
16.6920 9.965
16.7072 9.793
16.7224 9.753
16.7375 10.059
16.7527 10.164
16.7679 9.985
16.7831 9.859
16.7982 9.822
16.8134 9.986
16.8286 9.719
16.8438 9.762
16.8589 9.806
16.8741 9.632
16.8893 9.739
16.9045 9.809
16.9196 9.854
16.9348 9.892
16.9500 9.931
16.9652 9.930
16.9803 9.713
16.9955 9.754
17.0107 9.784
17.0259 9.949
17.0410 10.066
17.0562 9.975
17.0714 10.057
17.0866 10.214
17.1017 10.431
17.1169 10.730
17.1321 10.883
17.1473 11.202
17.1624 11.717
17.1776 12.254
17.1928 13.082
17.2080 13.999
17.2231 14.885
17.2383 16.367
17.2535 17.601
17.2687 18.118
17.2838 18.331
17.2990 17.792
17.3142 16.658
17.3294 16.203
17.3445 16.141
17.3597 15.944
17.3749 15.868
17.3901 15.168
17.4052 14.141
17.4204 13.410
17.4356 12.579
17.4508 12.032
17.4659 12.023
17.4811 11.818
17.4963 11.573
17.5115 11.529
17.5266 11.409
17.5418 11.074
17.5570 10.808
17.5722 10.864
17.5873 11.140
17.6025 11.337
17.6177 11.251
17.6329 11.373
17.6480 11.474
17.6632 11.286
17.6784 11.266
17.6936 11.375
17.7087 11.267
17.7239 11.007
17.7391 10.952
17.7543 11.034
17.7694 10.975
17.7846 10.849
17.7998 10.711
17.8150 10.637
17.8301 10.502
17.8453 10.232
17.8605 10.013
17.8757 10.054
17.8908 10.246
17.9060 10.393
17.9212 10.442
17.9364 10.267
17.9515 10.142
17.9667 9.961
17.9819 10.061
17.9971 10.369
18.0122 10.374
18.0274 10.115
18.0426 10.117
18.0578 10.309
18.0729 10.146
18.0881 9.974
18.1033 10.000
18.1185 9.976
18.1336 9.995
18.1488 9.807
18.1640 10.109
18.1792 10.198
18.1943 9.887
18.2095 10.070
18.2247 10.118
18.2399 9.832
18.2550 9.705
18.2702 9.691
18.2854 9.750
18.3006 9.753
18.3157 9.785
18.3309 9.743
18.3461 9.727
18.3613 9.700
18.3764 9.818
18.3916 9.670
18.4068 9.772
18.4220 9.784
18.4371 9.636
18.4523 9.907
18.4675 9.853
18.4827 9.835
18.4978 9.903
18.5130 9.751
18.5282 9.856
18.5434 9.850
18.5585 9.754
18.5737 9.656
18.5889 9.727
18.6041 9.855
18.6192 9.701
18.6344 9.695
18.6496 9.822
18.6648 9.711
18.6799 9.723
18.6951 9.802
18.7103 10.040
18.7255 10.065
18.7406 9.793
18.7558 9.862
18.7710 9.789
18.7862 9.663
18.8013 9.525
18.8165 9.346
18.8317 9.722
18.8469 9.803
18.8620 9.655
18.8772 9.924
18.8924 9.895
18.9076 10.042
18.9227 9.913
18.9379 9.663
18.9531 9.697
18.9683 9.850
18.9834 9.961
18.9986 10.121
19.0138 10.054
19.0290 10.035
19.0441 10.118
19.0593 10.240
19.0745 10.128
19.0897 10.153
19.1048 10.231
19.1200 10.228
19.1352 10.251
19.1504 10.507
19.1655 10.645
19.1807 10.614
19.1959 10.630
19.2111 10.573
19.2262 10.620
19.2414 10.659
19.2566 10.644
19.2718 10.639
19.2869 10.809
19.3021 10.882
19.3173 10.674
19.3325 10.787
19.3476 11.000
19.3628 11.061
19.3780 11.034
19.3932 11.169
19.4083 11.268
19.4235 11.125
19.4387 11.114
19.4539 11.189
19.4690 11.290
19.4842 11.443
19.4994 11.428
19.5146 11.337
19.5297 11.321
19.5449 11.224
19.5601 11.458
19.5753 11.468
19.5904 11.536
19.6056 11.656
19.6208 11.629
19.6360 11.690
19.6511 11.647
19.6663 11.461
19.6815 11.531
19.6967 11.604
19.7118 11.693
19.7270 11.895
19.7422 11.754
19.7574 11.573
19.7725 11.841
19.7877 12.102
19.8029 12.087
19.8180 12.193
19.8332 12.346
19.8484 12.315
19.8636 12.344
19.8787 12.461
19.8939 12.812
19.9091 13.206
19.9243 13.391
19.9394 13.799
19.9546 14.016
19.9698 14.312
19.9850 14.279
20.0001 14.235
20.0153 14.088
20.0305 13.832
20.0457 13.937
20.0608 13.705
20.0760 13.778
20.0912 13.768
20.1064 13.540
20.1215 13.438
20.1367 13.261
20.1519 13.242
20.1671 12.803
20.1822 12.627
20.1974 12.674
20.2126 12.663
20.2278 12.728
20.2429 12.512
20.2581 12.192
20.2733 12.106
20.2885 11.876
20.3036 11.951
20.3188 12.150
20.3340 11.953
20.3492 12.110
20.3643 12.017
20.3795 11.887
20.3947 11.953
20.4099 11.795
20.4250 11.883
20.4402 11.958
20.4554 12.034
20.4706 12.027
20.4857 11.855
20.5009 11.746
20.5161 11.987
20.5313 11.802
20.5464 11.441
20.5616 11.323
20.5768 11.594
20.5920 11.148
20.6071 11.139
20.6223 10.936
20.6375 11.136
20.6527 11.063
20.6678 10.605
20.6830 10.627
20.6982 10.422
20.7134 10.518
20.7285 10.597
20.7437 10.380
20.7589 10.548
20.7741 10.199
20.7892 10.123
20.8044 10.504
20.8196 10.291
20.8348 10.229
20.8499 10.055
20.8651 10.221
20.8803 10.186
20.8955 10.319
20.9106 9.893
20.9258 10.028
20.9410 10.408
20.9562 10.336
20.9713 10.188
20.9865 10.407
21.0017 9.899
21.0169 10.214
21.0320 10.015
21.0472 9.912
21.0624 9.882
21.0776 9.667
21.0927 9.893
21.1079 9.834
21.1231 9.510
21.1383 9.836
21.1534 9.789
21.1686 9.600
21.1838 9.755
21.1990 9.585
21.2141 9.799
21.2293 9.989
21.2445 9.647
21.2597 9.883
21.2748 9.812
21.2900 9.557
21.3052 10.055
21.3204 9.520
21.3355 9.360
21.3507 9.400
21.3659 9.377
21.3811 9.189
21.3962 9.265
21.4114 9.341
21.4266 9.515
21.4418 9.615
21.4569 9.446
21.4721 9.401
21.4873 9.510
21.5025 9.431
21.5176 9.287
21.5328 9.184
21.5480 9.171
21.5632 9.390
21.5783 9.178
21.5935 9.293
21.6087 8.903
21.6239 8.999
21.6390 9.227
21.6542 9.346
21.6694 9.323
21.6846 9.202
21.6997 9.269
21.7149 9.093
21.7301 8.964
21.7453 9.102
21.7604 9.048
21.7756 9.062
21.7908 9.209
21.8060 8.801
21.8211 8.999
21.8363 9.017
21.8515 9.108
21.8667 8.891
21.8818 8.920
21.8970 8.906
21.9122 8.848
21.9274 8.813
21.9425 8.965
21.9577 9.071
21.9729 9.025
21.9881 8.895
22.0032 8.936
22.0184 8.848
22.0336 8.631
22.0488 8.809
22.0639 8.771
22.0791 8.797
22.0943 8.799
22.1095 8.631
22.1246 8.773
22.1398 8.656
22.1550 8.599
22.1702 8.572
22.1853 8.504
22.2005 8.498
22.2157 8.604
22.2309 8.677
22.2460 8.522
22.2612 8.253
22.2764 8.362
22.2916 8.419
22.3067 8.287
22.3219 8.201
22.3371 8.498
22.3523 8.307
22.3674 8.412
22.3826 8.641
22.3978 8.533
22.4130 8.299
22.4281 8.114
22.4433 8.468
22.4585 8.713
22.4737 8.408
22.4888 8.424
22.5040 8.334
22.5192 8.376
22.5344 8.357
22.5495 8.463
22.5647 8.345
22.5799 8.330
22.5951 8.419
22.6102 8.622
22.6254 8.305
22.6406 8.364
22.6558 8.358
22.6709 8.352
22.6861 8.071
22.7013 8.302
22.7165 8.036
22.7316 6.422
