'Id: "" Comment: "" Operator: "Lab Manager" Anode: "Mo" Scantype: "Still (Eiger2R_500K (1D mode))" TimePerStep: "300" X: "11.8" Y: "9.4" Z: "11.284" 
7.2532 18.864
7.2684 18.818
7.2836 18.503
7.2987 19.040
7.3139 19.182
7.3291 18.975
7.3443 19.234
7.3594 19.125
7.3746 18.793
7.3898 19.118
7.4050 18.935
7.4201 19.146
7.4353 19.167
7.4505 19.669
7.4657 19.555
7.4808 19.749
7.4960 19.653
7.5112 19.832
7.5264 19.620
7.5415 19.558
7.5567 19.820
7.5719 19.567
7.5871 19.878
7.6022 20.178
7.6174 19.857
7.6326 19.832
7.6478 19.866
7.6629 19.986
7.6781 20.116
7.6933 20.272
7.7085 20.203
7.7236 20.347
7.7388 20.754
7.7540 20.834
7.7692 20.511
7.7843 20.265
7.7995 20.174
7.8147 19.811
7.8299 20.092
7.8450 20.568
7.8602 20.611
7.8754 20.608
7.8905 20.691
7.9057 20.684
7.9209 20.833
7.9361 20.751
7.9512 20.992
7.9664 20.972
7.9816 21.255
7.9968 21.281
8.0119 21.311
8.0271 20.722
8.0423 21.006
8.0575 21.302
8.0726 20.903
8.0878 20.778
8.1030 20.659
8.1182 21.113
8.1333 21.076
8.1485 21.135
8.1637 21.194
8.1789 20.984
8.1940 21.741
8.2092 21.461
8.2244 21.105
8.2396 21.597
8.2547 21.399
8.2699 21.291
8.2851 21.883
8.3003 21.586
8.3154 21.855
8.3306 21.476
8.3458 21.509
8.3610 21.521
8.3761 21.552
8.3913 21.960
8.4065 21.820
8.4217 21.580
8.4368 21.640
8.4520 21.716
8.4672 21.980
8.4824 22.345
8.4975 22.220
8.5127 22.293
8.5279 22.159
8.5431 21.984
8.5582 22.250
8.5734 21.702
8.5886 22.074
8.6038 22.350
8.6189 22.034
8.6341 22.403
8.6493 22.365
8.6645 22.313
8.6796 22.407
8.6948 22.572
8.7100 22.436
8.7252 22.263
8.7403 21.919
8.7555 22.596
8.7707 22.169
8.7859 22.093
8.8010 22.436
8.8162 22.582
8.8314 22.360
8.8466 22.634
8.8617 22.441
8.8769 22.348
8.8921 22.181
8.9073 22.511
8.9224 22.688
8.9376 22.705
8.9528 22.877
8.9680 22.664
8.9831 22.814
8.9983 22.475
9.0135 22.474
9.0287 22.255
9.0438 22.845
9.0590 23.094
9.0742 22.885
9.0894 22.739
9.1045 23.061
9.1197 23.339
9.1349 22.710
9.1501 22.977
9.1652 23.099
9.1804 22.692
9.1956 22.679
9.2108 22.873
9.2259 22.795
9.2411 22.821
9.2563 23.048
9.2715 23.211
9.2866 22.917
9.3018 22.791
9.3170 22.886
9.3322 23.110
9.3473 23.086
9.3625 22.950
9.3777 23.349
9.3929 23.265
9.4080 23.038
9.4232 22.717
9.4384 22.720
9.4536 22.988
9.4687 23.003
9.4839 23.387
9.4991 23.524
9.5143 22.956
9.5294 22.661
9.5446 23.196
9.5598 23.605
9.5750 23.317
9.5901 23.445
9.6053 23.518
9.6205 23.249
9.6357 23.638
9.6508 23.503
9.6660 23.685
9.6812 24.209
9.6964 24.052
9.7115 23.947
9.7267 24.104
9.7419 24.080
9.7571 23.947
9.7722 23.641
9.7874 23.664
9.8026 23.689
9.8178 23.490
9.8329 23.461
9.8481 23.395
9.8633 23.574
9.8785 23.652
9.8936 23.192
9.9088 22.693
9.9240 22.879
9.9392 23.086
9.9543 23.223
9.9695 23.397
9.9847 23.577
9.9999 23.382
10.0150 23.307
10.0302 23.386
10.0454 23.336
10.0606 23.266
10.0757 23.010
10.0909 23.126
10.1061 23.440
10.1213 23.798
10.1364 23.762
10.1516 23.314
10.1668 23.226
10.1820 23.010
10.1971 23.126
10.2123 23.232
10.2275 23.333
10.2427 23.414
10.2578 23.084
10.2730 22.839
10.2882 22.831
10.3034 22.730
10.3185 23.105
10.3337 23.344
10.3489 23.069
10.3641 22.495
10.3792 22.796
10.3944 23.153
10.4096 22.918
10.4248 22.960
10.4399 22.704
10.4551 22.493
10.4703 22.491
10.4855 22.330
10.5006 22.800
10.5158 22.650
10.5310 22.195
10.5462 22.079
10.5613 22.586
10.5765 23.009
10.5917 22.964
10.6069 22.299
10.6220 22.530
10.6372 22.740
10.6524 22.549
10.6676 22.648
10.6827 22.546
10.6979 22.551
10.7131 22.757
10.7283 22.573
10.7434 22.285
10.7586 21.994
10.7738 22.438
10.7890 22.495
10.8041 22.119
10.8193 22.014
10.8345 22.224
10.8497 22.339
10.8648 22.021
10.8800 21.870
10.8952 21.696
10.9104 21.825
10.9255 21.980
10.9407 22.047
10.9559 21.908
10.9711 21.765
10.9862 22.042
11.0014 21.913
11.0166 21.956
11.0318 22.420
11.0469 21.591
11.0621 21.615
11.0773 22.192
11.0925 22.013
11.1076 21.833
11.1228 21.600
11.1380 21.832
11.1532 21.623
11.1683 21.773
11.1835 22.091
11.1987 21.616
11.2139 21.953
11.2290 21.990
11.2442 21.923
11.2594 21.511
11.2746 21.465
11.2897 21.530
11.3049 21.461
11.3201 21.826
11.3353 22.045
11.3504 21.361
11.3656 21.410
11.3808 21.449
11.3960 21.147
11.4111 21.174
11.4263 21.413
11.4415 21.208
11.4567 21.320
11.4718 21.236
11.4870 21.298
11.5022 21.190
11.5174 21.068
11.5325 20.867
11.5477 21.294
11.5629 21.392
11.5781 21.200
11.5932 21.022
11.6084 20.517
11.6236 20.811
11.6388 20.529
11.6539 20.634
11.6691 20.759
11.6843 20.421
11.6995 20.388
11.7146 20.616
11.7298 20.334
11.7450 20.220
11.7602 20.267
11.7753 20.231
11.7905 20.289
11.8057 20.450
11.8209 20.333
11.8360 19.852
11.8512 19.844
11.8664 19.953
11.8816 19.550
11.8967 19.665
11.9119 19.713
11.9271 19.236
11.9423 19.137
11.9574 19.461
11.9726 19.402
11.9878 19.091
12.0030 19.047
12.0181 19.228
12.0333 19.208
12.0485 19.359
12.0637 19.024
12.0788 18.945
12.0940 18.914
12.1092 18.839
12.1244 18.723
12.1395 18.651
12.1547 18.468
12.1699 18.613
12.1851 18.169
12.2002 18.323
12.2154 18.225
12.2306 18.129
12.2458 18.195
12.2609 17.645
12.2761 17.703
12.2913 17.840
12.3065 17.875
12.3216 17.871
12.3368 17.577
12.3520 17.773
12.3672 17.571
12.3823 17.396
12.3975 17.288
12.4127 17.254
12.4279 17.295
12.4430 17.232
12.4582 16.916
12.4734 16.793
12.4886 16.753
12.5037 16.512
12.5189 16.469
12.5341 16.510
12.5493 16.493
12.5644 16.384
12.5796 16.521
12.5948 16.334
12.6100 16.269
12.6251 16.256
12.6403 16.276
12.6555 16.296
12.6707 15.793
12.6858 15.557
12.7010 15.788
12.7162 15.509
12.7314 15.274
12.7465 15.424
12.7617 15.605
12.7769 15.521
12.7921 15.200
12.8072 15.046
12.8224 14.967
12.8376 15.086
12.8528 15.006
12.8679 14.757
12.8831 15.078
12.8983 15.033
12.9135 14.763
12.9286 14.693
12.9438 14.576
12.9590 14.341
12.9742 14.362
12.9893 14.281
13.0045 14.353
13.0197 14.653
13.0349 14.562
13.0500 14.108
13.0652 13.759
13.0804 13.732
13.0956 13.666
13.1107 13.778
13.1259 13.918
13.1411 13.762
13.1563 13.633
13.1714 13.632
13.1866 13.668
13.2018 13.594
13.2170 13.591
13.2321 13.557
13.2473 13.477
13.2625 13.536
13.2777 13.588
13.2928 13.470
13.3080 13.214
13.3232 13.184
13.3384 13.207
13.3535 13.028
13.3687 13.143
13.3839 13.629
13.3991 13.226
13.4142 12.851
13.4294 13.028
13.4446 12.930
13.4598 12.916
13.4749 12.780
13.4901 12.724
13.5053 12.711
13.5205 12.541
13.5356 12.462
13.5508 12.289
13.5660 12.239
13.5812 12.359
13.5963 12.394
13.6115 12.396
13.6267 12.290
13.6419 12.212
13.6570 12.013
13.6722 12.083
13.6874 12.037
13.7026 11.792
13.7177 11.826
13.7329 12.122
13.7481 12.385
13.7633 12.379
13.7784 12.261
13.7936 11.980
13.8088 12.087
13.8239 12.089
13.8391 12.337
13.8543 12.096
13.8695 12.173
13.8846 12.320
13.8998 11.887
13.9150 11.855
13.9302 12.052
13.9453 11.986
13.9605 12.175
13.9757 11.965
13.9909 11.467
14.0060 11.606
14.0212 12.053
14.0364 11.791
14.0516 11.359
14.0667 11.483
14.0819 11.614
14.0971 11.644
14.1123 11.735
14.1274 11.723
14.1426 11.462
14.1578 11.258
14.1730 11.624
14.1881 12.062
14.2033 12.074
14.2185 11.919
14.2337 11.909
14.2488 11.893
14.2640 11.950
14.2792 11.810
14.2944 11.646
14.3095 12.226
14.3247 12.100
14.3399 12.404
14.3551 12.569
14.3702 13.078
14.3854 13.274
14.4006 13.225
14.4158 12.874
14.4309 13.067
14.4461 12.851
14.4613 12.696
14.4765 12.608
14.4916 12.182
14.5068 11.761
14.5220 11.626
14.5372 11.628
14.5523 11.132
14.5675 11.086
14.5827 11.261
14.5979 11.237
14.6130 10.993
14.6282 10.806
14.6434 10.500
14.6586 10.923
14.6737 11.111
14.6889 10.963
14.7041 10.631
14.7193 10.690
14.7344 10.586
14.7496 10.630
14.7648 10.804
14.7800 10.896
14.7951 10.848
14.8103 10.801
14.8255 10.711
14.8407 10.376
14.8558 10.371
14.8710 10.421
14.8862 10.723
14.9014 10.448
14.9165 10.627
14.9317 10.446
14.9469 10.289
14.9621 10.239
14.9772 10.366
14.9924 10.391
15.0076 10.423
15.0228 10.379
15.0379 10.378
15.0531 10.482
15.0683 10.323
15.0835 10.368
15.0986 10.696
15.1138 10.153
15.1290 10.038
15.1442 10.536
15.1593 10.052
15.1745 9.976
15.1897 10.205
15.2049 10.386
15.2200 10.250
15.2352 10.453
15.2504 10.160
15.2656 10.152
15.2807 10.031
15.2959 10.286
15.3111 10.347
15.3263 10.235
15.3414 10.061
15.3566 10.375
15.3718 10.127
15.3870 10.425
15.4021 10.236
15.4173 10.223
15.4325 10.361
15.4477 10.192
15.4628 10.161
15.4780 9.818
15.4932 10.209
15.5084 10.123
15.5235 10.043
15.5387 10.140
15.5539 10.102
15.5691 10.073
15.5842 10.043
15.5994 9.839
15.6146 9.883
15.6298 9.844
15.6449 9.951
15.6601 9.735
15.6753 9.885
15.6905 9.848
15.7056 9.933
15.7208 9.759
15.7360 9.701
15.7512 10.094
15.7663 9.819
15.7815 9.872
15.7967 9.681
15.8119 9.644
15.8270 9.931
15.8422 9.625
15.8574 9.643
15.8726 9.531
15.8877 9.575
15.9029 9.454
15.9181 9.656
15.9333 9.499
15.9484 9.555
15.9636 9.837
15.9788 9.505
15.9940 9.551
16.0091 9.549
16.0243 9.400
16.0395 9.497
16.0547 9.475
16.0698 9.556
16.0850 9.626
16.1002 9.729
16.1154 9.756
16.1305 9.820
16.1457 9.606
16.1609 9.597
16.1761 9.607
16.1912 9.650
16.2064 9.515
16.2216 9.500
16.2368 9.805
16.2519 9.645
16.2671 9.685
16.2823 10.033
16.2975 9.921
16.3126 9.818
16.3278 9.661
16.3430 9.879
16.3582 9.776
16.3733 9.856
16.3885 9.915
16.4037 9.823
16.4189 9.804
16.4340 9.794
16.4492 9.620
16.4644 9.801
16.4796 9.709
16.4947 9.672
16.5099 9.604
16.5251 9.569
16.5403 9.748
16.5554 9.703
16.5706 9.640
16.5858 9.319
16.6010 9.440
16.6161 9.599
16.6313 9.610
16.6465 9.617
16.6617 9.753
16.6768 9.997
16.6920 9.883
16.7072 10.139
16.7224 10.079
16.7375 9.868
16.7527 9.880
16.7679 9.906
16.7831 9.955
16.7982 9.935
16.8134 9.948
16.8286 9.866
16.8438 9.938
16.8589 9.850
16.8741 9.824
16.8893 9.934
16.9045 9.688
16.9196 9.790
16.9348 9.892
16.9500 9.849
16.9652 9.919
16.9803 10.020
16.9955 9.971
17.0107 9.855
17.0259 10.033
17.0410 10.189
17.0562 10.215
17.0714 10.209
17.0866 10.281
17.1017 10.372
17.1169 10.649
17.1321 10.680
17.1473 11.070
17.1624 11.835
17.1776 12.336
17.1928 13.223
17.2080 13.981
17.2231 15.084
17.2383 16.443
17.2535 17.659
17.2687 18.766
17.2838 18.861
17.2990 18.112
17.3142 16.928
17.3294 16.024
17.3445 15.945
17.3597 15.883
17.3749 15.783
17.3901 15.407
17.4052 14.464
17.4204 13.474
17.4356 12.615
17.4508 12.111
17.4659 11.795
17.4811 11.758
17.4963 11.845
17.5115 11.494
17.5266 11.137
17.5418 11.018
17.5570 10.775
17.5722 10.741
17.5873 11.167
17.6025 11.330
17.6177 11.243
17.6329 11.358
17.6480 11.411
17.6632 11.341
17.6784 11.446
17.6936 11.579
17.7087 11.448
17.7239 11.378
17.7391 11.300
17.7543 11.007
17.7694 10.830
17.7846 10.951
17.7998 11.000
17.8150 11.067
17.8301 10.785
17.8453 10.416
17.8605 10.291
17.8757 10.189
17.8908 10.399
17.9060 10.469
17.9212 10.321
17.9364 10.303
17.9515 10.009
17.9667 9.972
17.9819 10.166
17.9971 10.375
18.0122 10.092
18.0274 10.152
18.0426 10.487
18.0578 10.346
18.0729 10.091
18.0881 10.058
18.1033 9.937
18.1185 9.783
18.1336 9.985
18.1488 10.029
18.1640 9.946
18.1792 10.117
18.1943 10.024
18.2095 9.954
18.2247 9.999
18.2399 9.980
18.2550 9.846
18.2702 9.780
18.2854 9.665
18.3006 9.693
18.3157 9.747
18.3309 9.756
18.3461 9.765
18.3613 9.641
18.3764 9.644
18.3916 9.760
18.4068 9.709
18.4220 9.818
18.4371 9.813
18.4523 9.757
18.4675 9.692
18.4827 9.765
18.4978 9.908
18.5130 9.990
18.5282 9.877
18.5434 10.007
18.5585 10.008
18.5737 9.842
18.5889 9.751
18.6041 9.824
18.6192 9.737
18.6344 9.602
18.6496 9.731
18.6648 9.931
18.6799 9.857
18.6951 9.801
18.7103 9.931
18.7255 9.899
18.7406 9.719
18.7558 9.840
18.7710 10.066
18.7862 10.009
18.8013 9.756
18.8165 9.739
18.8317 9.777
18.8469 9.864
18.8620 10.009
18.8772 10.145
18.8924 10.153
18.9076 9.850
18.9227 9.804
18.9379 9.730
18.9531 9.950
18.9683 9.994
18.9834 9.905
18.9986 10.185
19.0138 10.103
19.0290 9.996
19.0441 10.048
19.0593 10.184
19.0745 10.304
19.0897 10.259
19.1048 10.313
19.1200 10.334
19.1352 10.465
19.1504 10.532
19.1655 10.298
19.1807 10.426
19.1959 10.511
19.2111 10.555
19.2262 10.449
19.2414 10.618
19.2566 10.882
19.2718 10.660
19.2869 10.837
19.3021 10.919
19.3173 10.870
19.3325 11.006
19.3476 10.936
19.3628 10.867
19.3780 10.858
19.3932 10.971
19.4083 11.187
19.4235 11.251
19.4387 11.386
19.4539 11.249
19.4690 11.130
19.4842 11.174
19.4994 11.249
19.5146 11.431
19.5297 11.400
19.5449 11.510
19.5601 11.532
19.5753 11.358
19.5904 11.445
19.6056 11.342
19.6208 11.399
19.6360 11.738
19.6511 11.883
19.6663 11.900
19.6815 11.637
19.6967 11.626
19.7118 11.818
19.7270 11.696
19.7422 11.767
19.7574 11.922
19.7725 11.767
19.7877 11.935
19.8029 12.008
19.8180 11.939
19.8332 12.075
19.8484 12.225
19.8636 12.549
19.8787 12.669
19.8939 12.755
19.9091 13.073
19.9243 13.546
19.9394 13.783
19.9546 14.048
19.9698 14.633
19.9850 14.752
20.0001 14.478
20.0153 14.103
20.0305 13.773
20.0457 13.852
20.0608 13.877
20.0760 13.607
20.0912 13.612
20.1064 13.560
20.1215 13.345
20.1367 13.123
20.1519 12.714
20.1671 12.757
20.1822 12.821
20.1974 12.870
20.2126 12.611
20.2278 12.711
20.2429 12.563
20.2581 12.254
20.2733 12.023
20.2885 12.059
20.3036 12.051
20.3188 11.841
20.3340 11.871
20.3492 12.073
20.3643 11.997
20.3795 12.140
20.3947 12.006
20.4099 11.951
20.4250 12.122
20.4402 11.933
20.4554 11.927
20.4706 12.050
20.4857 11.644
20.5009 11.801
20.5161 11.508
20.5313 11.549
20.5464 11.273
20.5616 11.225
20.5768 11.403
20.5920 11.516
20.6071 11.501
20.6223 11.129
20.6375 10.991
20.6527 10.596
20.6678 10.607
20.6830 10.826
20.6982 10.627
20.7134 10.602
20.7285 10.640
20.7437 10.435
20.7589 10.365
20.7741 10.378
20.7892 10.441
20.8044 10.553
20.8196 10.334
20.8348 9.996
20.8499 10.317
20.8651 10.562
20.8803 10.213
20.8955 10.040
20.9106 10.195
20.9258 10.023
20.9410 10.164
20.9562 10.050
20.9713 10.093
20.9865 10.285
21.0017 9.839
21.0169 9.912
21.0320 9.877
21.0472 9.814
21.0624 10.184
21.0776 10.195
21.0927 9.764
21.1079 9.753
21.1231 9.953
21.1383 9.830
21.1534 9.804
21.1686 10.130
21.1838 9.626
21.1990 9.590
21.2141 9.542
21.2293 9.434
21.2445 9.910
21.2597 9.678
21.2748 10.053
21.2900 9.484
21.3052 9.535
21.3204 9.433
21.3355 9.475
21.3507 9.575
21.3659 9.444
21.3811 9.338
21.3962 9.568
21.4114 9.525
21.4266 9.440
21.4418 9.568
21.4569 9.335
21.4721 9.342
21.4873 9.160
21.5025 9.594
21.5176 9.726
21.5328 9.425
21.5480 9.324
21.5632 9.184
21.5783 9.341
21.5935 9.219
21.6087 9.157
21.6239 9.021
21.6390 8.913
21.6542 9.014
21.6694 9.322
21.6846 9.419
21.6997 9.431
21.7149 9.154
21.7301 9.052
21.7453 9.177
21.7604 9.230
21.7756 9.027
21.7908 9.084
21.8060 8.917
21.8211 8.836
21.8363 9.090
21.8515 9.015
21.8667 8.973
21.8818 8.987
21.8970 8.847
21.9122 8.973
21.9274 9.050
21.9425 9.000
21.9577 8.990
21.9729 8.872
21.9881 8.811
22.0032 8.752
22.0184 8.674
22.0336 8.706
22.0488 8.710
22.0639 8.777
22.0791 8.646
22.0943 8.644
22.1095 8.808
22.1246 8.803
22.1398 8.718
22.1550 8.706
22.1702 8.674
22.1853 8.671
22.2005 8.498
22.2157 8.430
22.2309 8.692
22.2460 8.679
22.2612 8.476
22.2764 8.420
22.2916 8.519
22.3067 8.659
22.3219 8.563
22.3371 8.428
22.3523 8.544
22.3674 8.538
22.3826 8.751
22.3978 8.537
22.4130 8.443
22.4281 8.411
22.4433 8.565
22.4585 8.278
22.4737 8.297
22.4888 8.133
22.5040 8.447
22.5192 8.366
22.5344 8.535
22.5495 8.244
22.5647 8.174
22.5799 8.533
22.5951 8.491
22.6102 8.372
22.6254 8.232
22.6406 8.203
22.6558 8.665
22.6709 8.162
22.6861 8.400
22.7013 8.357
22.7165 8.098
22.7316 6.372
