'Id: "" Comment: "" Operator: "Lab Manager" Anode: "Mo" Scantype: "Still (Eiger2R_500K (1D mode))" TimePerStep: "300" X: "11.8" Y: "9.4" Z: "11.284" 
7.2532 18.755
7.2684 19.403
7.2836 19.031
7.2987 19.407
7.3139 19.290
7.3291 19.597
7.3443 19.809
7.3594 19.646
7.3746 19.599
7.3898 19.604
7.4050 19.659
7.4201 19.541
7.4353 19.696
7.4505 19.670
7.4657 19.476
7.4808 19.757
7.4960 19.858
7.5112 19.720
7.5264 19.589
7.5415 19.931
7.5567 20.086
7.5719 19.828
7.5871 20.247
7.6022 20.087
7.6174 19.897
7.6326 20.080
7.6478 20.380
7.6629 20.152
7.6781 20.306
7.6933 20.409
7.7085 20.375
7.7236 20.311
7.7388 20.325
7.7540 20.383
7.7692 20.495
7.7843 20.491
7.7995 20.643
7.8147 20.815
7.8299 20.796
7.8450 20.833
7.8602 20.881
7.8754 20.663
7.8905 20.738
7.9057 20.835
7.9209 20.936
7.9361 21.212
7.9512 20.942
7.9664 20.933
7.9816 21.002
7.9968 21.098
8.0119 21.070
8.0271 21.210
8.0423 21.327
8.0575 21.234
8.0726 21.028
8.0878 21.502
8.1030 21.548
8.1182 21.478
8.1333 21.746
8.1485 21.191
8.1637 21.927
8.1789 21.556
8.1940 21.470
8.2092 22.045
8.2244 21.998
8.2396 21.763
8.2547 21.937
8.2699 21.952
8.2851 22.403
8.3003 21.986
8.3154 21.629
8.3306 21.586
8.3458 21.683
8.3610 21.843
8.3761 21.835
8.3913 21.982
8.4065 21.687
8.4217 21.943
8.4368 22.025
8.4520 21.867
8.4672 22.375
8.4824 22.067
8.4975 22.007
8.5127 22.043
8.5279 22.640
8.5431 21.911
8.5582 22.174
8.5734 22.164
8.5886 22.751
8.6038 22.819
8.6189 22.364
8.6341 22.392
8.6493 22.441
8.6645 22.134
8.6796 22.186
8.6948 22.754
8.7100 22.509
8.7252 22.433
8.7403 22.324
8.7555 22.517
8.7707 22.455
8.7859 22.661
8.8010 22.387
8.8162 22.277
8.8314 22.438
8.8466 21.995
8.8617 22.626
8.8769 22.735
8.8921 22.800
8.9073 22.741
8.9224 22.631
8.9376 22.528
8.9528 22.921
8.9680 22.487
8.9831 22.352
8.9983 22.805
9.0135 22.765
9.0287 22.783
9.0438 22.643
9.0590 23.044
9.0742 23.194
9.0894 23.163
9.1045 22.811
9.1197 23.024
9.1349 23.280
9.1501 23.011
9.1652 22.924
9.1804 23.025
9.1956 23.067
9.2108 22.675
9.2259 23.140
9.2411 23.101
9.2563 23.289
9.2715 23.145
9.2866 22.818
9.3018 22.930
9.3170 23.191
9.3322 23.414
9.3473 22.969
9.3625 22.953
9.3777 23.283
9.3929 23.059
9.4080 23.239
9.4232 22.963
9.4384 23.010
9.4536 23.331
9.4687 23.207
9.4839 23.388
9.4991 23.427
9.5143 23.574
9.5294 23.507
9.5446 23.531
9.5598 23.602
9.5750 23.525
9.5901 23.554
9.6053 23.238
9.6205 23.072
9.6357 23.635
9.6508 23.817
9.6660 23.476
9.6812 23.546
9.6964 24.112
9.7115 24.182
9.7267 24.153
9.7419 24.252
9.7571 24.210
9.7722 24.224
9.7874 24.145
9.8026 23.973
9.8178 23.961
9.8329 23.739
9.8481 23.793
9.8633 24.198
9.8785 24.038
9.8936 24.054
9.9088 24.455
9.9240 24.639
9.9392 24.458
9.9543 24.134
9.9695 23.996
9.9847 24.109
9.9999 24.083
10.0150 23.622
10.0302 23.505
10.0454 23.281
10.0606 23.070
10.0757 23.388
10.0909 23.324
10.1061 23.679
10.1213 23.406
10.1364 23.473
10.1516 23.635
10.1668 23.561
10.1820 23.542
10.1971 23.635
10.2123 23.895
10.2275 24.039
10.2427 23.831
10.2578 23.751
10.2730 23.951
10.2882 23.924
10.3034 23.479
10.3185 23.599
10.3337 23.926
10.3489 23.792
10.3641 23.091
10.3792 22.756
10.3944 22.920
10.4096 23.112
10.4248 23.255
10.4399 23.295
10.4551 23.562
10.4703 23.240
10.4855 23.111
10.5006 23.109
10.5158 23.245
10.5310 23.022
10.5462 22.734
10.5613 22.937
10.5765 22.953
10.5917 22.865
10.6069 22.858
10.6220 22.324
10.6372 22.294
10.6524 22.639
10.6676 22.595
10.6827 22.737
10.6979 22.644
10.7131 22.471
10.7283 22.724
10.7434 22.626
10.7586 22.709
10.7738 22.543
10.7890 22.267
10.8041 22.273
10.8193 22.363
10.8345 21.982
10.8497 22.087
10.8648 22.356
10.8800 22.366
10.8952 22.224
10.9104 22.124
10.9255 22.125
10.9407 22.382
10.9559 22.176
10.9711 22.098
10.9862 22.359
11.0014 22.171
11.0166 22.062
11.0318 21.878
11.0469 21.748
11.0621 21.694
11.0773 21.673
11.0925 22.026
11.1076 21.885
11.1228 21.481
11.1380 21.851
11.1532 21.739
11.1683 21.676
11.1835 21.681
11.1987 21.874
11.2139 21.473
11.2290 21.440
11.2442 21.644
11.2594 21.491
11.2746 21.595
11.2897 21.650
11.3049 21.540
11.3201 21.226
11.3353 21.532
11.3504 21.623
11.3656 21.734
11.3808 21.654
11.3960 21.523
11.4111 21.371
11.4263 21.194
11.4415 21.332
11.4567 21.244
11.4718 21.291
11.4870 21.129
11.5022 21.301
11.5174 21.459
11.5325 21.436
11.5477 21.665
11.5629 21.056
11.5781 21.136
11.5932 21.274
11.6084 21.069
11.6236 20.964
11.6388 20.964
11.6539 20.907
11.6691 20.729
11.6843 20.610
11.6995 20.470
11.7146 20.745
11.7298 20.850
11.7450 20.395
11.7602 20.460
11.7753 19.938
11.7905 20.066
11.8057 20.026
11.8209 20.207
11.8360 20.223
11.8512 19.865
11.8664 19.755
11.8816 19.578
11.8967 19.955
11.9119 19.821
11.9271 19.476
11.9423 19.557
11.9574 19.651
11.9726 19.200
11.9878 18.959
12.0030 19.178
12.0181 19.022
12.0333 19.135
12.0485 18.970
12.0637 18.961
12.0788 19.117
12.0940 19.091
12.1092 18.671
12.1244 18.396
12.1395 18.508
12.1547 18.367
12.1699 18.266
12.1851 18.431
12.2002 18.556
12.2154 18.430
12.2306 18.131
12.2458 18.098
12.2609 18.059
12.2761 17.783
12.2913 17.900
12.3065 17.931
12.3216 17.833
12.3368 17.583
12.3520 17.533
12.3672 17.539
12.3823 17.314
12.3975 17.464
12.4127 17.518
12.4279 17.148
12.4430 16.834
12.4582 16.782
12.4734 16.724
12.4886 16.913
12.5037 16.762
12.5189 16.529
12.5341 16.464
12.5493 16.410
12.5644 16.375
12.5796 16.482
12.5948 16.158
12.6100 15.762
12.6251 15.549
12.6403 15.625
12.6555 15.775
12.6707 15.741
12.6858 15.729
12.7010 15.546
12.7162 15.633
12.7314 15.476
12.7465 15.380
12.7617 15.498
12.7769 15.380
12.7921 15.247
12.8072 15.266
12.8224 15.099
12.8376 14.627
12.8528 14.561
12.8679 14.772
12.8831 14.681
12.8983 14.494
12.9135 14.498
12.9286 14.639
12.9438 14.666
12.9590 14.455
12.9742 14.394
12.9893 14.377
13.0045 14.278
13.0197 14.048
13.0349 13.877
13.0500 13.793
13.0652 13.893
13.0804 14.125
13.0956 13.985
13.1107 13.765
13.1259 13.589
13.1411 13.683
13.1563 13.819
13.1714 13.654
13.1866 13.477
13.2018 13.574
13.2170 13.728
13.2321 13.736
13.2473 13.549
13.2625 13.263
13.2777 13.387
13.2928 13.258
13.3080 13.131
13.3232 13.324
13.3384 13.225
13.3535 13.003
13.3687 12.808
13.3839 12.950
13.3991 13.150
13.4142 12.975
13.4294 12.798
13.4446 12.806
13.4598 12.774
13.4749 12.744
13.4901 12.708
13.5053 12.461
13.5205 12.339
13.5356 12.225
13.5508 12.171
13.5660 12.088
13.5812 12.054
13.5963 12.182
13.6115 12.372
13.6267 12.218
13.6419 12.157
13.6570 12.263
13.6722 12.040
13.6874 11.826
13.7026 11.726
13.7177 12.000
13.7329 11.961
13.7481 11.634
13.7633 11.783
13.7784 11.885
13.7936 11.855
13.8088 12.007
13.8239 11.988
13.8391 12.223
13.8543 12.298
13.8695 12.426
13.8846 12.422
13.8998 11.921
13.9150 12.143
13.9302 12.281
13.9453 12.096
13.9605 11.937
13.9757 11.768
13.9909 11.641
14.0060 11.846
14.0212 11.668
14.0364 11.498
14.0516 11.472
14.0667 11.405
14.0819 11.684
14.0971 11.203
14.1123 11.227
14.1274 11.420
14.1426 11.260
14.1578 11.180
14.1730 11.198
14.1881 11.374
14.2033 11.592
14.2185 11.405
14.2337 11.312
14.2488 11.375
14.2640 11.425
14.2792 11.210
14.2944 11.406
14.3095 11.733
14.3247 11.789
14.3399 12.259
14.3551 12.219
14.3702 12.468
14.3854 12.786
14.4006 13.016
14.4158 13.085
14.4309 13.373
14.4461 13.838
14.4613 13.832
14.4765 13.816
14.4916 13.496
14.5068 13.578
14.5220 13.970
14.5372 13.413
14.5523 13.102
14.5675 12.764
14.5827 12.810
14.5979 12.550
14.6130 12.319
14.6282 12.187
14.6434 11.824
14.6586 11.550
14.6737 11.796
14.6889 11.492
14.7041 11.297
14.7193 11.459
14.7344 11.133
14.7496 11.555
14.7648 11.340
14.7800 11.347
14.7951 11.554
14.8103 11.549
14.8255 11.206
14.8407 11.030
14.8558 11.062
14.8710 11.453
14.8862 10.969
14.9014 10.932
14.9165 11.146
14.9317 11.285
14.9469 10.849
14.9621 10.846
14.9772 10.580
14.9924 10.791
15.0076 10.632
15.0228 10.658
15.0379 10.772
15.0531 10.283
15.0683 10.514
15.0835 10.519
15.0986 10.610
15.1138 10.580
15.1290 10.479
15.1442 10.295
15.1593 10.327
15.1745 10.580
15.1897 10.736
15.2049 10.437
15.2200 10.623
15.2352 10.678
15.2504 10.271
15.2656 10.507
15.2807 10.077
15.2959 10.113
15.3111 10.410
15.3263 10.425
15.3414 10.226
15.3566 10.098
15.3718 10.401
15.3870 10.451
15.4021 10.499
15.4173 10.492
15.4325 10.129
15.4477 10.301
15.4628 10.386
15.4780 10.540
15.4932 10.332
15.5084 10.345
15.5235 10.334
15.5387 10.363
15.5539 10.314
15.5691 10.201
15.5842 10.432
15.5994 10.268
15.6146 10.139
15.6298 10.291
15.6449 10.300
15.6601 10.336
15.6753 9.902
15.6905 9.803
15.7056 10.121
15.7208 10.089
15.7360 10.140
15.7512 9.968
15.7663 9.969
15.7815 9.553
15.7967 9.789
15.8119 10.004
15.8270 9.690
15.8422 9.729
15.8574 9.773
15.8726 9.660
15.8877 9.953
15.9029 9.714
15.9181 9.526
15.9333 9.613
15.9484 9.717
15.9636 9.954
15.9788 9.829
15.9940 9.790
16.0091 9.874
16.0243 9.591
16.0395 10.046
16.0547 9.688
16.0698 9.598
16.0850 9.907
16.1002 9.648
16.1154 9.522
16.1305 9.673
16.1457 9.664
16.1609 9.644
16.1761 9.897
16.1912 9.970
16.2064 10.024
16.2216 9.627
16.2368 9.716
16.2519 9.921
16.2671 9.900
16.2823 9.846
16.2975 10.231
16.3126 9.964
16.3278 10.025
16.3430 10.320
16.3582 10.224
16.3733 10.153
16.3885 10.414
16.4037 10.361
16.4189 10.335
16.4340 10.225
16.4492 10.130
16.4644 10.163
16.4796 10.052
16.4947 9.903
16.5099 9.781
16.5251 9.963
16.5403 9.823
16.5554 9.918
16.5706 9.768
16.5858 9.869
16.6010 9.967
16.6161 9.778
16.6313 9.766
16.6465 9.995
16.6617 10.014
16.6768 9.910
16.6920 9.962
16.7072 9.816
16.7224 10.100
16.7375 10.114
16.7527 9.968
16.7679 9.712
16.7831 9.897
16.7982 10.049
16.8134 10.047
16.8286 9.988
16.8438 9.951
16.8589 9.833
16.8741 9.863
16.8893 9.934
16.9045 9.998
16.9196 9.886
16.9348 9.718
16.9500 9.782
16.9652 9.882
16.9803 9.947
16.9955 9.974
17.0107 10.024
17.0259 10.090
17.0410 10.082
17.0562 10.193
17.0714 10.384
17.0866 10.506
17.1017 10.743
17.1169 10.840
17.1321 11.135
17.1473 11.628
17.1624 11.965
17.1776 12.391
17.1928 12.937
17.2080 13.867
17.2231 14.869
17.2383 16.113
17.2535 17.351
17.2687 18.501
17.2838 18.811
17.2990 17.927
17.3142 17.114
17.3294 16.515
17.3445 16.085
17.3597 16.052
17.3749 16.042
17.3901 15.382
17.4052 14.354
17.4204 13.344
17.4356 12.336
17.4508 11.750
17.4659 11.492
17.4811 11.293
17.4963 11.159
17.5115 11.178
17.5266 11.025
17.5418 10.536
17.5570 10.485
17.5722 10.473
17.5873 10.304
17.6025 10.263
17.6177 10.119
17.6329 9.958
17.6480 10.043
17.6632 10.295
17.6784 10.347
17.6936 10.404
17.7087 10.456
17.7239 10.605
17.7391 10.907
17.7543 10.939
17.7694 11.020
17.7846 11.439
17.7998 11.753
17.8150 12.331
17.8301 12.703
17.8453 12.421
17.8605 12.463
17.8757 12.517
17.8908 12.790
17.9060 12.780
17.9212 12.469
17.9364 12.213
17.9515 11.892
17.9667 11.644
17.9819 11.540
17.9971 11.408
18.0122 11.015
18.0274 10.799
18.0426 10.634
18.0578 10.637
18.0729 10.469
18.0881 10.307
18.1033 10.142
18.1185 10.082
18.1336 10.249
18.1488 10.134
18.1640 10.155
18.1792 10.396
18.1943 10.211
18.2095 9.947
18.2247 10.110
18.2399 10.183
18.2550 10.177
18.2702 10.176
18.2854 10.087
18.3006 9.887
18.3157 10.016
18.3309 9.986
18.3461 9.892
18.3613 9.826
18.3764 9.728
18.3916 9.779
18.4068 9.761
18.4220 9.842
18.4371 9.763
18.4523 9.911
18.4675 9.931
18.4827 9.962
18.4978 9.879
18.5130 9.960
18.5282 10.113
18.5434 9.879
18.5585 9.947
18.5737 10.089
18.5889 9.780
18.6041 9.636
18.6192 9.820
18.6344 9.826
18.6496 9.817
18.6648 9.716
18.6799 9.879
18.6951 9.763
18.7103 9.880
18.7255 9.873
18.7406 9.739
18.7558 9.715
18.7710 9.718
18.7862 9.804
18.8013 9.648
18.8165 9.757
18.8317 9.957
18.8469 9.820
18.8620 10.053
18.8772 10.017
18.8924 10.134
18.9076 10.182
18.9227 10.110
18.9379 10.131
18.9531 10.091
18.9683 9.863
18.9834 9.927
18.9986 10.319
19.0138 10.431
19.0290 10.183
19.0441 10.378
19.0593 10.463
19.0745 10.455
19.0897 10.619
19.1048 10.574
19.1200 10.309
19.1352 10.401
19.1504 10.655
19.1655 10.717
19.1807 10.634
19.1959 10.627
19.2111 10.479
19.2262 10.664
19.2414 10.954
19.2566 11.096
19.2718 10.956
19.2869 10.760
19.3021 10.842
19.3173 11.174
19.3325 11.106
19.3476 11.102
19.3628 11.295
19.3780 11.087
19.3932 10.937
19.4083 11.017
19.4235 10.896
19.4387 11.086
19.4539 11.305
19.4690 11.277
19.4842 11.458
19.4994 11.549
19.5146 11.459
19.5297 11.374
19.5449 11.598
19.5601 11.845
19.5753 11.742
19.5904 11.655
19.6056 11.668
19.6208 11.665
19.6360 11.622
19.6511 11.656
19.6663 11.612
19.6815 11.598
19.6967 11.689
19.7118 11.767
19.7270 11.718
19.7422 11.562
19.7574 11.682
19.7725 11.943
19.7877 11.952
19.8029 12.036
19.8180 12.006
19.8332 11.861
19.8484 11.979
19.8636 12.228
19.8787 12.260
19.8939 12.414
19.9091 12.923
19.9243 13.276
19.9394 13.788
19.9546 14.048
19.9698 14.191
19.9850 14.593
20.0001 14.645
20.0153 14.511
20.0305 14.304
20.0457 14.107
20.0608 13.876
20.0760 13.659
20.0912 13.466
20.1064 13.449
20.1215 13.314
20.1367 13.090
20.1519 13.347
20.1671 12.834
20.1822 12.494
20.1974 12.608
20.2126 12.494
20.2278 12.574
20.2429 12.525
20.2581 12.206
20.2733 12.003
20.2885 11.786
20.3036 11.569
20.3188 11.588
20.3340 11.711
20.3492 11.693
20.3643 11.446
20.3795 11.381
20.3947 11.226
20.4099 10.980
20.4250 10.961
20.4402 11.043
20.4554 11.076
20.4706 10.958
20.4857 10.901
20.5009 10.991
20.5161 10.955
20.5313 10.959
20.5464 10.919
20.5616 11.028
20.5768 11.157
20.5920 11.013
20.6071 10.851
20.6223 11.020
20.6375 10.831
20.6527 11.014
20.6678 10.921
20.6830 10.941
20.6982 10.852
20.7134 10.631
20.7285 10.621
20.7437 10.635
20.7589 10.848
20.7741 10.845
20.7892 10.583
20.8044 10.513
20.8196 10.217
20.8348 10.348
20.8499 10.395
20.8651 10.621
20.8803 10.631
20.8955 10.498
20.9106 10.501
20.9258 10.694
20.9410 10.518
20.9562 10.762
20.9713 10.620
20.9865 10.721
21.0017 10.567
21.0169 10.308
21.0320 10.249
21.0472 10.629
21.0624 10.322
21.0776 10.250
21.0927 10.137
21.1079 10.329
21.1231 10.251
21.1383 10.034
21.1534 10.246
21.1686 10.132
21.1838 10.158
21.1990 9.750
21.2141 9.699
21.2293 9.660
21.2445 10.013
21.2597 9.912
21.2748 9.928
21.2900 9.756
21.3052 9.397
21.3204 9.733
21.3355 9.416
21.3507 9.343
21.3659 9.410
21.3811 9.274
21.3962 9.447
21.4114 9.496
21.4266 9.481
21.4418 9.284
21.4569 9.872
21.4721 9.392
21.4873 9.423
21.5025 9.287
21.5176 9.003
21.5328 9.094
21.5480 8.890
21.5632 8.994
21.5783 9.269
21.5935 9.329
21.6087 9.336
21.6239 9.155
21.6390 9.227
21.6542 9.055
21.6694 9.114
21.6846 9.412
21.6997 9.182
21.7149 8.742
21.7301 8.841
21.7453 8.932
21.7604 8.935
21.7756 9.129
21.7908 9.075
21.8060 8.907
21.8211 8.918
21.8363 8.922
21.8515 8.982
21.8667 9.102
21.8818 8.926
21.8970 8.958
21.9122 9.098
21.9274 8.895
21.9425 8.716
21.9577 8.684
21.9729 8.793
21.9881 9.000
22.0032 8.835
22.0184 8.755
22.0336 8.675
22.0488 8.729
22.0639 8.850
22.0791 8.879
22.0943 8.671
22.1095 8.756
22.1246 8.612
22.1398 8.535
22.1550 8.431
22.1702 8.639
22.1853 8.733
22.2005 8.707
22.2157 8.519
22.2309 8.443
22.2460 8.316
22.2612 8.390
22.2764 8.562
22.2916 8.643
22.3067 8.542
22.3219 8.476
22.3371 8.467
22.3523 8.482
22.3674 8.460
22.3826 8.437
22.3978 8.481
22.4130 8.421
22.4281 8.248
22.4433 8.495
22.4585 8.569
22.4737 8.515
22.4888 8.664
22.5040 8.631
22.5192 8.566
22.5344 8.637
22.5495 8.357
22.5647 8.631
22.5799 8.598
22.5951 8.394
22.6102 8.392
22.6254 8.397
22.6406 8.385
22.6558 8.316
22.6709 8.540
22.6861 8.484
22.7013 8.262
22.7165 8.052
22.7316 6.449
