'Id: "" Comment: "" Operator: "Lab Manager" Anode: "Mo" Scantype: "Still (Eiger2R_500K (1D mode))" TimePerStep: "300" X: "11.8" Y: "9.4" Z: "11.284" 
7.2532 18.650
7.2684 18.844
7.2836 18.311
7.2987 18.512
7.3139 18.960
7.3291 18.625
7.3443 18.593
7.3594 19.275
7.3746 18.951
7.3898 19.023
7.4050 18.696
7.4201 19.184
7.4353 19.269
7.4505 19.348
7.4657 19.250
7.4808 19.453
7.4960 19.440
7.5112 19.482
7.5264 19.295
7.5415 19.809
7.5567 19.842
7.5719 19.775
7.5871 19.749
7.6022 19.713
7.6174 19.731
7.6326 20.068
7.6478 20.270
7.6629 20.213
7.6781 20.172
7.6933 19.918
7.7085 20.066
7.7236 20.475
7.7388 20.811
7.7540 20.662
7.7692 20.432
7.7843 20.513
7.7995 20.924
7.8147 20.713
7.8299 20.611
7.8450 20.390
7.8602 20.107
7.8754 20.338
7.8905 20.637
7.9057 20.808
7.9209 20.532
7.9361 20.359
7.9512 20.296
7.9664 21.086
7.9816 21.161
7.9968 21.090
8.0119 21.110
8.0271 21.028
8.0423 20.798
8.0575 21.014
8.0726 21.170
8.0878 20.951
8.1030 21.134
8.1182 21.339
8.1333 21.070
8.1485 21.202
8.1637 20.934
8.1789 21.124
8.1940 21.703
8.2092 21.672
8.2244 20.990
8.2396 21.233
8.2547 21.332
8.2699 21.442
8.2851 21.341
8.3003 21.386
8.3154 21.541
8.3306 21.257
8.3458 21.148
8.3610 20.986
8.3761 21.770
8.3913 21.804
8.4065 22.270
8.4217 21.451
8.4368 21.781
8.4520 22.045
8.4672 21.863
8.4824 22.237
8.4975 21.660
8.5127 21.934
8.5279 22.211
8.5431 21.873
8.5582 21.775
8.5734 21.850
8.5886 22.243
8.6038 22.097
8.6189 22.197
8.6341 21.805
8.6493 22.210
8.6645 22.043
8.6796 22.100
8.6948 21.908
8.7100 22.112
8.7252 22.136
8.7403 22.106
8.7555 22.160
8.7707 22.170
8.7859 22.199
8.8010 22.172
8.8162 22.335
8.8314 22.056
8.8466 22.375
8.8617 22.548
8.8769 22.457
8.8921 22.273
8.9073 21.994
8.9224 22.319
8.9376 22.209
8.9528 22.517
8.9680 22.705
8.9831 22.243
8.9983 22.458
9.0135 22.656
9.0287 22.471
9.0438 22.607
9.0590 22.309
9.0742 21.870
9.0894 22.470
9.1045 23.107
9.1197 22.756
9.1349 22.631
9.1501 22.869
9.1652 22.692
9.1804 22.576
9.1956 22.570
9.2108 22.863
9.2259 22.834
9.2411 22.689
9.2563 23.076
9.2715 22.923
9.2866 22.763
9.3018 22.959
9.3170 23.031
9.3322 22.843
9.3473 22.857
9.3625 23.097
9.3777 22.803
9.3929 22.960
9.4080 22.938
9.4232 22.735
9.4384 22.949
9.4536 23.020
9.4687 22.644
9.4839 22.657
9.4991 23.072
9.5143 23.341
9.5294 23.273
9.5446 22.726
9.5598 22.778
9.5750 23.369
9.5901 23.505
9.6053 23.150
9.6205 22.974
9.6357 23.059
9.6508 23.164
9.6660 23.395
9.6812 23.572
9.6964 23.617
9.7115 23.573
9.7267 23.573
9.7419 23.768
9.7571 23.984
9.7722 23.765
9.7874 23.475
9.8026 23.696
9.8178 23.612
9.8329 23.277
9.8481 23.167
9.8633 23.325
9.8785 23.495
9.8936 23.303
9.9088 23.096
9.9240 23.047
9.9392 22.968
9.9543 23.189
9.9695 23.507
9.9847 23.210
9.9999 23.174
10.0150 23.491
10.0302 23.154
10.0454 22.838
10.0606 22.771
10.0757 22.956
10.0909 22.949
10.1061 23.135
10.1213 23.078
10.1364 22.963
10.1516 22.978
10.1668 22.967
10.1820 23.103
10.1971 23.196
10.2123 23.051
10.2275 22.915
10.2427 22.801
10.2578 22.780
10.2730 22.803
10.2882 22.726
10.3034 22.784
10.3185 22.971
10.3337 22.891
10.3489 22.468
10.3641 22.701
10.3792 22.678
10.3944 22.580
10.4096 22.624
10.4248 22.741
10.4399 22.721
10.4551 22.135
10.4703 22.486
10.4855 22.455
10.5006 22.332
10.5158 22.508
10.5310 22.409
10.5462 22.436
10.5613 22.655
10.5765 22.374
10.5917 22.406
10.6069 22.517
10.6220 22.861
10.6372 22.613
10.6524 22.490
10.6676 22.538
10.6827 22.156
10.6979 22.321
10.7131 21.968
10.7283 22.042
10.7434 21.928
10.7586 22.351
10.7738 22.510
10.7890 22.163
10.8041 22.168
10.8193 22.083
10.8345 21.871
10.8497 21.788
10.8648 22.162
10.8800 21.955
10.8952 22.081
10.9104 22.407
10.9255 21.906
10.9407 22.073
10.9559 21.689
10.9711 21.665
10.9862 21.878
11.0014 21.626
11.0166 21.446
11.0318 21.851
11.0469 21.670
11.0621 22.045
11.0773 21.919
11.0925 21.732
11.1076 21.624
11.1228 21.624
11.1380 21.296
11.1532 21.591
11.1683 21.973
11.1835 21.749
11.1987 21.764
11.2139 21.598
11.2290 21.412
11.2442 21.214
11.2594 21.318
11.2746 21.480
11.2897 21.574
11.3049 21.211
11.3201 21.223
11.3353 20.785
11.3504 21.021
11.3656 21.382
11.3808 21.282
11.3960 21.380
11.4111 21.317
11.4263 21.054
11.4415 21.201
11.4567 21.246
11.4718 20.872
11.4870 20.828
11.5022 20.853
11.5174 21.006
11.5325 20.979
11.5477 21.046
11.5629 21.165
11.5781 21.241
11.5932 21.072
11.6084 20.689
11.6236 20.880
11.6388 20.866
11.6539 20.644
11.6691 20.557
11.6843 20.751
11.6995 20.745
11.7146 20.739
11.7298 20.187
11.7450 20.146
11.7602 20.101
11.7753 20.075
11.7905 20.131
11.8057 20.220
11.8209 19.974
11.8360 20.198
11.8512 20.189
11.8664 19.908
11.8816 19.651
11.8967 19.905
11.9119 19.715
11.9271 19.403
11.9423 19.312
11.9574 18.951
11.9726 19.250
11.9878 19.434
12.0030 19.183
12.0181 19.219
12.0333 18.921
12.0485 18.363
12.0637 18.834
12.0788 19.169
12.0940 18.720
12.1092 18.408
12.1244 18.610
12.1395 18.739
12.1547 18.426
12.1699 18.150
12.1851 18.306
12.2002 18.303
12.2154 18.078
12.2306 18.189
12.2458 17.960
12.2609 17.889
12.2761 17.785
12.2913 17.680
12.3065 17.678
12.3216 17.900
12.3368 17.697
12.3520 17.356
12.3672 17.237
12.3823 17.067
12.3975 16.939
12.4127 17.024
12.4279 16.957
12.4430 16.980
12.4582 16.948
12.4734 16.795
12.4886 16.661
12.5037 16.814
12.5189 16.563
12.5341 16.490
12.5493 16.545
12.5644 16.276
12.5796 16.154
12.5948 16.102
12.6100 15.934
12.6251 16.042
12.6403 15.802
12.6555 15.712
12.6707 15.878
12.6858 15.564
12.7010 15.693
12.7162 15.783
12.7314 15.638
12.7465 15.539
12.7617 15.476
12.7769 15.252
12.7921 15.367
12.8072 15.297
12.8224 14.816
12.8376 14.614
12.8528 14.514
12.8679 14.593
12.8831 14.642
12.8983 14.540
12.9135 14.648
12.9286 14.492
12.9438 14.045
12.9590 14.136
12.9742 14.512
12.9893 14.413
13.0045 14.403
13.0197 14.178
13.0349 13.963
13.0500 13.985
13.0652 14.017
13.0804 13.946
13.0956 13.645
13.1107 13.362
13.1259 13.429
13.1411 13.665
13.1563 13.679
13.1714 13.735
13.1866 13.693
13.2018 13.689
13.2170 13.332
13.2321 13.119
13.2473 13.408
13.2625 13.374
13.2777 13.275
13.2928 13.118
13.3080 13.038
13.3232 13.118
13.3384 13.098
13.3535 12.894
13.3687 12.866
13.3839 12.952
13.3991 13.051
13.4142 13.060
13.4294 12.960
13.4446 12.848
13.4598 12.622
13.4749 12.699
13.4901 12.515
13.5053 12.313
13.5205 12.332
13.5356 12.456
13.5508 12.424
13.5660 12.325
13.5812 12.125
13.5963 11.788
13.6115 11.769
13.6267 12.182
13.6419 12.350
13.6570 12.179
13.6722 12.082
13.6874 11.790
13.7026 11.715
13.7177 11.888
13.7329 12.147
13.7481 11.803
13.7633 11.818
13.7784 12.184
13.7936 12.204
13.8088 12.074
13.8239 12.300
13.8391 12.451
13.8543 12.320
13.8695 12.406
13.8846 12.262
13.8998 12.116
13.9150 12.506
13.9302 12.455
13.9453 12.159
13.9605 11.997
13.9757 11.723
13.9909 11.793
14.0060 11.809
14.0212 11.409
14.0364 11.232
14.0516 11.511
14.0667 11.814
14.0819 11.829
14.0971 11.502
14.1123 11.451
14.1274 11.687
14.1426 11.857
14.1578 11.631
14.1730 11.887
14.1881 11.842
14.2033 11.960
14.2185 11.614
14.2337 11.532
14.2488 11.729
14.2640 11.687
14.2792 11.856
14.2944 11.913
14.3095 11.979
14.3247 12.136
14.3399 12.343
14.3551 12.622
14.3702 12.666
14.3854 12.786
14.4006 12.944
14.4158 13.258
14.4309 13.058
14.4461 12.665
14.4613 12.657
14.4765 12.486
14.4916 12.090
14.5068 11.909
14.5220 11.726
14.5372 11.704
14.5523 11.553
14.5675 11.169
14.5827 10.932
14.5979 10.917
14.6130 10.609
14.6282 10.962
14.6434 10.893
14.6586 10.578
14.6737 10.442
14.6889 10.663
14.7041 10.785
14.7193 10.784
14.7344 10.702
14.7496 10.578
14.7648 10.628
14.7800 10.320
14.7951 10.580
14.8103 10.475
14.8255 10.847
14.8407 10.531
14.8558 10.623
14.8710 10.472
14.8862 10.380
14.9014 10.578
14.9165 10.512
14.9317 10.876
14.9469 10.581
14.9621 10.083
14.9772 10.068
14.9924 10.334
15.0076 10.235
15.0228 10.304
15.0379 10.702
15.0531 10.368
15.0683 9.923
15.0835 10.056
15.0986 10.160
15.1138 9.994
15.1290 10.124
15.1442 10.165
15.1593 10.217
15.1745 10.010
15.1897 10.292
15.2049 10.345
15.2200 9.931
15.2352 9.986
15.2504 10.067
15.2656 10.143
15.2807 9.879
15.2959 10.017
15.3111 10.462
15.3263 10.138
15.3414 9.999
15.3566 9.989
15.3718 9.910
15.3870 10.304
15.4021 10.236
15.4173 9.818
15.4325 10.164
15.4477 10.132
15.4628 10.041
15.4780 10.240
15.4932 10.251
15.5084 9.951
15.5235 9.962
15.5387 10.089
15.5539 9.953
15.5691 9.980
15.5842 10.139
15.5994 10.060
15.6146 9.995
15.6298 9.975
15.6449 9.890
15.6601 9.932
15.6753 9.776
15.6905 9.731
15.7056 9.717
15.7208 9.825
15.7360 9.762
15.7512 9.723
15.7663 9.464
15.7815 9.773
15.7967 9.656
15.8119 9.751
15.8270 9.623
15.8422 9.540
15.8574 9.433
15.8726 9.726
15.8877 9.485
15.9029 9.228
15.9181 9.690
15.9333 9.714
15.9484 9.541
15.9636 9.274
15.9788 9.721
15.9940 9.753
16.0091 9.598
16.0243 9.473
16.0395 9.579
16.0547 9.670
16.0698 9.572
16.0850 9.617
16.1002 9.345
16.1154 9.533
16.1305 9.311
16.1457 9.393
16.1609 9.507
16.1761 9.645
16.1912 9.781
16.2064 9.594
16.2216 9.484
16.2368 9.585
16.2519 9.695
16.2671 9.775
16.2823 9.827
16.2975 9.725
16.3126 9.766
16.3278 9.713
16.3430 9.786
16.3582 9.809
16.3733 9.851
16.3885 9.787
16.4037 9.807
16.4189 9.759
16.4340 9.674
16.4492 9.723
16.4644 9.544
16.4796 9.517
16.4947 9.604
16.5099 9.843
16.5251 9.714
16.5403 9.598
16.5554 9.595
16.5706 9.341
16.5858 9.337
16.6010 9.501
16.6161 9.814
16.6313 9.719
16.6465 9.679
16.6617 9.693
16.6768 9.807
16.6920 10.077
16.7072 9.896
16.7224 9.894
16.7375 10.074
16.7527 10.119
16.7679 9.876
16.7831 9.774
16.7982 9.733
16.8134 9.683
16.8286 9.723
16.8438 9.751
16.8589 9.761
16.8741 9.699
16.8893 9.619
16.9045 9.756
16.9196 9.856
16.9348 9.848
16.9500 9.797
16.9652 9.721
16.9803 9.753
16.9955 9.973
17.0107 9.986
17.0259 9.928
17.0410 10.096
17.0562 10.044
17.0714 10.110
17.0866 10.326
17.1017 10.551
17.1169 10.612
17.1321 10.891
17.1473 11.097
17.1624 11.435
17.1776 12.350
17.1928 13.035
17.2080 13.852
17.2231 15.119
17.2383 16.426
17.2535 17.620
17.2687 18.510
17.2838 18.686
17.2990 17.988
17.3142 16.796
17.3294 16.051
17.3445 16.026
17.3597 16.145
17.3749 15.925
17.3901 15.228
17.4052 14.232
17.4204 13.425
17.4356 12.679
17.4508 12.191
17.4659 11.960
17.4811 11.476
17.4963 11.326
17.5115 11.104
17.5266 10.870
17.5418 10.885
17.5570 10.955
17.5722 11.148
17.5873 11.143
17.6025 11.073
17.6177 10.978
17.6329 11.136
17.6480 11.364
17.6632 11.292
17.6784 11.332
17.6936 11.500
17.7087 11.384
17.7239 11.177
17.7391 11.148
17.7543 10.971
17.7694 10.839
17.7846 10.904
17.7998 10.872
17.8150 10.587
17.8301 10.410
17.8453 10.462
17.8605 10.412
17.8757 10.282
17.8908 10.321
17.9060 10.402
17.9212 10.156
17.9364 10.182
17.9515 10.243
17.9667 10.140
17.9819 10.112
17.9971 10.235
18.0122 10.272
18.0274 10.293
18.0426 10.198
18.0578 10.067
18.0729 10.141
18.0881 10.157
18.1033 9.931
18.1185 10.012
18.1336 10.029
18.1488 9.871
18.1640 9.964
18.1792 10.076
18.1943 9.958
18.2095 10.043
18.2247 9.755
18.2399 9.761
18.2550 9.961
18.2702 9.822
18.2854 9.830
18.3006 9.797
18.3157 9.847
18.3309 9.995
18.3461 9.858
18.3613 9.589
18.3764 9.654
18.3916 9.920
18.4068 9.889
18.4220 9.828
18.4371 9.789
18.4523 9.732
18.4675 9.787
18.4827 9.612
18.4978 9.639
18.5130 9.874
18.5282 9.835
18.5434 9.726
18.5585 9.718
18.5737 9.759
18.5889 9.581
18.6041 9.551
18.6192 9.697
18.6344 9.871
18.6496 9.740
18.6648 9.839
18.6799 9.695
18.6951 9.666
18.7103 10.040
18.7255 10.065
18.7406 9.781
18.7558 9.791
18.7710 9.910
18.7862 9.826
18.8013 9.535
18.8165 9.615
18.8317 9.958
18.8469 10.037
18.8620 9.950
18.8772 9.995
18.8924 9.956
18.9076 9.860
18.9227 10.017
18.9379 9.910
18.9531 9.726
18.9683 9.784
18.9834 10.146
18.9986 10.242
19.0138 10.196
19.0290 10.182
19.0441 10.170
19.0593 10.239
19.0745 10.167
19.0897 10.190
19.1048 10.209
19.1200 10.392
19.1352 10.238
19.1504 10.101
19.1655 10.362
19.1807 10.493
19.1959 10.544
19.2111 10.812
19.2262 10.880
19.2414 10.474
19.2566 10.435
19.2718 10.726
19.2869 10.749
19.3021 10.838
19.3173 10.988
19.3325 10.934
19.3476 10.906
19.3628 11.124
19.3780 11.212
19.3932 11.262
19.4083 11.208
19.4235 11.146
19.4387 11.241
19.4539 11.275
19.4690 11.366
19.4842 11.258
19.4994 11.075
19.5146 11.034
19.5297 11.398
19.5449 11.576
19.5601 11.527
19.5753 11.761
19.5904 11.953
19.6056 11.824
19.6208 11.909
19.6360 11.842
19.6511 11.436
19.6663 11.256
19.6815 11.593
19.6967 11.858
19.7118 11.737
19.7270 11.677
19.7422 11.555
19.7574 11.557
19.7725 11.584
19.7877 11.611
19.8029 11.794
19.8180 12.062
19.8332 12.128
19.8484 12.136
19.8636 12.377
19.8787 12.691
19.8939 12.641
19.9091 12.768
19.9243 13.337
19.9394 13.649
19.9546 14.085
19.9698 14.254
19.9850 14.229
20.0001 14.432
20.0153 14.198
20.0305 13.758
20.0457 13.719
20.0608 13.876
20.0760 13.704
20.0912 13.628
20.1064 13.676
20.1215 13.551
20.1367 13.264
20.1519 13.081
20.1671 13.081
20.1822 13.203
20.1974 12.859
20.2126 12.878
20.2278 12.768
20.2429 12.414
20.2581 12.152
20.2733 12.020
20.2885 11.977
20.3036 12.138
20.3188 12.158
20.3340 12.136
20.3492 12.191
20.3643 12.085
20.3795 12.107
20.3947 11.974
20.4099 12.011
20.4250 11.975
20.4402 11.979
20.4554 11.969
20.4706 11.964
20.4857 11.843
20.5009 11.585
20.5161 11.655
20.5313 11.341
20.5464 11.143
20.5616 11.007
20.5768 11.014
20.5920 10.968
20.6071 10.961
20.6223 10.913
20.6375 11.003
20.6527 10.692
20.6678 10.700
20.6830 10.527
20.6982 10.367
20.7134 10.687
20.7285 10.391
20.7437 10.397
20.7589 10.449
20.7741 10.477
20.7892 10.353
20.8044 10.214
20.8196 10.300
20.8348 10.403
20.8499 10.591
20.8651 9.914
20.8803 10.282
20.8955 10.097
20.9106 10.042
20.9258 9.989
20.9410 10.048
20.9562 9.854
20.9713 10.191
20.9865 10.046
21.0017 9.653
21.0169 10.096
21.0320 10.318
21.0472 9.959
21.0624 9.885
21.0776 9.975
21.0927 9.820
21.1079 9.748
21.1231 9.719
21.1383 9.973
21.1534 9.732
21.1686 9.728
21.1838 9.476
21.1990 9.816
21.2141 9.785
21.2293 9.807
21.2445 9.136
21.2597 9.682
21.2748 9.840
21.2900 9.719
21.3052 9.556
21.3204 9.746
21.3355 9.334
21.3507 9.529
21.3659 9.819
21.3811 9.335
21.3962 9.500
21.4114 9.592
21.4266 9.413
21.4418 9.383
21.4569 9.317
21.4721 9.175
21.4873 9.445
21.5025 9.232
21.5176 9.141
21.5328 9.468
21.5480 9.491
21.5632 9.200
21.5783 9.231
21.5935 9.285
21.6087 9.089
21.6239 9.097
21.6390 9.220
21.6542 9.016
21.6694 9.181
21.6846 9.241
21.6997 9.161
21.7149 8.981
21.7301 8.966
21.7453 8.998
21.7604 8.900
21.7756 9.050
21.7908 8.986
21.8060 9.120
21.8211 9.139
21.8363 8.958
21.8515 8.932
21.8667 9.192
21.8818 9.245
21.8970 9.042
21.9122 8.966
21.9274 8.923
21.9425 9.030
21.9577 8.898
21.9729 8.730
21.9881 8.651
22.0032 8.823
22.0184 8.872
22.0336 8.867
22.0488 8.826
22.0639 8.697
22.0791 8.791
22.0943 8.711
22.1095 8.531
22.1246 8.625
22.1398 8.595
22.1550 8.523
22.1702 8.614
22.1853 8.799
22.2005 8.835
22.2157 8.607
22.2309 8.442
22.2460 8.435
22.2612 8.558
22.2764 8.598
22.2916 8.500
22.3067 8.292
22.3219 8.377
22.3371 8.206
22.3523 8.273
22.3674 8.544
22.3826 8.671
22.3978 8.539
22.4130 8.600
22.4281 8.569
22.4433 8.600
22.4585 8.461
22.4737 8.328
22.4888 8.306
22.5040 8.266
22.5192 8.464
22.5344 8.334
22.5495 8.300
22.5647 8.495
22.5799 8.271
22.5951 8.196
22.6102 8.272
22.6254 8.132
22.6406 8.381
22.6558 8.171
22.6709 8.240
22.6861 8.336
22.7013 7.910
22.7165 7.999
22.7316 6.336
