'Id: "" Comment: "" Operator: "Lab Manager" Anode: "Mo" Scantype: "Still (Eiger2R_500K (1D mode))" TimePerStep: "300" X: "11.8" Y: "9.4" Z: "11.284" 
7.2532 18.595
7.2684 19.079
7.2836 18.694
7.2987 18.992
7.3139 18.872
7.3291 19.375
7.3443 19.053
7.3594 19.095
7.3746 18.855
7.3898 19.151
7.4050 19.371
7.4201 19.363
7.4353 19.637
7.4505 19.577
7.4657 19.397
7.4808 19.657
7.4960 19.423
7.5112 19.724
7.5264 19.841
7.5415 19.994
7.5567 19.933
7.5719 19.798
7.5871 20.024
7.6022 19.889
7.6174 20.048
7.6326 20.274
7.6478 20.297
7.6629 20.218
7.6781 20.256
7.6933 19.894
7.7085 19.975
7.7236 20.422
7.7388 20.609
7.7540 20.696
7.7692 20.533
7.7843 20.609
7.7995 20.889
7.8147 21.066
7.8299 20.846
7.8450 20.687
7.8602 20.834
7.8754 20.919
7.8905 21.080
7.9057 21.066
7.9209 20.969
7.9361 20.796
7.9512 20.746
7.9664 21.119
7.9816 20.963
7.9968 20.921
8.0119 21.188
8.0271 21.282
8.0423 21.207
8.0575 21.209
8.0726 21.116
8.0878 21.243
8.1030 21.498
8.1182 21.535
8.1333 21.484
8.1485 21.521
8.1637 21.560
8.1789 21.768
8.1940 21.687
8.2092 21.866
8.2244 21.726
8.2396 21.393
8.2547 21.911
8.2699 21.967
8.2851 21.669
8.3003 21.532
8.3154 21.801
8.3306 21.547
8.3458 21.201
8.3610 22.096
8.3761 21.689
8.3913 21.780
8.4065 21.885
8.4217 21.744
8.4368 21.649
8.4520 22.330
8.4672 21.764
8.4824 22.020
8.4975 22.036
8.5127 22.138
8.5279 22.403
8.5431 22.006
8.5582 22.634
8.5734 21.877
8.5886 22.180
8.6038 22.109
8.6189 22.223
8.6341 22.602
8.6493 22.985
8.6645 22.361
8.6796 22.031
8.6948 22.872
8.7100 22.787
8.7252 22.642
8.7403 22.983
8.7555 23.138
8.7707 22.560
8.7859 22.813
8.8010 22.929
8.8162 22.612
8.8314 22.642
8.8466 22.873
8.8617 22.633
8.8769 22.566
8.8921 23.002
8.9073 22.845
8.9224 22.886
8.9376 22.248
8.9528 22.288
8.9680 22.806
8.9831 23.063
8.9983 23.013
9.0135 22.802
9.0287 23.006
9.0438 22.467
9.0590 22.894
9.0742 22.742
9.0894 23.039
9.1045 22.775
9.1197 23.113
9.1349 22.979
9.1501 23.133
9.1652 23.164
9.1804 23.223
9.1956 23.192
9.2108 23.180
9.2259 22.738
9.2411 22.906
9.2563 22.874
9.2715 23.144
9.2866 23.324
9.3018 23.187
9.3170 23.297
9.3322 22.978
9.3473 23.056
9.3625 23.088
9.3777 23.022
9.3929 23.026
9.4080 23.127
9.4232 22.914
9.4384 23.301
9.4536 23.216
9.4687 23.118
9.4839 23.475
9.4991 23.605
9.5143 23.129
9.5294 22.985
9.5446 23.401
9.5598 23.525
9.5750 23.055
9.5901 23.031
9.6053 23.205
9.6205 23.336
9.6357 23.581
9.6508 23.719
9.6660 23.472
9.6812 23.462
9.6964 23.865
9.7115 24.033
9.7267 24.111
9.7419 24.358
9.7571 24.298
9.7722 24.124
9.7874 23.806
9.8026 23.642
9.8178 23.888
9.8329 23.720
9.8481 23.489
9.8633 23.703
9.8785 23.830
9.8936 23.408
9.9088 23.374
9.9240 23.143
9.9392 23.205
9.9543 23.363
9.9695 23.049
9.9847 23.355
9.9999 23.570
10.0150 23.294
10.0302 23.234
10.0454 23.479
10.0606 23.497
10.0757 23.385
10.0909 23.494
10.1061 23.266
10.1213 23.330
10.1364 23.243
10.1516 23.501
10.1668 23.812
10.1820 23.418
10.1971 23.202
10.2123 23.496
10.2275 23.853
10.2427 23.851
10.2578 23.688
10.2730 23.722
10.2882 23.663
10.3034 23.411
10.3185 23.434
10.3337 23.397
10.3489 23.090
10.3641 23.180
10.3792 23.116
10.3944 22.671
10.4096 22.966
10.4248 22.608
10.4399 22.423
10.4551 22.755
10.4703 22.900
10.4855 22.676
10.5006 22.483
10.5158 22.668
10.5310 22.656
10.5462 22.741
10.5613 22.536
10.5765 22.631
10.5917 23.104
10.6069 22.901
10.6220 22.558
10.6372 22.649
10.6524 22.643
10.6676 22.498
10.6827 22.493
10.6979 22.504
10.7131 22.575
10.7283 22.580
10.7434 22.434
10.7586 22.194
10.7738 22.548
10.7890 22.768
10.8041 22.846
10.8193 22.564
10.8345 22.837
10.8497 22.466
10.8648 21.817
10.8800 21.927
10.8952 22.528
10.9104 22.499
10.9255 21.982
10.9407 21.911
10.9559 22.193
10.9711 22.180
10.9862 21.930
11.0014 22.412
11.0166 22.337
11.0318 21.973
11.0469 21.829
11.0621 22.091
11.0773 22.547
11.0925 22.437
11.1076 22.031
11.1228 22.010
11.1380 22.129
11.1532 22.177
11.1683 22.034
11.1835 21.841
11.1987 21.934
11.2139 21.927
11.2290 21.722
11.2442 21.645
11.2594 22.081
11.2746 22.201
11.2897 21.876
11.3049 21.994
11.3201 21.916
11.3353 21.702
11.3504 21.614
11.3656 21.529
11.3808 21.255
11.3960 21.532
11.4111 21.721
11.4263 21.408
11.4415 21.126
11.4567 21.062
11.4718 21.193
11.4870 21.192
11.5022 21.138
11.5174 20.792
11.5325 20.935
11.5477 21.165
11.5629 20.861
11.5781 20.836
11.5932 20.845
11.6084 20.527
11.6236 20.648
11.6388 20.721
11.6539 20.697
11.6691 20.816
11.6843 20.925
11.6995 20.941
11.7146 20.610
11.7298 20.553
11.7450 20.406
11.7602 20.238
11.7753 20.280
11.7905 20.089
11.8057 20.215
11.8209 19.989
11.8360 20.038
11.8512 20.067
11.8664 20.000
11.8816 20.064
11.8967 20.018
11.9119 19.788
11.9271 19.568
11.9423 19.369
11.9574 19.244
11.9726 19.451
11.9878 19.528
12.0030 19.365
12.0181 19.234
12.0333 19.254
12.0485 19.064
12.0637 18.992
12.0788 18.812
12.0940 18.776
12.1092 18.911
12.1244 19.025
12.1395 18.666
12.1547 18.136
12.1699 18.538
12.1851 18.731
12.2002 18.439
12.2154 18.386
12.2306 18.224
12.2458 17.780
12.2609 18.006
12.2761 18.216
12.2913 17.695
12.3065 17.500
12.3216 17.744
12.3368 17.622
12.3520 17.445
12.3672 17.234
12.3823 17.104
12.3975 17.073
12.4127 17.249
12.4279 17.399
12.4430 17.223
12.4582 17.086
12.4734 16.890
12.4886 16.814
12.5037 16.888
12.5189 16.954
12.5341 16.736
12.5493 16.357
12.5644 16.224
12.5796 16.162
12.5948 16.280
12.6100 16.119
12.6251 16.109
12.6403 16.243
12.6555 16.072
12.6707 15.807
12.6858 15.774
12.7010 15.707
12.7162 15.748
12.7314 15.857
12.7465 15.580
12.7617 15.448
12.7769 15.597
12.7921 15.358
12.8072 15.143
12.8224 15.262
12.8376 15.413
12.8528 15.280
12.8679 14.876
12.8831 14.809
12.8983 14.908
12.9135 14.794
12.9286 14.608
12.9438 14.687
12.9590 14.645
12.9742 14.437
12.9893 14.217
13.0045 14.426
13.0197 14.495
13.0349 14.272
13.0500 14.219
13.0652 14.404
13.0804 14.359
13.0956 13.928
13.1107 13.917
13.1259 13.934
13.1411 13.886
13.1563 13.813
13.1714 13.630
13.1866 13.571
13.2018 13.753
13.2170 13.739
13.2321 13.486
13.2473 13.745
13.2625 13.723
13.2777 13.343
13.2928 13.240
13.3080 13.293
13.3232 13.216
13.3384 13.287
13.3535 13.460
13.3687 13.248
13.3839 13.095
13.3991 13.046
13.4142 13.161
13.4294 13.184
13.4446 13.125
13.4598 12.898
13.4749 12.827
13.4901 12.700
13.5053 12.744
13.5205 12.653
13.5356 12.754
13.5508 12.634
13.5660 12.330
13.5812 12.210
13.5963 12.203
13.6115 12.095
13.6267 12.141
13.6419 12.151
13.6570 12.070
13.6722 12.184
13.6874 12.128
13.7026 12.092
13.7177 12.344
13.7329 12.384
13.7481 12.252
13.7633 12.353
13.7784 12.142
13.7936 12.277
13.8088 12.365
13.8239 12.088
13.8391 12.079
13.8543 12.376
13.8695 12.407
13.8846 12.160
13.8998 12.356
13.9150 12.356
13.9302 12.297
13.9453 12.296
13.9605 12.057
13.9757 12.079
13.9909 11.719
14.0060 11.691
14.0212 11.714
14.0364 11.405
14.0516 11.375
14.0667 11.607
14.0819 11.659
14.0971 11.572
14.1123 11.511
14.1274 11.407
14.1426 11.742
14.1578 11.685
14.1730 11.686
14.1881 11.915
14.2033 11.873
14.2185 11.755
14.2337 11.421
14.2488 11.649
14.2640 11.945
14.2792 11.763
14.2944 11.792
14.3095 12.099
14.3247 12.073
14.3399 12.245
14.3551 12.162
14.3702 12.741
14.3854 12.851
14.4006 12.578
14.4158 12.412
14.4309 12.432
14.4461 12.391
14.4613 12.291
14.4765 11.870
14.4916 11.715
14.5068 11.830
14.5220 11.770
14.5372 11.329
14.5523 10.969
14.5675 11.037
14.5827 11.315
14.5979 11.090
14.6130 10.837
14.6282 10.963
14.6434 11.036
14.6586 11.190
14.6737 10.872
14.6889 10.869
14.7041 10.983
14.7193 10.943
14.7344 10.675
14.7496 10.909
14.7648 10.604
14.7800 10.986
14.7951 10.861
14.8103 10.860
14.8255 10.646
14.8407 10.449
14.8558 10.561
14.8710 10.626
14.8862 10.653
14.9014 10.592
14.9165 11.056
14.9317 10.906
14.9469 10.444
14.9621 10.659
14.9772 10.809
14.9924 10.273
15.0076 10.581
15.0228 10.783
15.0379 10.204
15.0531 10.370
15.0683 10.370
15.0835 10.559
15.0986 10.755
15.1138 10.748
15.1290 10.561
15.1442 10.321
15.1593 10.485
15.1745 10.688
15.1897 10.405
15.2049 10.515
15.2200 10.556
15.2352 10.210
15.2504 10.570
15.2656 10.433
15.2807 10.361
15.2959 9.946
15.3111 10.572
15.3263 10.077
15.3414 10.660
15.3566 10.179
15.3718 10.545
15.3870 10.533
15.4021 10.527
15.4173 10.599
15.4325 10.437
15.4477 10.621
15.4628 10.384
15.4780 10.115
15.4932 10.408
15.5084 10.331
15.5235 10.198
15.5387 10.354
15.5539 10.758
15.5691 10.264
15.5842 10.224
15.5994 10.046
15.6146 10.208
15.6298 10.175
15.6449 10.096
15.6601 10.277
15.6753 9.903
15.6905 10.224
15.7056 9.957
15.7208 9.789
15.7360 9.836
15.7512 9.746
15.7663 10.269
15.7815 10.221
15.7967 9.950
15.8119 10.035
15.8270 10.154
15.8422 10.142
15.8574 10.026
15.8726 9.783
15.8877 9.703
15.9029 9.790
15.9181 9.893
15.9333 9.800
15.9484 9.964
15.9636 9.817
15.9788 10.077
15.9940 10.146
16.0091 9.888
16.0243 9.748
16.0395 9.950
16.0547 9.896
16.0698 9.741
16.0850 9.596
16.1002 9.746
16.1154 9.796
16.1305 9.789
16.1457 9.974
16.1609 9.753
16.1761 9.831
16.1912 10.023
16.2064 9.832
16.2216 9.785
16.2368 9.935
16.2519 9.997
16.2671 9.705
16.2823 9.836
16.2975 9.929
16.3126 10.108
16.3278 9.984
16.3430 10.039
16.3582 10.124
16.3733 10.224
16.3885 9.995
16.4037 10.076
16.4189 10.063
16.4340 10.012
16.4492 9.990
16.4644 9.829
16.4796 9.973
16.4947 9.696
16.5099 9.664
16.5251 9.600
16.5403 9.778
16.5554 9.872
16.5706 10.082
16.5858 9.878
16.6010 9.661
16.6161 9.820
16.6313 9.662
16.6465 9.678
16.6617 9.743
16.6768 9.827
16.6920 9.967
16.7072 9.998
16.7224 9.904
16.7375 9.945
16.7527 10.155
16.7679 10.182
16.7831 9.985
16.7982 10.052
16.8134 10.079
16.8286 10.058
16.8438 10.115
16.8589 10.121
16.8741 9.978
16.8893 9.851
16.9045 9.847
16.9196 9.721
16.9348 9.712
16.9500 9.715
16.9652 9.761
16.9803 9.777
16.9955 9.928
17.0107 9.908
17.0259 9.896
17.0410 10.110
17.0562 10.223
17.0714 10.214
17.0866 10.492
17.1017 10.615
17.1169 10.784
17.1321 10.983
17.1473 11.143
17.1624 11.534
17.1776 12.126
17.1928 12.910
17.2080 13.967
17.2231 15.009
17.2383 16.516
17.2535 17.841
17.2687 18.711
17.2838 19.256
17.2990 18.316
17.3142 17.210
17.3294 16.619
17.3445 16.222
17.3597 16.179
17.3749 15.893
17.3901 15.127
17.4052 14.240
17.4204 13.275
17.4356 12.593
17.4508 12.128
17.4659 11.699
17.4811 11.546
17.4963 11.399
17.5115 11.362
17.5266 11.238
17.5418 11.129
17.5570 11.194
17.5722 11.244
17.5873 11.258
17.6025 11.477
17.6177 11.547
17.6329 11.248
17.6480 10.998
17.6632 10.819
17.6784 10.805
17.6936 10.834
17.7087 10.722
17.7239 10.643
17.7391 10.421
17.7543 10.383
17.7694 10.370
17.7846 10.079
17.7998 10.281
17.8150 10.238
17.8301 9.925
17.8453 10.061
17.8605 10.127
17.8757 10.142
17.8908 10.307
17.9060 10.440
17.9212 10.253
17.9364 10.214
17.9515 10.135
17.9667 10.128
17.9819 10.509
17.9971 10.418
18.0122 10.129
18.0274 10.230
18.0426 10.350
18.0578 10.233
18.0729 10.017
18.0881 10.065
18.1033 10.043
18.1185 10.016
18.1336 9.941
18.1488 9.810
18.1640 9.888
18.1792 9.926
18.1943 9.800
18.2095 10.012
18.2247 9.997
18.2399 9.805
18.2550 9.676
18.2702 9.781
18.2854 9.910
18.3006 9.656
18.3157 9.651
18.3309 9.901
18.3461 9.999
18.3613 10.012
18.3764 9.920
18.3916 9.741
18.4068 9.750
18.4220 9.904
18.4371 9.643
18.4523 9.642
18.4675 9.646
18.4827 9.692
18.4978 9.882
18.5130 9.814
18.5282 9.788
18.5434 9.735
18.5585 9.733
18.5737 9.548
18.5889 9.746
18.6041 9.771
18.6192 9.653
18.6344 9.843
18.6496 9.729
18.6648 9.603
18.6799 9.567
18.6951 9.654
18.7103 9.775
18.7255 9.929
18.7406 9.826
18.7558 9.557
18.7710 9.615
18.7862 9.775
18.8013 9.694
18.8165 9.478
18.8317 9.619
18.8469 9.767
18.8620 9.910
18.8772 10.040
18.8924 9.863
18.9076 9.780
18.9227 10.002
18.9379 10.066
18.9531 10.102
18.9683 10.085
18.9834 10.155
18.9986 10.475
19.0138 10.198
19.0290 10.034
19.0441 10.182
19.0593 10.167
19.0745 10.281
19.0897 10.412
19.1048 10.304
19.1200 10.326
19.1352 10.463
19.1504 10.647
19.1655 10.564
19.1807 10.355
19.1959 10.449
19.2111 10.655
19.2262 10.937
19.2414 10.895
19.2566 10.732
19.2718 10.906
19.2869 11.059
19.3021 10.930
19.3173 10.994
19.3325 10.891
19.3476 10.778
19.3628 11.037
19.3780 11.274
19.3932 11.353
19.4083 11.490
19.4235 11.349
19.4387 11.324
19.4539 11.490
19.4690 11.662
19.4842 11.598
19.4994 11.523
19.5146 11.493
19.5297 11.521
19.5449 11.534
19.5601 11.333
19.5753 11.340
19.5904 11.317
19.6056 11.418
19.6208 11.761
19.6360 11.811
19.6511 11.753
19.6663 11.805
19.6815 11.564
19.6967 11.549
19.7118 11.801
19.7270 11.830
19.7422 11.861
19.7574 11.909
19.7725 11.785
19.7877 11.878
19.8029 12.054
19.8180 12.078
19.8332 12.025
19.8484 12.204
19.8636 12.554
19.8787 12.732
19.8939 12.852
19.9091 13.127
19.9243 13.584
19.9394 13.802
19.9546 13.941
19.9698 14.230
19.9850 14.521
20.0001 14.387
20.0153 14.260
20.0305 14.210
20.0457 13.827
20.0608 13.575
20.0760 13.572
20.0912 13.831
20.1064 13.926
20.1215 13.614
20.1367 13.502
20.1519 13.127
20.1671 12.914
20.1822 13.060
20.1974 12.876
20.2126 12.775
20.2278 12.808
20.2429 12.611
20.2581 12.480
20.2733 11.932
20.2885 11.885
20.3036 12.021
20.3188 11.769
20.3340 11.692
20.3492 11.663
20.3643 11.538
20.3795 11.203
20.3947 11.127
20.4099 11.034
20.4250 10.689
20.4402 10.683
20.4554 10.909
20.4706 10.930
20.4857 10.733
20.5009 10.718
20.5161 10.824
20.5313 10.620
20.5464 10.507
20.5616 10.666
20.5768 10.535
20.5920 10.662
20.6071 10.475
20.6223 10.579
20.6375 10.723
20.6527 10.665
20.6678 10.611
20.6830 10.569
20.6982 10.353
20.7134 10.615
20.7285 10.691
20.7437 10.488
20.7589 10.289
20.7741 10.180
20.7892 10.486
20.8044 10.321
20.8196 10.411
20.8348 10.290
20.8499 10.363
20.8651 10.210
20.8803 10.073
20.8955 10.205
20.9106 10.346
20.9258 10.546
20.9410 10.356
20.9562 9.918
20.9713 10.257
20.9865 10.332
21.0017 9.862
21.0169 9.956
21.0320 10.119
21.0472 10.079
21.0624 10.183
21.0776 9.942
21.0927 10.203
21.1079 9.364
21.1231 9.818
21.1383 9.833
21.1534 9.912
21.1686 9.655
21.1838 9.776
21.1990 9.601
21.2141 9.510
21.2293 9.659
21.2445 9.654
21.2597 9.756
21.2748 9.630
21.2900 9.875
21.3052 9.567
21.3204 9.388
21.3355 9.418
21.3507 9.695
21.3659 9.707
21.3811 9.545
21.3962 9.252
21.4114 9.192
21.4266 9.517
21.4418 9.609
21.4569 9.327
21.4721 9.459
21.4873 9.480
21.5025 9.515
21.5176 9.529
21.5328 9.101
21.5480 9.270
21.5632 9.185
21.5783 9.399
21.5935 9.323
21.6087 9.250
21.6239 9.338
21.6390 9.085
21.6542 8.957
21.6694 9.258
21.6846 9.235
21.6997 9.347
21.7149 9.357
21.7301 9.095
21.7453 9.112
21.7604 9.369
21.7756 9.140
21.7908 9.221
21.8060 9.049
21.8211 9.220
21.8363 9.073
21.8515 8.866
21.8667 8.979
21.8818 9.212
21.8970 9.188
21.9122 8.936
21.9274 8.939
21.9425 8.854
21.9577 8.854
21.9729 9.084
21.9881 9.059
22.0032 8.989
22.0184 9.084
22.0336 9.010
22.0488 8.912
22.0639 9.008
22.0791 8.932
22.0943 8.854
22.1095 8.836
22.1246 8.671
22.1398 8.539
22.1550 8.749
22.1702 8.521
22.1853 8.565
22.2005 8.760
22.2157 8.678
22.2309 8.714
22.2460 8.581
22.2612 8.864
22.2764 8.562
22.2916 8.589
22.3067 8.695
22.3219 8.868
22.3371 8.722
22.3523 8.411
22.3674 8.607
22.3826 8.912
22.3978 8.669
22.4130 8.665
22.4281 8.428
22.4433 8.421
22.4585 8.484
22.4737 8.609
22.4888 8.423
22.5040 8.530
22.5192 8.295
22.5344 8.450
22.5495 8.371
22.5647 8.475
22.5799 8.422
22.5951 8.377
22.6102 8.190
22.6254 8.640
22.6406 8.722
22.6558 8.417
22.6709 8.477
22.6861 8.435
22.7013 8.231
22.7165 8.076
22.7316 6.519
