'Id: "" Comment: "" Operator: "Lab Manager" Anode: "Mo" Scantype: "Still (Eiger2R_500K (1D mode))" TimePerStep: "300" X: "11.8" Y: "9.4" Z: "11.284" 
7.2532 18.984
7.2684 18.425
7.2836 18.952
7.2987 18.588
7.3139 19.048
7.3291 19.116
7.3443 18.605
7.3594 18.940
7.3746 19.268
7.3898 19.178
7.4050 19.420
7.4201 18.933
7.4353 19.223
7.4505 19.135
7.4657 19.155
7.4808 19.800
7.4960 19.695
7.5112 19.270
7.5264 19.413
7.5415 19.589
7.5567 19.360
7.5719 19.795
7.5871 19.875
7.6022 19.909
7.6174 19.802
7.6326 19.813
7.6478 20.040
7.6629 20.177
7.6781 19.825
7.6933 20.069
7.7085 19.988
7.7236 20.327
7.7388 20.450
7.7540 20.189
7.7692 20.123
7.7843 20.019
7.7995 20.114
7.8147 20.311
7.8299 20.435
7.8450 20.364
7.8602 20.616
7.8754 20.615
7.8905 20.661
7.9057 20.773
7.9209 20.502
7.9361 20.730
7.9512 20.924
7.9664 20.928
7.9816 20.818
7.9968 20.909
8.0119 20.996
8.0271 21.299
8.0423 21.018
8.0575 21.056
8.0726 21.031
8.0878 20.721
8.1030 20.812
8.1182 20.885
8.1333 20.987
8.1485 21.370
8.1637 21.056
8.1789 21.242
8.1940 21.295
8.2092 21.527
8.2244 21.312
8.2396 21.359
8.2547 21.093
8.2699 21.522
8.2851 21.518
8.3003 21.469
8.3154 21.475
8.3306 21.370
8.3458 21.595
8.3610 21.432
8.3761 21.579
8.3913 21.569
8.4065 22.089
8.4217 21.675
8.4368 21.385
8.4520 21.582
8.4672 22.178
8.4824 22.244
8.4975 21.523
8.5127 21.719
8.5279 21.478
8.5431 21.886
8.5582 22.140
8.5734 22.297
8.5886 21.855
8.6038 22.263
8.6189 21.696
8.6341 22.390
8.6493 22.161
8.6645 22.262
8.6796 21.783
8.6948 21.691
8.7100 22.328
8.7252 22.131
8.7403 22.339
8.7555 21.939
8.7707 22.027
8.7859 21.805
8.8010 22.043
8.8162 22.245
8.8314 22.567
8.8466 21.974
8.8617 22.451
8.8769 22.139
8.8921 22.614
8.9073 22.694
8.9224 22.524
8.9376 22.220
8.9528 22.002
8.9680 22.445
8.9831 22.897
8.9983 22.262
9.0135 22.348
9.0287 22.542
9.0438 22.320
9.0590 22.699
9.0742 22.541
9.0894 22.373
9.1045 22.449
9.1197 22.898
9.1349 22.586
9.1501 22.485
9.1652 22.180
9.1804 22.538
9.1956 22.693
9.2108 22.674
9.2259 22.427
9.2411 22.659
9.2563 22.561
9.2715 22.424
9.2866 22.751
9.3018 22.666
9.3170 22.696
9.3322 22.502
9.3473 22.659
9.3625 22.958
9.3777 23.008
9.3929 22.973
9.4080 22.802
9.4232 22.739
9.4384 22.760
9.4536 22.630
9.4687 23.038
9.4839 22.860
9.4991 22.896
9.5143 22.907
9.5294 22.644
9.5446 22.652
9.5598 22.721
9.5750 22.983
9.5901 23.062
9.6053 23.254
9.6205 23.105
9.6357 22.922
9.6508 23.309
9.6660 23.626
9.6812 23.466
9.6964 23.551
9.7115 23.624
9.7267 23.616
9.7419 23.878
9.7571 23.751
9.7722 23.354
9.7874 23.377
9.8026 23.479
9.8178 23.432
9.8329 23.439
9.8481 23.253
9.8633 23.114
9.8785 22.995
9.8936 22.808
9.9088 22.568
9.9240 22.676
9.9392 22.875
9.9543 22.911
9.9695 22.946
9.9847 22.795
9.9999 22.687
10.0150 22.845
10.0302 23.174
10.0454 23.246
10.0606 22.961
10.0757 22.994
10.0909 23.241
10.1061 23.479
10.1213 23.149
10.1364 23.106
10.1516 23.413
10.1668 23.393
10.1820 23.388
10.1971 23.551
10.2123 23.036
10.2275 22.705
10.2427 22.836
10.2578 23.082
10.2730 23.059
10.2882 22.964
10.3034 22.812
10.3185 22.535
10.3337 22.450
10.3489 22.502
10.3641 22.456
10.3792 22.740
10.3944 22.871
10.4096 22.622
10.4248 22.646
10.4399 22.479
10.4551 22.463
10.4703 22.290
10.4855 22.153
10.5006 22.136
10.5158 22.360
10.5310 22.452
10.5462 22.484
10.5613 22.398
10.5765 22.244
10.5917 22.351
10.6069 22.440
10.6220 22.658
10.6372 22.194
10.6524 22.049
10.6676 22.592
10.6827 22.651
10.6979 22.205
10.7131 22.282
10.7283 22.296
10.7434 22.619
10.7586 22.661
10.7738 22.142
10.7890 22.160
10.8041 22.223
10.8193 22.169
10.8345 22.028
10.8497 21.812
10.8648 21.821
10.8800 22.288
10.8952 21.976
10.9104 21.617
10.9255 21.861
10.9407 22.139
10.9559 21.598
10.9711 21.872
10.9862 22.085
11.0014 21.689
11.0166 22.109
11.0318 22.108
11.0469 21.884
11.0621 21.467
11.0773 21.788
11.0925 21.650
11.1076 21.156
11.1228 21.422
11.1380 21.837
11.1532 21.900
11.1683 21.553
11.1835 21.494
11.1987 21.371
11.2139 21.287
11.2290 21.615
11.2442 21.535
11.2594 21.643
11.2746 21.491
11.2897 21.451
11.3049 21.617
11.3201 21.193
11.3353 21.374
11.3504 21.633
11.3656 21.489
11.3808 21.367
11.3960 21.161
11.4111 21.252
11.4263 21.310
11.4415 21.540
11.4567 21.482
11.4718 21.255
11.4870 21.009
11.5022 20.954
11.5174 20.938
11.5325 20.800
11.5477 20.731
11.5629 20.791
11.5781 20.818
11.5932 20.743
11.6084 20.619
11.6236 20.688
11.6388 20.327
11.6539 20.485
11.6691 20.537
11.6843 20.530
11.6995 20.436
11.7146 20.225
11.7298 20.446
11.7450 20.454
11.7602 20.123
11.7753 19.992
11.7905 20.118
11.8057 19.872
11.8209 20.062
11.8360 19.757
11.8512 19.502
11.8664 19.719
11.8816 19.576
11.8967 19.401
11.9119 19.754
11.9271 19.735
11.9423 19.491
11.9574 19.665
11.9726 19.361
11.9878 19.257
12.0030 19.345
12.0181 18.947
12.0333 18.717
12.0485 18.541
12.0637 18.416
12.0788 18.699
12.0940 18.755
12.1092 18.609
12.1244 18.452
12.1395 18.417
12.1547 18.533
12.1699 18.501
12.1851 18.326
12.2002 17.986
12.2154 17.955
12.2306 17.825
12.2458 17.905
12.2609 17.745
12.2761 17.815
12.2913 17.903
12.3065 17.485
12.3216 17.507
12.3368 17.351
12.3520 17.397
12.3672 17.540
12.3823 17.546
12.3975 17.234
12.4127 17.103
12.4279 17.125
12.4430 16.788
12.4582 16.491
12.4734 16.600
12.4886 16.379
12.5037 16.325
12.5189 16.610
12.5341 16.635
12.5493 16.291
12.5644 16.057
12.5796 16.135
12.5948 16.204
12.6100 15.905
12.6251 15.605
12.6403 15.745
12.6555 15.975
12.6707 15.772
12.6858 15.561
12.7010 15.713
12.7162 15.574
12.7314 15.708
12.7465 15.504
12.7617 15.270
12.7769 15.278
12.7921 15.165
12.8072 15.028
12.8224 14.798
12.8376 14.700
12.8528 14.668
12.8679 14.550
12.8831 14.638
12.8983 14.601
12.9135 14.259
12.9286 14.195
12.9438 14.375
12.9590 14.388
12.9742 14.262
12.9893 14.168
13.0045 14.240
13.0197 14.421
13.0349 14.444
13.0500 14.440
13.0652 14.121
13.0804 13.844
13.0956 13.869
13.1107 13.777
13.1259 13.685
13.1411 13.530
13.1563 13.514
13.1714 13.491
13.1866 13.476
13.2018 13.634
13.2170 13.518
13.2321 13.344
13.2473 13.286
13.2625 13.326
13.2777 13.339
13.2928 13.301
13.3080 13.327
13.3232 13.047
13.3384 12.925
13.3535 12.929
13.3687 12.866
13.3839 12.994
13.3991 13.031
13.4142 13.094
13.4294 12.934
13.4446 12.603
13.4598 12.550
13.4749 12.574
13.4901 12.381
13.5053 12.374
13.5205 12.230
13.5356 12.259
13.5508 12.457
13.5660 12.465
13.5812 12.303
13.5963 12.223
13.6115 12.344
13.6267 12.305
13.6419 12.121
13.6570 12.117
13.6722 11.978
13.6874 12.215
13.7026 11.994
13.7177 11.934
13.7329 12.015
13.7481 11.840
13.7633 11.815
13.7784 11.989
13.7936 12.170
13.8088 12.329
13.8239 12.157
13.8391 11.746
13.8543 12.002
13.8695 12.115
13.8846 12.092
13.8998 12.018
13.9150 11.869
13.9302 12.052
13.9453 11.987
13.9605 11.554
13.9757 11.599
13.9909 11.397
14.0060 11.339
14.0212 11.398
14.0364 11.563
14.0516 11.508
14.0667 11.341
14.0819 11.257
14.0971 11.205
14.1123 11.280
14.1274 11.220
14.1426 11.126
14.1578 11.427
14.1730 11.638
14.1881 11.358
14.2033 11.272
14.2185 11.182
14.2337 11.131
14.2488 11.146
14.2640 11.369
14.2792 11.686
14.2944 11.669
14.3095 11.916
14.3247 11.881
14.3399 12.100
14.3551 12.224
14.3702 12.417
14.3854 12.887
14.4006 13.178
14.4158 13.388
14.4309 13.185
14.4461 13.385
14.4613 13.012
14.4765 12.620
14.4916 12.603
14.5068 12.706
14.5220 12.362
14.5372 11.989
14.5523 11.595
14.5675 11.558
14.5827 11.543
14.5979 11.188
14.6130 10.948
14.6282 11.176
14.6434 11.000
14.6586 11.280
14.6737 11.129
14.6889 10.950
14.7041 10.982
14.7193 11.069
14.7344 10.788
14.7496 10.915
14.7648 10.623
14.7800 10.873
14.7951 10.837
14.8103 10.403
14.8255 10.331
14.8407 10.367
14.8558 10.215
14.8710 10.409
14.8862 10.394
14.9014 10.609
14.9165 10.562
14.9317 10.661
14.9469 10.432
14.9621 10.439
14.9772 10.343
14.9924 10.361
15.0076 10.324
15.0228 10.094
15.0379 10.138
15.0531 10.447
15.0683 10.175
15.0835 10.223
15.0986 10.298
15.1138 10.122
15.1290 9.753
15.1442 10.557
15.1593 10.055
15.1745 10.269
15.1897 10.300
15.2049 10.188
15.2200 10.286
15.2352 10.252
15.2504 10.312
15.2656 10.240
15.2807 10.158
15.2959 10.312
15.3111 10.205
15.3263 10.181
15.3414 10.192
15.3566 10.294
15.3718 10.269
15.3870 10.259
15.4021 10.471
15.4173 10.403
15.4325 10.270
15.4477 9.855
15.4628 10.116
15.4780 10.078
15.4932 10.202
15.5084 9.886
15.5235 9.950
15.5387 9.985
15.5539 9.930
15.5691 9.906
15.5842 10.138
15.5994 9.846
15.6146 9.923
15.6298 9.847
15.6449 9.711
15.6601 9.731
15.6753 9.898
15.6905 9.497
15.7056 9.582
15.7208 9.427
15.7360 9.908
15.7512 9.844
15.7663 9.677
15.7815 9.640
15.7967 9.956
15.8119 9.690
15.8270 9.634
15.8422 9.630
15.8574 9.718
15.8726 9.522
15.8877 9.598
15.9029 9.691
15.9181 9.497
15.9333 9.585
15.9484 9.674
15.9636 9.875
15.9788 9.592
15.9940 9.480
16.0091 9.445
16.0243 9.538
16.0395 9.347
16.0547 9.588
16.0698 9.552
16.0850 9.824
16.1002 9.797
16.1154 9.404
16.1305 9.416
16.1457 9.452
16.1609 9.238
16.1761 9.410
16.1912 9.796
16.2064 9.706
16.2216 9.877
16.2368 9.975
16.2519 9.867
16.2671 9.901
16.2823 9.890
16.2975 9.912
16.3126 10.082
16.3278 10.119
16.3430 9.781
16.3582 9.775
16.3733 9.839
16.3885 9.703
16.4037 9.766
16.4189 9.690
16.4340 9.686
16.4492 9.542
16.4644 9.655
16.4796 9.814
16.4947 9.902
16.5099 9.812
16.5251 9.738
16.5403 9.583
16.5554 9.537
16.5706 9.394
16.5858 9.369
16.6010 9.495
16.6161 9.670
16.6313 9.751
16.6465 9.827
16.6617 9.738
16.6768 9.476
16.6920 9.528
16.7072 9.982
16.7224 9.847
16.7375 9.915
16.7527 9.770
16.7679 9.581
16.7831 9.800
16.7982 9.839
16.8134 9.948
16.8286 9.938
16.8438 9.600
16.8589 9.697
16.8741 9.790
16.8893 9.598
16.9045 9.642
16.9196 9.719
16.9348 9.855
16.9500 9.875
16.9652 9.678
16.9803 9.774
16.9955 9.966
17.0107 9.919
17.0259 9.784
17.0410 9.829
17.0562 10.006
17.0714 10.019
17.0866 10.032
17.1017 10.351
17.1169 10.764
17.1321 10.974
17.1473 11.140
17.1624 11.594
17.1776 12.188
17.1928 12.678
17.2080 13.739
17.2231 14.980
17.2383 16.278
17.2535 17.660
17.2687 18.522
17.2838 18.465
17.2990 17.885
17.3142 16.925
17.3294 15.883
17.3445 15.681
17.3597 15.890
17.3749 15.447
17.3901 14.753
17.4052 14.171
17.4204 13.198
17.4356 12.293
17.4508 11.887
17.4659 11.631
17.4811 11.317
17.4963 11.118
17.5115 10.998
17.5266 10.705
17.5418 10.524
17.5570 10.410
17.5722 10.426
17.5873 10.590
17.6025 10.596
17.6177 10.716
17.6329 10.716
17.6480 10.721
17.6632 10.899
17.6784 11.393
17.6936 11.648
17.7087 11.836
17.7239 11.764
17.7391 11.314
17.7543 11.264
17.7694 11.428
17.7846 11.255
17.7998 11.245
17.8150 11.485
17.8301 11.220
17.8453 10.827
17.8605 10.683
17.8757 10.611
17.8908 10.467
17.9060 10.658
17.9212 10.576
17.9364 10.323
17.9515 10.081
17.9667 10.117
17.9819 10.358
17.9971 10.379
18.0122 10.433
18.0274 10.259
18.0426 10.121
18.0578 10.210
18.0729 10.175
18.0881 9.948
18.1033 9.965
18.1185 9.858
18.1336 9.740
18.1488 9.782
18.1640 9.874
18.1792 9.755
18.1943 9.673
18.2095 9.770
18.2247 9.785
18.2399 9.773
18.2550 9.719
18.2702 9.764
18.2854 9.729
18.3006 9.742
18.3157 9.656
18.3309 9.710
18.3461 9.845
18.3613 9.776
18.3764 9.808
18.3916 9.773
18.4068 10.025
18.4220 10.017
18.4371 9.529
18.4523 9.673
18.4675 9.983
18.4827 9.662
18.4978 9.687
18.5130 9.834
18.5282 9.709
18.5434 9.697
18.5585 9.559
18.5737 9.586
18.5889 9.679
18.6041 9.733
18.6192 9.696
18.6344 9.576
18.6496 9.582
18.6648 9.622
18.6799 9.807
18.6951 9.820
18.7103 9.677
18.7255 9.618
18.7406 9.696
18.7558 9.785
18.7710 9.695
18.7862 9.870
18.8013 9.747
18.8165 9.406
18.8317 9.686
18.8469 9.857
18.8620 9.865
18.8772 10.111
18.8924 10.116
18.9076 10.015
18.9227 10.086
18.9379 10.115
18.9531 10.018
18.9683 9.904
18.9834 9.716
18.9986 9.993
19.0138 9.921
19.0290 9.855
19.0441 10.029
19.0593 10.200
19.0745 10.003
19.0897 9.858
19.1048 10.071
19.1200 10.193
19.1352 10.330
19.1504 10.490
19.1655 10.526
19.1807 10.546
19.1959 10.714
19.2111 10.590
19.2262 10.449
19.2414 10.649
19.2566 10.897
19.2718 10.881
19.2869 10.748
19.3021 10.534
19.3173 10.501
19.3325 10.754
19.3476 10.885
19.3628 11.019
19.3780 11.118
19.3932 11.146
19.4083 11.033
19.4235 11.140
19.4387 11.120
19.4539 11.167
19.4690 11.127
19.4842 11.240
19.4994 11.221
19.5146 11.068
19.5297 11.333
19.5449 11.477
19.5601 11.511
19.5753 11.612
19.5904 11.498
19.6056 11.460
19.6208 11.365
19.6360 11.287
19.6511 11.361
19.6663 11.380
19.6815 11.493
19.6967 11.660
19.7118 11.835
19.7270 11.561
19.7422 11.460
19.7574 11.812
19.7725 12.000
19.7877 11.827
19.8029 11.867
19.8180 12.050
19.8332 11.996
19.8484 12.047
19.8636 12.272
19.8787 12.380
19.8939 12.749
19.9091 13.073
19.9243 13.224
19.9394 13.635
19.9546 14.018
19.9698 14.105
19.9850 14.267
20.0001 14.540
20.0153 14.165
20.0305 13.628
20.0457 13.520
20.0608 13.539
20.0760 13.327
20.0912 13.373
20.1064 13.554
20.1215 13.274
20.1367 12.811
20.1519 12.656
20.1671 12.649
20.1822 12.842
20.1974 12.480
20.2126 12.266
20.2278 12.502
20.2429 12.470
20.2581 11.937
20.2733 11.633
20.2885 11.709
20.3036 11.504
20.3188 11.466
20.3340 11.564
20.3492 11.591
20.3643 11.722
20.3795 11.635
20.3947 11.511
20.4099 11.651
20.4250 11.439
20.4402 11.573
20.4554 11.512
20.4706 11.989
20.4857 11.849
20.5009 11.930
20.5161 11.801
20.5313 11.489
20.5464 11.347
20.5616 11.327
20.5768 11.086
20.5920 10.914
20.6071 11.192
20.6223 11.272
20.6375 10.984
20.6527 10.730
20.6678 10.663
20.6830 10.736
20.6982 10.723
20.7134 10.779
20.7285 10.442
20.7437 10.365
20.7589 10.352
20.7741 10.502
20.7892 10.545
20.8044 10.284
20.8196 10.483
20.8348 10.221
20.8499 10.348
20.8651 10.279
20.8803 9.874
20.8955 10.387
20.9106 10.106
20.9258 9.662
20.9410 10.083
20.9562 9.888
20.9713 9.790
20.9865 10.034
21.0017 9.967
21.0169 9.710
21.0320 10.019
21.0472 9.871
21.0624 9.942
21.0776 10.052
21.0927 9.733
21.1079 9.755
21.1231 9.823
21.1383 9.574
21.1534 9.713
21.1686 9.980
21.1838 9.669
21.1990 9.835
21.2141 9.613
21.2293 9.603
21.2445 9.679
21.2597 9.794
21.2748 9.371
21.2900 9.601
21.3052 9.562
21.3204 9.486
21.3355 9.860
21.3507 9.390
21.3659 9.393
21.3811 9.437
21.3962 9.217
21.4114 8.846
21.4266 9.251
21.4418 9.257
21.4569 9.127
21.4721 9.113
21.4873 9.145
21.5025 9.308
21.5176 9.513
21.5328 9.257
21.5480 9.194
21.5632 9.341
21.5783 9.315
21.5935 9.388
21.6087 9.316
21.6239 9.465
21.6390 9.324
21.6542 8.987
21.6694 8.930
21.6846 9.044
21.6997 9.131
21.7149 9.001
21.7301 8.997
21.7453 8.986
21.7604 8.909
21.7756 8.886
21.7908 8.894
21.8060 8.845
21.8211 9.123
21.8363 8.849
21.8515 8.906
21.8667 8.934
21.8818 8.903
21.8970 8.882
21.9122 8.908
21.9274 9.031
21.9425 8.630
21.9577 8.623
21.9729 8.682
21.9881 8.668
22.0032 8.698
22.0184 8.755
22.0336 8.801
22.0488 8.661
22.0639 8.811
22.0791 8.935
22.0943 8.651
22.1095 8.726
22.1246 8.577
22.1398 8.450
22.1550 8.784
22.1702 8.605
22.1853 8.545
22.2005 8.663
22.2157 8.491
22.2309 8.424
22.2460 8.409
22.2612 8.559
22.2764 8.726
22.2916 8.679
22.3067 8.471
22.3219 8.362
22.3371 8.479
22.3523 8.416
22.3674 8.514
22.3826 8.437
22.3978 8.440
22.4130 8.211
22.4281 8.469
22.4433 8.262
22.4585 8.310
22.4737 8.180
22.4888 8.146
22.5040 8.186
22.5192 8.621
22.5344 8.133
22.5495 8.390
22.5647 8.246
22.5799 8.452
22.5951 8.328
22.6102 8.321
22.6254 8.265
22.6406 8.247
22.6558 8.214
22.6709 8.227
22.6861 8.205
22.7013 8.099
22.7165 7.758
22.7316 6.128
