'Id: "" Comment: "" Operator: "Lab Manager" Anode: "Mo" Scantype: "Still (Eiger2R_500K (1D mode))" TimePerStep: "300" X: "11.8" Y: "9.4" Z: "11.284" 
7.2532 18.782
7.2684 18.657
7.2836 18.825
7.2987 19.079
7.3139 18.953
7.3291 18.820
7.3443 19.427
7.3594 19.299
7.3746 18.842
7.3898 19.041
7.4050 18.888
7.4201 18.690
7.4353 18.971
7.4505 19.412
7.4657 19.088
7.4808 19.480
7.4960 19.820
7.5112 19.676
7.5264 19.648
7.5415 19.429
7.5567 19.535
7.5719 19.630
7.5871 19.717
7.6022 19.852
7.6174 19.805
7.6326 19.997
7.6478 19.841
7.6629 19.857
7.6781 19.947
7.6933 20.401
7.7085 20.399
7.7236 20.410
7.7388 20.492
7.7540 20.147
7.7692 20.136
7.7843 20.551
7.7995 20.538
7.8147 20.330
7.8299 20.311
7.8450 20.631
7.8602 20.729
7.8754 20.565
7.8905 20.771
7.9057 20.806
7.9209 20.873
7.9361 21.045
7.9512 20.955
7.9664 20.718
7.9816 20.919
7.9968 21.028
8.0119 20.732
8.0271 21.210
8.0423 21.485
8.0575 21.011
8.0726 21.018
8.0878 21.209
8.1030 20.895
8.1182 21.132
8.1333 21.270
8.1485 21.138
8.1637 21.083
8.1789 21.255
8.1940 21.141
8.2092 21.720
8.2244 21.384
8.2396 22.060
8.2547 21.750
8.2699 21.298
8.2851 21.566
8.3003 21.900
8.3154 21.451
8.3306 21.607
8.3458 21.755
8.3610 21.142
8.3761 21.812
8.3913 21.730
8.4065 22.148
8.4217 21.965
8.4368 21.614
8.4520 21.866
8.4672 21.869
8.4824 22.013
8.4975 21.656
8.5127 21.657
8.5279 21.851
8.5431 22.249
8.5582 21.854
8.5734 21.602
8.5886 21.597
8.6038 21.836
8.6189 21.934
8.6341 22.423
8.6493 22.136
8.6645 22.192
8.6796 22.428
8.6948 22.403
8.7100 22.364
8.7252 21.795
8.7403 22.313
8.7555 22.033
8.7707 21.968
8.7859 22.569
8.8010 21.999
8.8162 22.159
8.8314 22.206
8.8466 22.513
8.8617 22.290
8.8769 22.103
8.8921 22.645
8.9073 22.273
8.9224 22.400
8.9376 22.639
8.9528 22.467
8.9680 22.379
8.9831 22.499
8.9983 22.485
9.0135 22.431
9.0287 22.413
9.0438 22.402
9.0590 22.496
9.0742 22.807
9.0894 22.655
9.1045 22.721
9.1197 22.786
9.1349 22.630
9.1501 22.319
9.1652 22.512
9.1804 22.655
9.1956 22.774
9.2108 22.766
9.2259 22.321
9.2411 22.482
9.2563 22.552
9.2715 22.568
9.2866 22.722
9.3018 22.669
9.3170 22.722
9.3322 22.744
9.3473 22.866
9.3625 23.023
9.3777 22.995
9.3929 22.786
9.4080 23.051
9.4232 22.991
9.4384 22.641
9.4536 22.791
9.4687 22.888
9.4839 23.274
9.4991 23.273
9.5143 23.295
9.5294 23.309
9.5446 23.414
9.5598 23.259
9.5750 23.063
9.5901 22.907
9.6053 22.949
9.6205 23.102
9.6357 23.361
9.6508 23.357
9.6660 23.401
9.6812 23.620
9.6964 23.576
9.7115 23.393
9.7267 23.439
9.7419 23.472
9.7571 23.132
9.7722 23.550
9.7874 24.093
9.8026 23.688
9.8178 22.989
9.8329 22.998
9.8481 23.185
9.8633 23.342
9.8785 23.211
9.8936 22.976
9.9088 23.135
9.9240 23.378
9.9392 23.271
9.9543 22.998
9.9695 23.224
9.9847 23.384
9.9999 23.356
10.0150 23.248
10.0302 23.502
10.0454 23.448
10.0606 23.190
10.0757 23.139
10.0909 23.261
10.1061 23.373
10.1213 23.186
10.1364 23.010
10.1516 23.089
10.1668 23.218
10.1820 23.118
10.1971 22.793
10.2123 23.014
10.2275 22.969
10.2427 22.708
10.2578 22.936
10.2730 22.770
10.2882 22.409
10.3034 22.720
10.3185 22.737
10.3337 22.613
10.3489 22.478
10.3641 22.499
10.3792 22.588
10.3944 22.700
10.4096 22.311
10.4248 22.377
10.4399 22.534
10.4551 22.854
10.4703 22.938
10.4855 22.924
10.5006 22.706
10.5158 22.624
10.5310 22.554
10.5462 22.501
10.5613 22.568
10.5765 22.589
10.5917 22.685
10.6069 22.590
10.6220 22.566
10.6372 22.547
10.6524 22.315
10.6676 22.566
10.6827 22.590
10.6979 22.739
10.7131 22.325
10.7283 21.929
10.7434 22.311
10.7586 22.506
10.7738 22.498
10.7890 22.236
10.8041 22.237
10.8193 22.391
10.8345 22.329
10.8497 22.090
10.8648 22.365
10.8800 22.061
10.8952 21.839
10.9104 22.329
10.9255 22.300
10.9407 22.008
10.9559 21.988
10.9711 21.638
10.9862 21.851
11.0014 21.969
11.0166 21.884
11.0318 21.769
11.0469 21.273
11.0621 21.420
11.0773 22.081
11.0925 21.573
11.1076 21.909
11.1228 21.603
11.1380 21.911
11.1532 21.629
11.1683 21.608
11.1835 21.673
11.1987 21.644
11.2139 21.866
11.2290 21.481
11.2442 21.594
11.2594 21.737
11.2746 21.576
11.2897 21.417
11.3049 21.149
11.3201 21.372
11.3353 21.537
11.3504 21.526
11.3656 21.489
11.3808 21.450
11.3960 21.521
11.4111 21.309
11.4263 21.208
11.4415 20.880
11.4567 20.681
11.4718 20.788
11.4870 20.842
11.5022 20.768
11.5174 20.895
11.5325 21.042
11.5477 21.111
11.5629 20.949
11.5781 20.663
11.5932 20.771
11.6084 20.617
11.6236 20.758
11.6388 21.016
11.6539 20.651
11.6691 20.814
11.6843 20.626
11.6995 20.599
11.7146 20.863
11.7298 20.274
11.7450 20.195
11.7602 20.206
11.7753 20.182
11.7905 20.007
11.8057 20.113
11.8209 20.067
11.8360 20.051
11.8512 20.145
11.8664 20.225
11.8816 19.887
11.8967 19.687
11.9119 19.643
11.9271 19.685
11.9423 19.514
11.9574 19.413
11.9726 19.254
11.9878 19.001
12.0030 18.908
12.0181 19.123
12.0333 19.054
12.0485 18.973
12.0637 18.963
12.0788 18.861
12.0940 18.575
12.1092 18.678
12.1244 18.565
12.1395 18.221
12.1547 18.403
12.1699 18.138
12.1851 18.421
12.2002 18.364
12.2154 17.907
12.2306 18.084
12.2458 18.084
12.2609 17.937
12.2761 17.932
12.2913 17.687
12.3065 17.867
12.3216 17.288
12.3368 17.171
12.3520 17.425
12.3672 17.421
12.3823 17.321
12.3975 17.220
12.4127 17.032
12.4279 16.875
12.4430 17.005
12.4582 17.030
12.4734 16.736
12.4886 16.664
12.5037 16.685
12.5189 16.606
12.5341 16.601
12.5493 16.623
12.5644 16.466
12.5796 16.314
12.5948 16.210
12.6100 16.072
12.6251 15.893
12.6403 15.583
12.6555 15.699
12.6707 15.761
12.6858 15.658
12.7010 15.574
12.7162 15.328
12.7314 15.303
12.7465 15.523
12.7617 15.310
12.7769 15.409
12.7921 15.247
12.8072 15.059
12.8224 15.293
12.8376 15.114
12.8528 14.950
12.8679 15.015
12.8831 14.826
12.8983 14.661
12.9135 14.584
12.9286 14.530
12.9438 14.466
12.9590 14.300
12.9742 14.051
12.9893 14.171
13.0045 14.146
13.0197 13.948
13.0349 14.277
13.0500 14.339
13.0652 13.999
13.0804 13.873
13.0956 13.815
13.1107 13.536
13.1259 13.693
13.1411 13.683
13.1563 13.470
13.1714 13.553
13.1866 13.280
13.2018 13.089
13.2170 13.300
13.2321 13.406
13.2473 13.436
13.2625 13.253
13.2777 13.170
13.2928 13.339
13.3080 13.239
13.3232 13.328
13.3384 13.348
13.3535 13.222
13.3687 13.001
13.3839 12.950
13.3991 13.084
13.4142 13.179
13.4294 12.785
13.4446 12.635
13.4598 12.853
13.4749 12.732
13.4901 12.534
13.5053 12.479
13.5205 12.552
13.5356 12.494
13.5508 12.466
13.5660 12.491
13.5812 12.580
13.5963 12.177
13.6115 12.225
13.6267 12.514
13.6419 12.260
13.6570 12.181
13.6722 12.088
13.6874 11.867
13.7026 11.978
13.7177 12.068
13.7329 11.813
13.7481 11.821
13.7633 12.107
13.7784 12.127
13.7936 12.055
13.8088 12.039
13.8239 12.071
13.8391 12.457
13.8543 12.273
13.8695 12.299
13.8846 12.367
13.8998 12.118
13.9150 12.168
13.9302 12.096
13.9453 12.000
13.9605 12.095
13.9757 12.080
13.9909 12.160
14.0060 11.911
14.0212 11.757
14.0364 11.512
14.0516 11.428
14.0667 11.472
14.0819 11.558
14.0971 11.538
14.1123 11.536
14.1274 11.780
14.1426 11.752
14.1578 11.609
14.1730 11.824
14.1881 11.693
14.2033 11.706
14.2185 11.781
14.2337 11.669
14.2488 11.782
14.2640 12.026
14.2792 12.018
14.2944 12.088
14.3095 12.238
14.3247 12.101
14.3399 12.055
14.3551 12.236
14.3702 12.837
14.3854 12.977
14.4006 13.030
14.4158 13.028
14.4309 12.685
14.4461 13.024
14.4613 12.664
14.4765 12.496
14.4916 11.850
14.5068 11.809
14.5220 11.450
14.5372 11.168
14.5523 11.473
14.5675 11.511
14.5827 11.005
14.5979 11.017
14.6130 10.869
14.6282 10.787
14.6434 10.905
14.6586 10.734
14.6737 10.826
14.6889 10.558
14.7041 10.201
14.7193 10.743
14.7344 10.552
14.7496 10.753
14.7648 10.712
14.7800 10.520
14.7951 10.615
14.8103 10.451
14.8255 10.314
14.8407 10.274
14.8558 10.561
14.8710 10.939
14.8862 10.538
14.9014 10.577
14.9165 10.771
14.9317 10.604
14.9469 10.438
14.9621 10.666
14.9772 10.317
14.9924 10.152
15.0076 10.510
15.0228 10.204
15.0379 10.341
15.0531 10.115
15.0683 10.428
15.0835 10.157
15.0986 10.382
15.1138 10.330
15.1290 10.354
15.1442 9.864
15.1593 9.951
15.1745 10.363
15.1897 10.174
15.2049 10.244
15.2200 10.442
15.2352 10.406
15.2504 10.123
15.2656 9.892
15.2807 10.206
15.2959 10.116
15.3111 9.965
15.3263 9.963
15.3414 10.241
15.3566 10.159
15.3718 10.140
15.3870 9.911
15.4021 10.085
15.4173 10.323
15.4325 9.984
15.4477 10.273
15.4628 10.211
15.4780 10.112
15.4932 10.195
15.5084 9.965
15.5235 10.076
15.5387 10.194
15.5539 10.092
15.5691 9.731
15.5842 9.813
15.5994 10.084
15.6146 9.873
15.6298 9.858
15.6449 9.562
15.6601 9.680
15.6753 9.956
15.6905 9.763
15.7056 9.822
15.7208 9.952
15.7360 9.429
15.7512 9.457
15.7663 9.437
15.7815 9.761
15.7967 9.706
15.8119 9.672
15.8270 9.904
15.8422 9.942
15.8574 9.688
15.8726 9.763
15.8877 9.770
15.9029 9.570
15.9181 9.448
15.9333 9.398
15.9484 9.397
15.9636 9.546
15.9788 9.812
15.9940 9.645
16.0091 9.545
16.0243 9.622
16.0395 9.510
16.0547 9.624
16.0698 9.734
16.0850 9.791
16.1002 9.607
16.1154 9.593
16.1305 9.807
16.1457 9.872
16.1609 9.643
16.1761 9.679
16.1912 9.499
16.2064 9.540
16.2216 9.713
16.2368 9.674
16.2519 9.656
16.2671 9.483
16.2823 9.879
16.2975 9.888
16.3126 9.891
16.3278 9.909
16.3430 9.958
16.3582 9.929
16.3733 10.023
16.3885 10.024
16.4037 9.994
16.4189 9.927
16.4340 9.895
16.4492 9.746
16.4644 9.598
16.4796 9.517
16.4947 9.644
16.5099 9.694
16.5251 9.952
16.5403 9.733
16.5554 9.490
16.5706 9.656
16.5858 9.727
16.6010 9.688
16.6161 9.796
16.6313 9.671
16.6465 9.467
16.6617 9.663
16.6768 9.744
16.6920 9.802
16.7072 9.853
16.7224 10.021
16.7375 10.001
16.7527 9.842
16.7679 9.866
16.7831 9.899
16.7982 9.766
16.8134 9.742
16.8286 9.661
16.8438 9.606
16.8589 9.555
16.8741 9.632
16.8893 9.835
16.9045 9.773
16.9196 9.784
16.9348 9.782
16.9500 9.511
16.9652 9.506
16.9803 9.656
16.9955 9.880
17.0107 10.065
17.0259 10.051
17.0410 9.984
17.0562 10.250
17.0714 10.309
17.0866 10.326
17.1017 10.597
17.1169 10.751
17.1321 10.974
17.1473 11.326
17.1624 11.822
17.1776 12.395
17.1928 13.011
17.2080 13.710
17.2231 14.662
17.2383 16.303
17.2535 17.827
17.2687 18.402
17.2838 18.409
17.2990 17.923
17.3142 17.003
17.3294 16.425
17.3445 16.439
17.3597 16.382
17.3749 15.793
17.3901 15.180
17.4052 14.338
17.4204 13.306
17.4356 12.707
17.4508 12.250
17.4659 12.037
17.4811 11.809
17.4963 11.510
17.5115 11.420
17.5266 11.216
17.5418 10.972
17.5570 10.833
17.5722 10.746
17.5873 10.961
17.6025 11.311
17.6177 11.232
17.6329 11.020
17.6480 11.266
17.6632 11.402
17.6784 11.316
17.6936 11.514
17.7087 11.413
17.7239 11.211
17.7391 11.259
17.7543 11.112
17.7694 10.815
17.7846 10.813
17.7998 10.832
17.8150 10.626
17.8301 10.656
17.8453 10.382
17.8605 10.253
17.8757 10.333
17.8908 10.213
17.9060 10.230
17.9212 10.207
17.9364 10.118
17.9515 10.144
17.9667 10.191
17.9819 10.094
17.9971 9.944
18.0122 10.007
18.0274 10.160
18.0426 10.133
18.0578 9.927
18.0729 9.915
18.0881 9.867
18.1033 9.915
18.1185 9.957
18.1336 9.850
18.1488 10.142
18.1640 10.232
18.1792 10.047
18.1943 9.760
18.2095 9.735
18.2247 9.886
18.2399 9.924
18.2550 10.108
18.2702 9.946
18.2854 9.753
18.3006 9.472
18.3157 9.508
18.3309 9.762
18.3461 9.931
18.3613 9.953
18.3764 9.801
18.3916 9.791
18.4068 9.716
18.4220 9.785
18.4371 9.866
18.4523 9.903
18.4675 9.790
18.4827 9.826
18.4978 9.740
18.5130 9.632
18.5282 9.778
18.5434 9.770
18.5585 9.590
18.5737 9.598
18.5889 9.685
18.6041 9.928
18.6192 9.944
18.6344 9.803
18.6496 9.710
18.6648 9.731
18.6799 9.912
18.6951 10.028
18.7103 9.829
18.7255 9.763
18.7406 9.971
18.7558 9.723
18.7710 9.797
18.7862 9.951
18.8013 9.795
18.8165 9.610
18.8317 9.839
18.8469 10.016
18.8620 9.748
18.8772 9.700
18.8924 9.872
18.9076 9.849
18.9227 9.795
18.9379 10.079
18.9531 10.143
18.9683 9.797
18.9834 9.895
18.9986 9.971
19.0138 10.061
19.0290 9.903
19.0441 9.711
19.0593 9.994
19.0745 10.242
19.0897 10.389
19.1048 10.465
19.1200 10.295
19.1352 10.424
19.1504 10.655
19.1655 10.502
19.1807 10.312
19.1959 10.273
19.2111 10.424
19.2262 10.740
19.2414 10.879
19.2566 11.029
19.2718 10.932
19.2869 10.660
19.3021 10.628
19.3173 10.813
19.3325 10.906
19.3476 10.845
19.3628 10.896
19.3780 11.108
19.3932 11.270
19.4083 11.299
19.4235 11.085
19.4387 11.086
19.4539 11.131
19.4690 11.321
19.4842 11.353
19.4994 11.534
19.5146 11.413
19.5297 11.221
19.5449 11.114
19.5601 11.194
19.5753 11.407
19.5904 11.364
19.6056 11.483
19.6208 11.756
19.6360 11.836
19.6511 11.869
19.6663 11.558
19.6815 11.429
19.6967 11.613
19.7118 11.637
19.7270 11.571
19.7422 11.613
19.7574 11.832
19.7725 11.845
19.7877 11.731
19.8029 11.776
19.8180 11.876
19.8332 11.932
19.8484 12.035
19.8636 12.240
19.8787 12.652
19.8939 12.897
19.9091 13.027
19.9243 13.458
19.9394 13.851
19.9546 14.077
19.9698 14.389
19.9850 14.509
20.0001 14.385
20.0153 14.250
20.0305 14.238
20.0457 14.004
20.0608 13.794
20.0760 13.610
20.0912 13.484
20.1064 13.418
20.1215 13.308
20.1367 13.274
20.1519 13.135
20.1671 12.984
20.1822 13.003
20.1974 12.750
20.2126 12.543
20.2278 12.523
20.2429 12.509
20.2581 12.346
20.2733 12.049
20.2885 11.858
20.3036 11.793
20.3188 11.873
20.3340 11.880
20.3492 11.973
20.3643 11.894
20.3795 11.973
20.3947 11.891
20.4099 11.930
20.4250 11.777
20.4402 11.870
20.4554 11.760
20.4706 11.606
20.4857 11.708
20.5009 11.491
20.5161 11.382
20.5313 11.404
20.5464 11.432
20.5616 11.437
20.5768 11.310
20.5920 10.962
20.6071 10.960
20.6223 10.721
20.6375 10.730
20.6527 10.535
20.6678 10.810
20.6830 10.565
20.6982 10.272
20.7134 10.437
20.7285 10.511
20.7437 10.847
20.7589 10.748
20.7741 10.426
20.7892 10.454
20.8044 10.132
20.8196 10.313
20.8348 9.948
20.8499 9.959
20.8651 10.553
20.8803 10.125
20.8955 10.107
20.9106 10.141
20.9258 9.785
20.9410 10.087
20.9562 10.104
20.9713 10.151
20.9865 10.091
21.0017 10.387
21.0169 9.992
21.0320 9.895
21.0472 9.480
21.0624 10.020
21.0776 10.195
21.0927 10.003
21.1079 10.051
21.1231 9.759
21.1383 9.753
21.1534 9.891
21.1686 9.792
21.1838 10.021
21.1990 9.410
21.2141 9.810
21.2293 9.936
21.2445 9.816
21.2597 9.265
21.2748 9.627
21.2900 9.318
21.3052 9.544
21.3204 9.392
21.3355 9.401
21.3507 9.540
21.3659 9.540
21.3811 9.410
21.3962 9.716
21.4114 9.393
21.4266 9.322
21.4418 9.492
21.4569 9.266
21.4721 9.289
21.4873 9.065
21.5025 9.245
21.5176 9.274
21.5328 9.518
21.5480 9.535
21.5632 9.195
21.5783 9.516
21.5935 9.265
21.6087 9.345
21.6239 9.332
21.6390 9.266
21.6542 9.190
21.6694 8.795
21.6846 9.029
21.6997 9.186
21.7149 9.235
21.7301 9.169
21.7453 9.340
21.7604 9.129
21.7756 9.175
21.7908 9.211
21.8060 9.032
21.8211 9.323
21.8363 9.251
21.8515 9.196
21.8667 9.038
21.8818 9.021
21.8970 9.148
21.9122 8.924
21.9274 8.966
21.9425 8.987
21.9577 8.754
21.9729 8.710
21.9881 8.623
22.0032 8.881
22.0184 8.924
22.0336 8.801
22.0488 8.766
22.0639 8.755
22.0791 8.786
22.0943 8.891
22.1095 8.829
22.1246 8.593
22.1398 8.569
22.1550 8.564
22.1702 8.499
22.1853 8.815
22.2005 8.882
22.2157 8.707
22.2309 8.813
22.2460 8.706
22.2612 8.705
22.2764 8.764
22.2916 8.635
22.3067 8.644
22.3219 8.497
22.3371 8.819
22.3523 8.706
22.3674 8.344
22.3826 8.337
22.3978 8.489
22.4130 8.384
22.4281 8.534
22.4433 8.486
22.4585 8.252
22.4737 8.343
22.4888 8.317
22.5040 8.509
22.5192 8.486
22.5344 8.467
22.5495 8.527
22.5647 8.359
22.5799 8.493
22.5951 8.398
22.6102 8.264
22.6254 8.412
22.6406 8.263
22.6558 8.270
22.6709 8.472
22.6861 8.153
22.7013 8.080
22.7165 7.782
22.7316 6.365
