'Id: "" Comment: "" Operator: "Lab Manager" Anode: "Mo" Scantype: "Still (Eiger2R_500K (1D mode))" TimePerStep: "300" X: "11.8" Y: "9.4" Z: "11.284" 
7.2532 18.605
7.2684 18.802
7.2836 18.603
7.2987 19.192
7.3139 19.229
7.3291 19.385
7.3443 18.946
7.3594 19.033
7.3746 19.391
7.3898 18.976
7.4050 19.250
7.4201 19.387
7.4353 19.066
7.4505 19.368
7.4657 19.450
7.4808 19.855
7.4960 19.175
7.5112 19.540
7.5264 19.579
7.5415 19.723
7.5567 19.824
7.5719 19.866
7.5871 19.755
7.6022 19.723
7.6174 19.881
7.6326 19.812
7.6478 20.148
7.6629 19.893
7.6781 19.977
7.6933 20.028
7.7085 20.155
7.7236 20.336
7.7388 20.452
7.7540 20.358
7.7692 20.099
7.7843 20.241
7.7995 20.171
7.8147 20.226
7.8299 20.424
7.8450 20.596
7.8602 20.628
7.8754 20.484
7.8905 20.463
7.9057 20.456
7.9209 20.520
7.9361 20.489
7.9512 20.560
7.9664 20.718
7.9816 20.905
7.9968 20.605
8.0119 20.512
8.0271 20.716
8.0423 20.972
8.0575 21.076
8.0726 20.941
8.0878 21.015
8.1030 21.059
8.1182 20.955
8.1333 20.823
8.1485 20.791
8.1637 21.003
8.1789 21.116
8.1940 21.397
8.2092 21.730
8.2244 21.126
8.2396 21.249
8.2547 21.389
8.2699 21.044
8.2851 21.376
8.3003 21.559
8.3154 21.372
8.3306 21.148
8.3458 21.834
8.3610 21.889
8.3761 21.679
8.3913 21.344
8.4065 21.656
8.4217 21.899
8.4368 22.098
8.4520 21.515
8.4672 22.116
8.4824 21.620
8.4975 21.645
8.5127 21.870
8.5279 21.896
8.5431 22.072
8.5582 22.023
8.5734 22.467
8.5886 22.311
8.6038 22.032
8.6189 22.193
8.6341 22.216
8.6493 22.501
8.6645 22.034
8.6796 22.451
8.6948 21.979
8.7100 22.858
8.7252 22.128
8.7403 22.003
8.7555 21.890
8.7707 22.349
8.7859 22.814
8.8010 22.092
8.8162 22.357
8.8314 21.983
8.8466 22.431
8.8617 22.317
8.8769 22.299
8.8921 22.312
8.9073 22.386
8.9224 22.443
8.9376 22.364
8.9528 22.709
8.9680 22.620
8.9831 22.605
8.9983 22.715
9.0135 22.589
9.0287 22.553
9.0438 22.696
9.0590 22.567
9.0742 22.458
9.0894 22.699
9.1045 22.726
9.1197 22.542
9.1349 22.341
9.1501 22.406
9.1652 22.703
9.1804 22.651
9.1956 22.564
9.2108 22.757
9.2259 22.862
9.2411 22.758
9.2563 22.892
9.2715 22.946
9.2866 23.066
9.3018 22.914
9.3170 22.535
9.3322 22.647
9.3473 22.888
9.3625 22.778
9.3777 22.800
9.3929 23.139
9.4080 23.029
9.4232 23.553
9.4384 23.340
9.4536 22.701
9.4687 22.811
9.4839 22.857
9.4991 22.736
9.5143 22.991
9.5294 23.030
9.5446 22.845
9.5598 22.947
9.5750 23.019
9.5901 23.140
9.6053 23.169
9.6205 23.155
9.6357 23.276
9.6508 23.171
9.6660 23.385
9.6812 23.340
9.6964 23.545
9.7115 23.716
9.7267 23.995
9.7419 24.317
9.7571 24.092
9.7722 23.792
9.7874 23.766
9.8026 23.621
9.8178 23.431
9.8329 23.436
9.8481 23.659
9.8633 23.818
9.8785 23.218
9.8936 23.009
9.9088 23.255
9.9240 23.170
9.9392 23.078
9.9543 23.167
9.9695 23.199
9.9847 22.994
9.9999 22.783
10.0150 22.875
10.0302 23.216
10.0454 23.121
10.0606 23.066
10.0757 23.239
10.0909 23.157
10.1061 22.992
10.1213 22.882
10.1364 22.910
10.1516 22.996
10.1668 23.215
10.1820 23.452
10.1971 23.296
10.2123 23.202
10.2275 23.070
10.2427 22.517
10.2578 22.526
10.2730 22.857
10.2882 22.963
10.3034 22.824
10.3185 22.776
10.3337 22.844
10.3489 22.352
10.3641 22.303
10.3792 22.768
10.3944 22.667
10.4096 22.598
10.4248 22.660
10.4399 22.757
10.4551 22.774
10.4703 22.786
10.4855 22.944
10.5006 22.368
10.5158 22.388
10.5310 22.639
10.5462 22.755
10.5613 22.586
10.5765 22.312
10.5917 22.245
10.6069 22.487
10.6220 22.433
10.6372 22.588
10.6524 22.237
10.6676 22.591
10.6827 22.380
10.6979 22.177
10.7131 22.046
10.7283 22.374
10.7434 22.287
10.7586 22.068
10.7738 22.215
10.7890 22.127
10.8041 22.206
10.8193 22.041
10.8345 22.096
10.8497 21.935
10.8648 21.693
10.8800 22.206
10.8952 22.282
10.9104 22.426
10.9255 22.133
10.9407 22.054
10.9559 22.036
10.9711 22.034
10.9862 22.235
11.0014 22.014
11.0166 21.959
11.0318 21.984
11.0469 21.680
11.0621 21.760
11.0773 21.844
11.0925 21.668
11.1076 21.858
11.1228 21.642
11.1380 21.765
11.1532 22.111
11.1683 22.034
11.1835 21.693
11.1987 21.351
11.2139 21.399
11.2290 21.820
11.2442 21.993
11.2594 21.391
11.2746 21.447
11.2897 21.313
11.3049 21.398
11.3201 21.394
11.3353 21.355
11.3504 21.471
11.3656 21.676
11.3808 21.253
11.3960 21.192
11.4111 21.235
11.4263 21.105
11.4415 21.355
11.4567 21.119
11.4718 21.284
11.4870 21.272
11.5022 20.727
11.5174 20.650
11.5325 20.808
11.5477 20.573
11.5629 20.718
11.5781 20.658
11.5932 20.646
11.6084 20.760
11.6236 20.765
11.6388 20.195
11.6539 20.270
11.6691 20.590
11.6843 20.388
11.6995 20.334
11.7146 20.149
11.7298 20.048
11.7450 20.455
11.7602 20.528
11.7753 20.370
11.7905 20.550
11.8057 20.290
11.8209 20.250
11.8360 19.973
11.8512 19.953
11.8664 20.152
11.8816 20.110
11.8967 19.612
11.9119 19.559
11.9271 19.524
11.9423 19.606
11.9574 19.348
11.9726 19.190
11.9878 19.185
12.0030 19.527
12.0181 19.207
12.0333 18.899
12.0485 18.969
12.0637 18.644
12.0788 18.701
12.0940 18.952
12.1092 18.782
12.1244 18.611
12.1395 18.626
12.1547 18.601
12.1699 18.221
12.1851 18.291
12.2002 18.158
12.2154 17.929
12.2306 18.036
12.2458 17.837
12.2609 17.507
12.2761 17.645
12.2913 17.977
12.3065 17.630
12.3216 17.440
12.3368 17.625
12.3520 17.452
12.3672 17.083
12.3823 17.032
12.3975 17.328
12.4127 17.052
12.4279 17.060
12.4430 16.902
12.4582 16.853
12.4734 16.875
12.4886 16.749
12.5037 16.482
12.5189 16.578
12.5341 16.733
12.5493 16.561
12.5644 16.267
12.5796 16.077
12.5948 16.048
12.6100 15.852
12.6251 15.790
12.6403 15.833
12.6555 15.716
12.6707 15.617
12.6858 15.367
12.7010 15.549
12.7162 15.704
12.7314 15.594
12.7465 15.432
12.7617 15.448
12.7769 15.341
12.7921 15.157
12.8072 14.899
12.8224 14.910
12.8376 14.888
12.8528 14.890
12.8679 14.884
12.8831 14.712
12.8983 14.570
12.9135 14.602
12.9286 14.725
12.9438 14.591
12.9590 14.384
12.9742 14.431
12.9893 14.398
13.0045 14.267
13.0197 14.272
13.0349 14.237
13.0500 14.043
13.0652 13.857
13.0804 13.795
13.0956 14.075
13.1107 14.099
13.1259 13.906
13.1411 13.665
13.1563 13.327
13.1714 13.607
13.1866 13.589
13.2018 13.185
13.2170 13.218
13.2321 13.246
13.2473 13.261
13.2625 13.177
13.2777 12.986
13.2928 13.096
13.3080 13.146
13.3232 13.134
13.3384 13.129
13.3535 13.124
13.3687 13.146
13.3839 12.987
13.3991 13.068
13.4142 13.258
13.4294 13.145
13.4446 12.602
13.4598 12.511
13.4749 12.785
13.4901 12.524
13.5053 12.480
13.5205 12.595
13.5356 12.454
13.5508 12.404
13.5660 12.065
13.5812 12.005
13.5963 12.236
13.6115 12.211
13.6267 12.011
13.6419 12.016
13.6570 12.007
13.6722 12.056
13.6874 12.179
13.7026 11.840
13.7177 11.896
13.7329 12.200
13.7481 12.157
13.7633 11.762
13.7784 12.091
13.7936 12.331
13.8088 12.097
13.8239 12.212
13.8391 12.368
13.8543 12.448
13.8695 12.199
13.8846 12.084
13.8998 12.112
13.9150 11.998
13.9302 12.030
13.9453 12.040
13.9605 11.876
13.9757 11.894
13.9909 11.919
14.0060 11.916
14.0212 11.733
14.0364 11.864
14.0516 11.817
14.0667 11.695
14.0819 11.715
14.0971 11.727
14.1123 11.615
14.1274 11.376
14.1426 11.945
14.1578 12.030
14.1730 11.697
14.1881 11.738
14.2033 11.689
14.2185 11.617
14.2337 11.438
14.2488 11.731
14.2640 11.904
14.2792 11.695
14.2944 11.883
14.3095 11.964
14.3247 12.286
14.3399 12.173
14.3551 12.426
14.3702 12.656
14.3854 12.825
14.4006 12.848
14.4158 13.103
14.4309 12.808
14.4461 12.616
14.4613 12.583
14.4765 12.360
14.4916 12.350
14.5068 12.098
14.5220 11.687
14.5372 11.424
14.5523 11.130
14.5675 11.256
14.5827 11.085
14.5979 10.993
14.6130 10.756
14.6282 10.827
14.6434 10.700
14.6586 10.654
14.6737 10.701
14.6889 10.506
14.7041 10.411
14.7193 10.715
14.7344 10.682
14.7496 10.591
14.7648 10.375
14.7800 10.405
14.7951 10.233
14.8103 10.321
14.8255 10.743
14.8407 10.422
14.8558 10.548
14.8710 10.635
14.8862 10.624
14.9014 10.440
14.9165 10.559
14.9317 10.555
14.9469 10.462
14.9621 10.708
14.9772 10.181
14.9924 10.217
15.0076 10.315
15.0228 10.140
15.0379 10.324
15.0531 10.375
15.0683 10.278
15.0835 10.456
15.0986 9.906
15.1138 10.255
15.1290 10.490
15.1442 10.449
15.1593 10.126
15.1745 10.280
15.1897 10.129
15.2049 10.253
15.2200 10.361
15.2352 9.844
15.2504 10.207
15.2656 9.960
15.2807 9.948
15.2959 10.048
15.3111 10.243
15.3263 9.996
15.3414 10.221
15.3566 10.095
15.3718 10.074
15.3870 10.081
15.4021 10.099
15.4173 10.444
15.4325 10.417
15.4477 9.952
15.4628 10.015
15.4780 10.282
15.4932 10.089
15.5084 10.043
15.5235 9.929
15.5387 9.958
15.5539 9.857
15.5691 10.044
15.5842 9.707
15.5994 9.909
15.6146 9.772
15.6298 9.769
15.6449 10.016
15.6601 9.870
15.6753 9.718
15.6905 9.533
15.7056 9.688
15.7208 9.696
15.7360 9.653
15.7512 9.738
15.7663 9.582
15.7815 9.402
15.7967 9.447
15.8119 9.723
15.8270 9.685
15.8422 9.721
15.8574 9.721
15.8726 9.449
15.8877 9.432
15.9029 9.414
15.9181 9.430
15.9333 9.855
15.9484 9.879
15.9636 9.691
15.9788 9.397
15.9940 9.445
16.0091 9.579
16.0243 9.386
16.0395 9.454
16.0547 9.599
16.0698 9.395
16.0850 9.533
16.1002 9.573
16.1154 9.642
16.1305 9.424
16.1457 9.538
16.1609 9.568
16.1761 9.794
16.1912 9.734
16.2064 9.552
16.2216 9.626
16.2368 9.841
16.2519 9.524
16.2671 9.809
16.2823 9.906
16.2975 9.892
16.3126 9.818
16.3278 9.916
16.3430 10.124
16.3582 9.976
16.3733 9.794
16.3885 9.949
16.4037 9.810
16.4189 9.829
16.4340 9.634
16.4492 9.473
16.4644 9.364
16.4796 9.458
16.4947 9.546
16.5099 9.644
16.5251 9.655
16.5403 9.684
16.5554 9.431
16.5706 9.397
16.5858 9.634
16.6010 9.491
16.6161 9.291
16.6313 9.432
16.6465 9.492
16.6617 9.452
16.6768 9.716
16.6920 9.646
16.7072 9.822
16.7224 10.035
16.7375 9.988
16.7527 9.666
16.7679 9.736
16.7831 10.023
16.7982 9.938
16.8134 9.928
16.8286 10.006
16.8438 9.916
16.8589 9.765
16.8741 9.619
16.8893 9.750
16.9045 9.672
16.9196 9.635
16.9348 9.893
16.9500 9.745
16.9652 9.603
16.9803 9.773
16.9955 9.753
17.0107 9.625
17.0259 9.729
17.0410 9.929
17.0562 10.142
17.0714 10.364
17.0866 10.327
17.1017 10.361
17.1169 10.673
17.1321 10.885
17.1473 11.225
17.1624 11.926
17.1776 12.409
17.1928 13.072
17.2080 13.933
17.2231 14.972
17.2383 16.324
17.2535 17.601
17.2687 18.203
17.2838 18.726
17.2990 18.300
17.3142 17.060
17.3294 16.481
17.3445 16.108
17.3597 15.944
17.3749 15.661
17.3901 15.191
17.4052 14.651
17.4204 13.732
17.4356 12.618
17.4508 11.994
17.4659 11.806
17.4811 11.603
17.4963 11.366
17.5115 11.130
17.5266 11.059
17.5418 10.996
17.5570 10.969
17.5722 11.226
17.5873 11.197
17.6025 11.011
17.6177 11.202
17.6329 11.171
17.6480 11.189
17.6632 11.371
17.6784 11.421
17.6936 11.438
17.7087 11.390
17.7239 11.395
17.7391 11.370
17.7543 11.136
17.7694 10.939
17.7846 11.294
17.7998 11.176
17.8150 10.715
17.8301 10.606
17.8453 10.475
17.8605 10.249
17.8757 10.166
17.8908 10.203
17.9060 10.064
17.9212 9.983
17.9364 10.057
17.9515 10.182
17.9667 10.203
17.9819 10.198
17.9971 10.350
18.0122 10.397
18.0274 10.146
18.0426 10.138
18.0578 10.139
18.0729 10.059
18.0881 9.896
18.1033 9.829
18.1185 10.190
18.1336 10.293
18.1488 9.931
18.1640 9.798
18.1792 9.637
18.1943 9.741
18.2095 9.874
18.2247 9.920
18.2399 10.058
18.2550 9.968
18.2702 9.808
18.2854 9.789
18.3006 9.749
18.3157 9.801
18.3309 9.902
18.3461 9.893
18.3613 9.791
18.3764 9.717
18.3916 9.798
18.4068 9.770
18.4220 9.636
18.4371 9.858
18.4523 9.887
18.4675 9.995
18.4827 9.774
18.4978 9.637
18.5130 9.758
18.5282 9.710
18.5434 9.611
18.5585 9.827
18.5737 9.795
18.5889 9.717
18.6041 9.768
18.6192 9.721
18.6344 9.673
18.6496 9.728
18.6648 9.629
18.6799 9.534
18.6951 9.831
18.7103 9.875
18.7255 9.688
18.7406 9.515
18.7558 9.686
18.7710 9.708
18.7862 9.818
18.8013 9.901
18.8165 9.907
18.8317 9.991
18.8469 9.975
18.8620 9.869
18.8772 10.048
18.8924 10.017
18.9076 9.955
18.9227 10.200
18.9379 10.094
18.9531 9.823
18.9683 9.950
18.9834 9.818
18.9986 10.013
19.0138 10.007
19.0290 9.981
19.0441 10.193
19.0593 10.128
19.0745 10.066
19.0897 10.140
19.1048 10.252
19.1200 10.529
19.1352 10.593
19.1504 10.603
19.1655 10.626
19.1807 10.583
19.1959 10.618
19.2111 10.489
19.2262 10.524
19.2414 10.740
19.2566 10.873
19.2718 10.894
19.2869 10.912
19.3021 10.866
19.3173 10.873
19.3325 10.794
19.3476 10.767
19.3628 11.149
19.3780 11.194
19.3932 11.154
19.4083 11.355
19.4235 11.290
19.4387 11.467
19.4539 11.506
19.4690 11.299
19.4842 11.388
19.4994 11.328
19.5146 11.353
19.5297 11.510
19.5449 11.755
19.5601 11.962
19.5753 11.877
19.5904 11.647
19.6056 11.560
19.6208 11.701
19.6360 11.848
19.6511 11.699
19.6663 11.600
19.6815 11.665
19.6967 11.805
19.7118 11.923
19.7270 11.709
19.7422 11.708
19.7574 11.830
19.7725 11.786
19.7877 11.665
19.8029 11.839
19.8180 12.100
19.8332 12.012
19.8484 12.356
19.8636 12.504
19.8787 12.588
19.8939 13.024
19.9091 13.328
19.9243 13.564
19.9394 13.857
19.9546 14.014
19.9698 14.121
19.9850 14.241
20.0001 14.423
20.0153 14.247
20.0305 13.989
20.0457 13.984
20.0608 14.243
20.0760 14.121
20.0912 13.911
20.1064 13.632
20.1215 13.338
20.1367 13.448
20.1519 13.243
20.1671 13.051
20.1822 13.018
20.1974 12.981
20.2126 12.884
20.2278 13.040
20.2429 12.833
20.2581 12.452
20.2733 12.108
20.2885 11.972
20.3036 12.001
20.3188 12.209
20.3340 12.196
20.3492 11.945
20.3643 11.829
20.3795 11.855
20.3947 11.878
20.4099 11.842
20.4250 11.633
20.4402 11.866
20.4554 11.899
20.4706 11.853
20.4857 11.601
20.5009 11.599
20.5161 11.615
20.5313 11.513
20.5464 11.643
20.5616 11.283
20.5768 11.132
20.5920 11.055
20.6071 10.721
20.6223 10.831
20.6375 10.892
20.6527 10.963
20.6678 10.872
20.6830 10.546
20.6982 10.628
20.7134 10.711
20.7285 10.828
20.7437 10.516
20.7589 10.196
20.7741 10.377
20.7892 10.836
20.8044 10.541
20.8196 10.542
20.8348 10.415
20.8499 10.210
20.8651 10.192
20.8803 10.263
20.8955 10.203
20.9106 10.433
20.9258 10.492
20.9410 10.180
20.9562 10.166
20.9713 10.352
20.9865 10.254
21.0017 10.024
21.0169 10.243
21.0320 10.158
21.0472 9.940
21.0624 9.987
21.0776 10.216
21.0927 9.707
21.1079 9.796
21.1231 9.562
21.1383 9.690
21.1534 9.705
21.1686 9.922
21.1838 10.178
21.1990 9.653
21.2141 9.700
21.2293 9.647
21.2445 9.434
21.2597 9.654
21.2748 9.830
21.2900 9.514
21.3052 9.715
21.3204 9.834
21.3355 9.628
21.3507 9.476
21.3659 9.468
21.3811 9.579
21.3962 9.296
21.4114 9.178
21.4266 9.587
21.4418 9.391
21.4569 9.447
21.4721 9.394
21.4873 9.455
21.5025 9.418
21.5176 9.178
21.5328 9.163
21.5480 9.261
21.5632 9.333
21.5783 9.520
21.5935 9.561
21.6087 9.240
21.6239 9.097
21.6390 9.052
21.6542 9.250
21.6694 9.295
21.6846 9.035
21.6997 9.075
21.7149 9.011
21.7301 9.063
21.7453 8.990
21.7604 8.896
21.7756 8.981
21.7908 9.072
21.8060 9.009
21.8211 9.027
21.8363 9.011
21.8515 9.149
21.8667 9.173
21.8818 9.359
21.8970 9.222
21.9122 8.925
21.9274 8.952
21.9425 8.982
21.9577 8.869
21.9729 8.842
21.9881 8.808
22.0032 8.726
22.0184 8.748
22.0336 8.667
22.0488 8.763
22.0639 8.875
22.0791 8.815
22.0943 8.578
22.1095 8.623
22.1246 8.873
22.1398 8.728
22.1550 8.744
22.1702 8.621
22.1853 8.796
22.2005 8.620
22.2157 8.564
22.2309 8.648
22.2460 8.635
22.2612 8.544
22.2764 8.610
22.2916 8.875
22.3067 8.469
22.3219 8.772
22.3371 8.724
22.3523 8.619
22.3674 8.395
22.3826 8.436
22.3978 8.533
22.4130 8.653
22.4281 8.524
22.4433 8.457
22.4585 8.439
22.4737 8.672
22.4888 8.621
22.5040 8.526
22.5192 8.378
22.5344 8.520
22.5495 8.521
22.5647 8.631
22.5799 8.389
22.5951 8.670
22.6102 8.941
22.6254 8.413
22.6406 8.670
22.6558 8.229
22.6709 7.973
22.6861 8.488
22.7013 8.140
22.7165 7.649
22.7316 6.537
