'Id: "" Comment: "" Operator: "Lab Manager" Anode: "Mo" Scantype: "Still (Eiger2R_500K (1D mode))" TimePerStep: "300" X: "11.8" Y: "9.4" Z: "11.284" 
7.2532 18.787
7.2684 19.054
7.2836 18.519
7.2987 18.892
7.3139 19.373
7.3291 19.120
7.3443 19.336
7.3594 19.022
7.3746 19.082
7.3898 19.209
7.4050 19.233
7.4201 19.548
7.4353 19.638
7.4505 19.757
7.4657 19.543
7.4808 19.066
7.4960 19.013
7.5112 19.235
7.5264 19.883
7.5415 19.461
7.5567 19.609
7.5719 19.612
7.5871 19.425
7.6022 19.398
7.6174 19.717
7.6326 19.765
7.6478 19.789
7.6629 19.848
7.6781 19.798
7.6933 19.866
7.7085 20.269
7.7236 20.390
7.7388 20.421
7.7540 20.537
7.7692 20.479
7.7843 20.277
7.7995 20.364
7.8147 20.343
7.8299 20.190
7.8450 20.444
7.8602 20.329
7.8754 20.526
7.8905 20.572
7.9057 20.389
7.9209 20.556
7.9361 20.770
7.9512 20.767
7.9664 20.791
7.9816 20.932
7.9968 21.024
8.0119 21.096
8.0271 20.895
8.0423 20.693
8.0575 20.636
8.0726 20.832
8.0878 21.410
8.1030 21.463
8.1182 21.738
8.1333 21.102
8.1485 21.124
8.1637 21.592
8.1789 21.505
8.1940 21.232
8.2092 21.160
8.2244 20.932
8.2396 21.324
8.2547 21.151
8.2699 21.125
8.2851 21.566
8.3003 21.568
8.3154 21.260
8.3306 20.827
8.3458 21.160
8.3610 21.339
8.3761 20.994
8.3913 21.836
8.4065 21.994
8.4217 21.528
8.4368 21.889
8.4520 21.611
8.4672 21.351
8.4824 21.786
8.4975 22.048
8.5127 22.288
8.5279 21.540
8.5431 21.875
8.5582 22.032
8.5734 21.493
8.5886 21.707
8.6038 22.116
8.6189 22.002
8.6341 22.084
8.6493 22.132
8.6645 22.044
8.6796 22.048
8.6948 22.098
8.7100 22.228
8.7252 22.156
8.7403 22.337
8.7555 21.877
8.7707 22.432
8.7859 22.319
8.8010 22.001
8.8162 22.284
8.8314 22.341
8.8466 22.354
8.8617 22.673
8.8769 22.331
8.8921 22.379
8.9073 22.570
8.9224 22.006
8.9376 21.769
8.9528 22.365
8.9680 22.645
8.9831 22.319
8.9983 21.984
9.0135 22.034
9.0287 22.180
9.0438 22.236
9.0590 22.786
9.0742 22.775
9.0894 22.545
9.1045 22.515
9.1197 22.621
9.1349 22.634
9.1501 22.289
9.1652 22.521
9.1804 22.734
9.1956 22.601
9.2108 22.794
9.2259 22.883
9.2411 22.556
9.2563 22.391
9.2715 22.797
9.2866 22.948
9.3018 22.709
9.3170 22.873
9.3322 23.037
9.3473 22.757
9.3625 22.770
9.3777 22.753
9.3929 22.376
9.4080 22.909
9.4232 23.124
9.4384 22.880
9.4536 22.805
9.4687 22.798
9.4839 23.098
9.4991 22.919
9.5143 22.862
9.5294 22.510
9.5446 22.767
9.5598 23.256
9.5750 23.189
9.5901 23.060
9.6053 23.326
9.6205 23.471
9.6357 23.272
9.6508 23.328
9.6660 23.170
9.6812 22.891
9.6964 23.458
9.7115 24.026
9.7267 24.032
9.7419 24.055
9.7571 24.133
9.7722 23.839
9.7874 23.572
9.8026 23.512
9.8178 23.191
9.8329 23.210
9.8481 23.463
9.8633 23.338
9.8785 23.011
9.8936 23.110
9.9088 23.129
9.9240 23.023
9.9392 23.184
9.9543 23.267
9.9695 23.073
9.9847 23.089
9.9999 23.125
10.0150 23.003
10.0302 23.121
10.0454 23.056
10.0606 22.774
10.0757 22.942
10.0909 22.862
10.1061 23.134
10.1213 23.223
10.1364 23.151
10.1516 23.345
10.1668 22.858
10.1820 22.886
10.1971 23.291
10.2123 23.218
10.2275 22.861
10.2427 22.604
10.2578 22.859
10.2730 23.013
10.2882 22.743
10.3034 22.398
10.3185 22.511
10.3337 22.548
10.3489 22.422
10.3641 23.145
10.3792 22.880
10.3944 22.467
10.4096 22.226
10.4248 22.281
10.4399 22.427
10.4551 22.207
10.4703 22.544
10.4855 22.810
10.5006 22.652
10.5158 22.393
10.5310 22.379
10.5462 22.546
10.5613 22.149
10.5765 22.205
10.5917 22.540
10.6069 22.150
10.6220 22.169
10.6372 22.579
10.6524 22.455
10.6676 22.768
10.6827 22.493
10.6979 22.208
10.7131 22.180
10.7283 22.054
10.7434 22.262
10.7586 22.234
10.7738 22.067
10.7890 22.239
10.8041 22.124
10.8193 21.911
10.8345 22.233
10.8497 22.214
10.8648 22.141
10.8800 22.031
10.8952 21.992
10.9104 22.048
10.9255 21.773
10.9407 22.097
10.9559 21.716
10.9711 21.617
10.9862 21.990
11.0014 22.089
11.0166 21.899
11.0318 21.857
11.0469 22.004
11.0621 21.660
11.0773 21.659
11.0925 22.037
11.1076 21.576
11.1228 21.776
11.1380 21.489
11.1532 21.376
11.1683 21.660
11.1835 21.874
11.1987 21.410
11.2139 21.484
11.2290 21.590
11.2442 21.585
11.2594 21.508
11.2746 21.462
11.2897 21.428
11.3049 21.497
11.3201 21.285
11.3353 21.279
11.3504 21.228
11.3656 21.087
11.3808 21.004
11.3960 21.461
11.4111 21.603
11.4263 21.098
11.4415 21.125
11.4567 21.371
11.4718 21.029
11.4870 20.732
11.5022 20.851
11.5174 21.097
11.5325 20.860
11.5477 20.978
11.5629 20.858
11.5781 20.694
11.5932 20.425
11.6084 20.755
11.6236 20.790
11.6388 20.820
11.6539 20.258
11.6691 20.489
11.6843 20.472
11.6995 20.550
11.7146 20.353
11.7298 20.080
11.7450 20.209
11.7602 20.017
11.7753 19.903
11.7905 19.969
11.8057 20.078
11.8209 19.671
11.8360 19.566
11.8512 19.915
11.8664 19.595
11.8816 19.577
11.8967 19.742
11.9119 19.462
11.9271 19.281
11.9423 19.340
11.9574 19.427
11.9726 19.441
11.9878 19.175
12.0030 19.233
12.0181 18.939
12.0333 18.830
12.0485 19.126
12.0637 18.821
12.0788 18.865
12.0940 18.679
12.1092 18.556
12.1244 18.354
12.1395 18.234
12.1547 18.214
12.1699 18.379
12.1851 18.447
12.2002 18.354
12.2154 18.143
12.2306 17.944
12.2458 17.880
12.2609 17.617
12.2761 17.629
12.2913 17.815
12.3065 17.674
12.3216 17.370
12.3368 17.416
12.3520 17.542
12.3672 17.501
12.3823 17.358
12.3975 17.204
12.4127 17.089
12.4279 16.905
12.4430 16.917
12.4582 16.963
12.4734 16.707
12.4886 16.686
12.5037 16.743
12.5189 16.573
12.5341 16.158
12.5493 16.128
12.5644 16.268
12.5796 15.913
12.5948 15.951
12.6100 16.226
12.6251 15.937
12.6403 15.824
12.6555 15.685
12.6707 15.656
12.6858 15.780
12.7010 15.739
12.7162 15.433
12.7314 15.307
12.7465 15.231
12.7617 15.268
12.7769 15.346
12.7921 15.000
12.8072 14.964
12.8224 14.952
12.8376 14.775
12.8528 14.630
12.8679 14.744
12.8831 14.807
12.8983 14.704
12.9135 14.674
12.9286 14.337
12.9438 14.492
12.9590 14.514
12.9742 14.256
12.9893 14.411
13.0045 14.191
13.0197 13.941
13.0349 14.044
13.0500 14.073
13.0652 14.006
13.0804 13.953
13.0956 13.788
13.1107 13.668
13.1259 13.728
13.1411 13.878
13.1563 13.709
13.1714 13.415
13.1866 13.604
13.2018 13.515
13.2170 13.378
13.2321 13.390
13.2473 13.268
13.2625 13.264
13.2777 13.198
13.2928 13.206
13.3080 12.998
13.3232 12.756
13.3384 12.785
13.3535 12.973
13.3687 13.219
13.3839 13.150
13.3991 12.954
13.4142 12.868
13.4294 12.845
13.4446 12.862
13.4598 12.694
13.4749 12.728
13.4901 12.716
13.5053 12.666
13.5205 12.612
13.5356 12.455
13.5508 12.522
13.5660 12.255
13.5812 12.258
13.5963 12.402
13.6115 12.329
13.6267 12.160
13.6419 11.901
13.6570 12.160
13.6722 12.131
13.6874 12.137
13.7026 12.169
13.7177 12.037
13.7329 11.863
13.7481 11.939
13.7633 12.066
13.7784 11.981
13.7936 11.981
13.8088 12.170
13.8239 12.166
13.8391 12.439
13.8543 12.520
13.8695 12.281
13.8846 12.087
13.8998 11.947
13.9150 12.149
13.9302 12.225
13.9453 12.132
13.9605 11.791
13.9757 11.608
13.9909 11.604
14.0060 11.575
14.0212 11.633
14.0364 11.958
14.0516 11.806
14.0667 11.771
14.0819 11.563
14.0971 11.425
14.1123 11.654
14.1274 11.820
14.1426 11.754
14.1578 11.445
14.1730 11.661
14.1881 12.034
14.2033 11.862
14.2185 11.811
14.2337 11.716
14.2488 11.652
14.2640 11.881
14.2792 11.924
14.2944 11.636
14.3095 11.759
14.3247 12.174
14.3399 12.229
14.3551 12.293
14.3702 12.389
14.3854 12.808
14.4006 12.837
14.4158 12.712
14.4309 12.983
14.4461 12.528
14.4613 12.483
14.4765 12.374
14.4916 12.069
14.5068 11.810
14.5220 11.595
14.5372 11.538
14.5523 11.189
14.5675 10.957
14.5827 10.741
14.5979 10.753
14.6130 11.117
14.6282 10.832
14.6434 10.779
14.6586 10.771
14.6737 10.672
14.6889 10.597
14.7041 10.645
14.7193 10.777
14.7344 11.056
14.7496 10.759
14.7648 10.448
14.7800 10.255
14.7951 10.200
14.8103 10.482
14.8255 10.493
14.8407 10.447
14.8558 10.688
14.8710 10.637
14.8862 10.522
14.9014 10.505
14.9165 10.723
14.9317 10.527
14.9469 10.281
14.9621 10.382
14.9772 9.987
14.9924 9.965
15.0076 10.224
15.0228 10.061
15.0379 10.031
15.0531 10.452
15.0683 10.255
15.0835 9.888
15.0986 9.953
15.1138 10.404
15.1290 10.252
15.1442 10.014
15.1593 10.214
15.1745 10.042
15.1897 10.095
15.2049 10.056
15.2200 9.939
15.2352 9.706
15.2504 10.448
15.2656 9.832
15.2807 9.986
15.2959 10.025
15.3111 9.839
15.3263 10.027
15.3414 10.067
15.3566 10.235
15.3718 10.223
15.3870 10.103
15.4021 10.107
15.4173 9.834
15.4325 10.394
15.4477 10.385
15.4628 10.342
15.4780 10.264
15.4932 9.822
15.5084 10.024
15.5235 10.225
15.5387 10.007
15.5539 10.016
15.5691 10.009
15.5842 9.758
15.5994 9.979
15.6146 9.989
15.6298 10.050
15.6449 9.601
15.6601 9.620
15.6753 9.961
15.6905 9.532
15.7056 9.522
15.7208 9.556
15.7360 9.503
15.7512 9.689
15.7663 9.523
15.7815 9.666
15.7967 9.751
15.8119 9.750
15.8270 9.848
15.8422 9.481
15.8574 9.599
15.8726 9.503
15.8877 9.506
15.9029 9.456
15.9181 9.688
15.9333 9.651
15.9484 9.778
15.9636 9.739
15.9788 9.866
15.9940 9.373
16.0091 9.235
16.0243 9.377
16.0395 9.464
16.0547 9.695
16.0698 9.549
16.0850 9.643
16.1002 9.528
16.1154 9.472
16.1305 9.581
16.1457 9.524
16.1609 9.694
16.1761 9.595
16.1912 9.449
16.2064 9.779
16.2216 9.484
16.2368 9.423
16.2519 9.588
16.2671 9.653
16.2823 9.566
16.2975 9.828
16.3126 9.723
16.3278 9.926
16.3430 9.883
16.3582 9.877
16.3733 9.834
16.3885 9.774
16.4037 9.760
16.4189 9.709
16.4340 9.598
16.4492 9.625
16.4644 9.603
16.4796 9.387
16.4947 9.636
16.5099 9.733
16.5251 9.550
16.5403 9.337
16.5554 9.331
16.5706 9.431
16.5858 9.573
16.6010 9.709
16.6161 9.779
16.6313 9.779
16.6465 9.625
16.6617 9.688
16.6768 9.672
16.6920 10.110
16.7072 10.053
16.7224 9.812
16.7375 9.687
16.7527 9.817
16.7679 9.887
16.7831 9.889
16.7982 9.726
16.8134 9.735
16.8286 9.758
16.8438 9.747
16.8589 9.803
16.8741 9.743
16.8893 9.620
16.9045 9.679
16.9196 9.894
16.9348 9.757
16.9500 9.764
16.9652 9.849
16.9803 9.746
16.9955 9.972
17.0107 10.019
17.0259 9.867
17.0410 9.705
17.0562 9.889
17.0714 10.121
17.0866 10.396
17.1017 10.221
17.1169 10.587
17.1321 11.098
17.1473 11.244
17.1624 11.709
17.1776 12.333
17.1928 13.171
17.2080 14.194
17.2231 14.941
17.2383 16.000
17.2535 17.386
17.2687 18.315
17.2838 18.757
17.2990 18.140
17.3142 16.955
17.3294 16.550
17.3445 16.292
17.3597 16.026
17.3749 15.876
17.3901 15.376
17.4052 14.465
17.4204 13.320
17.4356 12.600
17.4508 12.185
17.4659 11.741
17.4811 11.445
17.4963 11.509
17.5115 11.370
17.5266 11.015
17.5418 10.932
17.5570 10.854
17.5722 10.879
17.5873 10.986
17.6025 10.943
17.6177 10.894
17.6329 11.073
17.6480 11.202
17.6632 11.262
17.6784 11.296
17.6936 11.248
17.7087 11.388
17.7239 11.450
17.7391 11.291
17.7543 11.030
17.7694 10.846
17.7846 10.869
17.7998 11.016
17.8150 10.637
17.8301 10.482
17.8453 10.473
17.8605 10.190
17.8757 10.333
17.8908 10.317
17.9060 10.175
17.9212 10.168
17.9364 10.083
17.9515 9.888
17.9667 9.896
17.9819 9.968
17.9971 9.980
18.0122 9.983
18.0274 10.031
18.0426 10.097
18.0578 10.174
18.0729 9.935
18.0881 9.893
18.1033 9.930
18.1185 9.882
18.1336 9.796
18.1488 9.993
18.1640 9.843
18.1792 9.941
18.1943 10.045
18.2095 9.922
18.2247 9.737
18.2399 9.572
18.2550 9.858
18.2702 9.918
18.2854 9.888
18.3006 9.946
18.3157 9.971
18.3309 9.994
18.3461 10.022
18.3613 9.921
18.3764 9.807
18.3916 9.813
18.4068 9.844
18.4220 9.816
18.4371 9.959
18.4523 9.982
18.4675 9.889
18.4827 9.856
18.4978 9.984
18.5130 10.010
18.5282 9.782
18.5434 9.744
18.5585 9.683
18.5737 9.654
18.5889 9.476
18.6041 9.673
18.6192 9.896
18.6344 9.866
18.6496 9.803
18.6648 9.794
18.6799 9.805
18.6951 9.760
18.7103 9.823
18.7255 9.892
18.7406 9.940
18.7558 9.760
18.7710 9.820
18.7862 9.872
18.8013 9.652
18.8165 9.523
18.8317 9.756
18.8469 9.861
18.8620 10.016
18.8772 10.025
18.8924 9.939
18.9076 9.924
18.9227 9.880
18.9379 10.089
18.9531 9.848
18.9683 9.851
18.9834 10.151
18.9986 10.062
19.0138 9.971
19.0290 10.131
19.0441 10.237
19.0593 9.964
19.0745 9.974
19.0897 10.219
19.1048 10.341
19.1200 10.564
19.1352 10.653
19.1504 10.547
19.1655 10.453
19.1807 10.547
19.1959 10.542
19.2111 10.565
19.2262 10.841
19.2414 10.750
19.2566 10.843
19.2718 11.025
19.2869 10.925
19.3021 11.088
19.3173 11.208
19.3325 11.260
19.3476 11.256
19.3628 10.918
19.3780 10.997
19.3932 11.173
19.4083 11.009
19.4235 11.115
19.4387 11.236
19.4539 11.198
19.4690 11.347
19.4842 11.324
19.4994 11.384
19.5146 11.792
19.5297 11.639
19.5449 11.505
19.5601 11.529
19.5753 11.428
19.5904 11.536
19.6056 11.681
19.6208 11.611
19.6360 11.448
19.6511 11.654
19.6663 11.880
19.6815 11.674
19.6967 11.657
19.7118 11.773
19.7270 11.588
19.7422 11.546
19.7574 11.651
19.7725 11.619
19.7877 11.957
19.8029 12.236
19.8180 12.244
19.8332 12.199
19.8484 12.334
19.8636 12.434
19.8787 12.525
19.8939 13.092
19.9091 13.318
19.9243 13.604
19.9394 14.224
19.9546 14.374
19.9698 14.460
19.9850 14.514
20.0001 14.395
20.0153 14.413
20.0305 14.032
20.0457 13.727
20.0608 13.946
20.0760 14.023
20.0912 13.833
20.1064 13.599
20.1215 13.436
20.1367 13.355
20.1519 12.956
20.1671 12.826
20.1822 12.787
20.1974 12.635
20.2126 12.795
20.2278 12.768
20.2429 12.514
20.2581 12.382
20.2733 12.377
20.2885 12.201
20.3036 12.000
20.3188 11.843
20.3340 11.987
20.3492 12.002
20.3643 12.100
20.3795 11.942
20.3947 11.722
20.4099 11.701
20.4250 11.577
20.4402 11.502
20.4554 11.607
20.4706 11.810
20.4857 11.683
20.5009 11.532
20.5161 11.465
20.5313 11.292
20.5464 11.419
20.5616 11.301
20.5768 11.438
20.5920 11.342
20.6071 11.064
20.6223 11.128
20.6375 10.715
20.6527 10.725
20.6678 10.602
20.6830 10.297
20.6982 10.651
20.7134 10.569
20.7285 10.552
20.7437 10.438
20.7589 10.522
20.7741 10.704
20.7892 10.461
20.8044 10.147
20.8196 10.620
20.8348 10.556
20.8499 10.344
20.8651 10.414
20.8803 10.229
20.8955 10.435
20.9106 10.151
20.9258 10.218
20.9410 10.054
20.9562 9.906
20.9713 10.074
20.9865 10.249
21.0017 9.947
21.0169 9.632
21.0320 9.706
21.0472 9.880
21.0624 9.949
21.0776 9.994
21.0927 10.266
21.1079 10.020
21.1231 9.902
21.1383 9.907
21.1534 9.668
21.1686 9.791
21.1838 9.979
21.1990 9.653
21.2141 9.680
21.2293 9.516
21.2445 9.958
21.2597 9.562
21.2748 9.801
21.2900 9.746
21.3052 9.536
21.3204 9.379
21.3355 9.734
21.3507 9.417
21.3659 9.568
21.3811 9.439
21.3962 9.502
21.4114 9.594
21.4266 9.184
21.4418 9.478
21.4569 9.415
21.4721 9.409
21.4873 9.165
21.5025 9.103
21.5176 9.325
21.5328 9.231
21.5480 9.095
21.5632 9.260
21.5783 9.143
21.5935 9.071
21.6087 9.282
21.6239 9.410
21.6390 9.483
21.6542 9.333
21.6694 9.308
21.6846 9.008
21.6997 9.000
21.7149 9.220
21.7301 9.309
21.7453 9.191
21.7604 9.101
21.7756 8.969
21.7908 8.916
21.8060 9.009
21.8211 9.023
21.8363 8.965
21.8515 9.108
21.8667 9.049
21.8818 8.983
21.8970 8.876
21.9122 8.913
21.9274 9.060
21.9425 9.087
21.9577 9.082
21.9729 8.887
21.9881 8.606
22.0032 8.579
22.0184 8.777
22.0336 8.721
22.0488 8.625
22.0639 8.585
22.0791 8.576
22.0943 8.683
22.1095 8.595
22.1246 8.469
22.1398 8.495
22.1550 8.479
22.1702 8.481
22.1853 8.475
22.2005 8.572
22.2157 8.680
22.2309 8.611
22.2460 8.753
22.2612 8.689
22.2764 8.233
22.2916 8.181
22.3067 8.488
22.3219 8.673
22.3371 8.568
22.3523 8.361
22.3674 8.376
22.3826 8.207
22.3978 8.308
22.4130 8.534
22.4281 8.511
22.4433 8.568
22.4585 8.399
22.4737 8.372
22.4888 8.213
22.5040 8.516
22.5192 8.667
22.5344 8.366
22.5495 8.295
22.5647 8.316
22.5799 8.420
22.5951 8.095
22.6102 8.021
22.6254 8.412
22.6406 8.293
22.6558 8.562
22.6709 8.246
22.6861 8.479
22.7013 8.289
22.7165 8.126
22.7316 6.417
