'Id: "" Comment: "" Operator: "Lab Manager" Anode: "Mo" Scantype: "Still (Eiger2R_500K (1D mode))" TimePerStep: "300" X: "11.8" Y: "9.4" Z: "11.284" 
7.2532 18.392
7.2684 18.673
7.2836 19.164
7.2987 19.099
7.3139 19.476
7.3291 19.515
7.3443 19.241
7.3594 19.629
7.3746 19.365
7.3898 19.747
7.4050 19.397
7.4201 19.678
7.4353 19.626
7.4505 19.274
7.4657 19.736
7.4808 19.643
7.4960 19.455
7.5112 19.577
7.5264 20.089
7.5415 19.708
7.5567 19.695
7.5719 19.892
7.5871 20.047
7.6022 19.965
7.6174 20.094
7.6326 19.811
7.6478 20.153
7.6629 20.168
7.6781 20.006
7.6933 20.246
7.7085 20.523
7.7236 20.462
7.7388 20.147
7.7540 20.311
7.7692 20.512
7.7843 20.552
7.7995 20.552
7.8147 20.642
7.8299 20.793
7.8450 20.718
7.8602 20.781
7.8754 20.938
7.8905 21.009
7.9057 20.776
7.9209 20.868
7.9361 20.977
7.9512 21.169
7.9664 20.978
7.9816 20.618
7.9968 20.592
8.0119 20.942
8.0271 21.177
8.0423 21.322
8.0575 21.285
8.0726 21.443
8.0878 21.510
8.1030 21.107
8.1182 21.452
8.1333 21.665
8.1485 21.689
8.1637 21.515
8.1789 21.296
8.1940 21.234
8.2092 21.669
8.2244 21.695
8.2396 22.172
8.2547 21.816
8.2699 21.583
8.2851 21.750
8.3003 21.572
8.3154 21.806
8.3306 21.453
8.3458 21.922
8.3610 22.040
8.3761 21.383
8.3913 21.431
8.4065 22.265
8.4217 21.806
8.4368 22.073
8.4520 22.137
8.4672 22.491
8.4824 21.904
8.4975 22.088
8.5127 21.950
8.5279 21.827
8.5431 21.732
8.5582 22.245
8.5734 22.009
8.5886 22.371
8.6038 22.018
8.6189 22.370
8.6341 22.286
8.6493 21.854
8.6645 22.762
8.6796 22.578
8.6948 22.418
8.7100 21.927
8.7252 22.761
8.7403 22.420
8.7555 22.613
8.7707 22.584
8.7859 22.155
8.8010 22.224
8.8162 22.583
8.8314 22.426
8.8466 22.291
8.8617 22.808
8.8769 22.527
8.8921 22.429
8.9073 22.097
8.9224 22.731
8.9376 22.439
8.9528 22.904
8.9680 22.957
8.9831 22.738
8.9983 22.708
9.0135 22.836
9.0287 22.693
9.0438 23.161
9.0590 23.449
9.0742 22.917
9.0894 22.646
9.1045 23.254
9.1197 23.101
9.1349 22.982
9.1501 22.889
9.1652 22.568
9.1804 22.786
9.1956 22.775
9.2108 22.911
9.2259 22.840
9.2411 22.814
9.2563 22.963
9.2715 22.735
9.2866 22.716
9.3018 23.279
9.3170 23.209
9.3322 22.918
9.3473 23.003
9.3625 23.093
9.3777 23.645
9.3929 23.329
9.4080 23.051
9.4232 23.079
9.4384 23.332
9.4536 23.283
9.4687 22.871
9.4839 22.748
9.4991 23.037
9.5143 23.275
9.5294 23.461
9.5446 23.283
9.5598 23.421
9.5750 23.501
9.5901 23.149
9.6053 23.401
9.6205 23.462
9.6357 23.670
9.6508 23.952
9.6660 23.802
9.6812 23.435
9.6964 23.690
9.7115 24.155
9.7267 24.158
9.7419 24.211
9.7571 23.593
9.7722 23.536
9.7874 24.127
9.8026 24.260
9.8178 23.957
9.8329 23.759
9.8481 24.051
9.8633 23.761
9.8785 23.507
9.8936 23.673
9.9088 23.876
9.9240 23.728
9.9392 23.672
9.9543 23.604
9.9695 23.449
9.9847 23.414
9.9999 23.317
10.0150 23.400
10.0302 23.136
10.0454 23.058
10.0606 23.251
10.0757 22.990
10.0909 22.906
10.1061 23.078
10.1213 22.893
10.1364 22.716
10.1516 22.804
10.1668 22.869
10.1820 23.002
10.1971 23.024
10.2123 23.144
10.2275 23.089
10.2427 22.787
10.2578 22.876
10.2730 23.097
10.2882 22.989
10.3034 23.212
10.3185 23.386
10.3337 22.976
10.3489 23.028
10.3641 23.352
10.3792 23.144
10.3944 23.085
10.4096 23.050
10.4248 23.041
10.4399 22.911
10.4551 22.703
10.4703 22.717
10.4855 23.028
10.5006 22.978
10.5158 22.941
10.5310 22.939
10.5462 22.737
10.5613 22.533
10.5765 22.864
10.5917 23.022
10.6069 23.031
10.6220 22.710
10.6372 22.364
10.6524 22.561
10.6676 22.679
10.6827 22.510
10.6979 22.569
10.7131 22.606
10.7283 22.534
10.7434 22.186
10.7586 22.428
10.7738 22.413
10.7890 22.420
10.8041 22.269
10.8193 22.108
10.8345 22.341
10.8497 22.248
10.8648 22.404
10.8800 22.352
10.8952 21.895
10.9104 22.222
10.9255 22.178
10.9407 22.242
10.9559 22.423
10.9711 22.085
10.9862 22.233
11.0014 22.402
11.0166 22.347
11.0318 21.946
11.0469 22.059
11.0621 21.932
11.0773 21.702
11.0925 21.881
11.1076 21.665
11.1228 21.411
11.1380 21.514
11.1532 21.620
11.1683 21.630
11.1835 21.815
11.1987 21.616
11.2139 21.560
11.2290 21.485
11.2442 21.484
11.2594 21.617
11.2746 21.423
11.2897 21.374
11.3049 21.562
11.3201 21.549
11.3353 21.463
11.3504 21.317
11.3656 21.352
11.3808 21.401
11.3960 21.403
11.4111 21.310
11.4263 21.697
11.4415 21.101
11.4567 20.911
11.4718 21.312
11.4870 21.407
11.5022 20.992
11.5174 21.101
11.5325 21.085
11.5477 20.947
11.5629 20.745
11.5781 20.771
11.5932 20.876
11.6084 20.984
11.6236 20.992
11.6388 21.039
11.6539 20.767
11.6691 20.821
11.6843 20.722
11.6995 20.563
11.7146 20.451
11.7298 20.361
11.7450 20.280
11.7602 20.529
11.7753 20.376
11.7905 19.967
11.8057 20.146
11.8209 19.991
11.8360 20.149
11.8512 19.779
11.8664 19.691
11.8816 20.064
11.8967 19.922
11.9119 19.374
11.9271 19.532
11.9423 19.527
11.9574 19.302
11.9726 19.278
11.9878 19.609
12.0030 19.395
12.0181 19.484
12.0333 19.236
12.0485 19.002
12.0637 18.933
12.0788 18.990
12.0940 18.989
12.1092 18.833
12.1244 18.735
12.1395 18.581
12.1547 18.504
12.1699 18.349
12.1851 18.228
12.2002 18.127
12.2154 18.238
12.2306 18.037
12.2458 17.784
12.2609 17.905
12.2761 18.016
12.2913 17.803
12.3065 17.698
12.3216 17.678
12.3368 17.604
12.3520 17.677
12.3672 17.571
12.3823 17.378
12.3975 17.397
12.4127 17.056
12.4279 16.842
12.4430 16.634
12.4582 16.860
12.4734 16.934
12.4886 16.671
12.5037 16.706
12.5189 16.739
12.5341 16.406
12.5493 16.593
12.5644 16.667
12.5796 16.261
12.5948 16.220
12.6100 16.069
12.6251 16.193
12.6403 16.057
12.6555 15.861
12.6707 15.614
12.6858 15.708
12.7010 15.977
12.7162 15.827
12.7314 15.675
12.7465 15.486
12.7617 15.218
12.7769 15.370
12.7921 15.420
12.8072 15.404
12.8224 15.244
12.8376 14.772
12.8528 14.517
12.8679 15.194
12.8831 15.362
12.8983 14.698
12.9135 14.582
12.9286 15.032
12.9438 14.767
12.9590 14.601
12.9742 14.702
12.9893 14.329
13.0045 14.277
13.0197 14.645
13.0349 14.401
13.0500 14.165
13.0652 14.231
13.0804 13.990
13.0956 13.849
13.1107 13.723
13.1259 13.634
13.1411 13.690
13.1563 13.777
13.1714 13.631
13.1866 13.671
13.2018 13.882
13.2170 13.605
13.2321 13.424
13.2473 13.438
13.2625 13.405
13.2777 13.231
13.2928 13.155
13.3080 13.321
13.3232 13.348
13.3384 13.240
13.3535 12.899
13.3687 12.853
13.3839 13.159
13.3991 13.178
13.4142 13.087
13.4294 12.786
13.4446 12.478
13.4598 12.675
13.4749 12.899
13.4901 12.756
13.5053 12.543
13.5205 12.506
13.5356 12.232
13.5508 12.284
13.5660 12.245
13.5812 12.185
13.5963 11.992
13.6115 12.119
13.6267 12.471
13.6419 12.458
13.6570 12.397
13.6722 12.411
13.6874 12.264
13.7026 11.996
13.7177 12.137
13.7329 12.081
13.7481 12.061
13.7633 12.205
13.7784 12.313
13.7936 12.045
13.8088 11.856
13.8239 11.908
13.8391 12.196
13.8543 12.349
13.8695 12.406
13.8846 12.612
13.8998 12.506
13.9150 12.396
13.9302 12.310
13.9453 12.195
13.9605 12.116
13.9757 11.706
13.9909 11.715
14.0060 12.060
14.0212 11.931
14.0364 11.792
14.0516 11.512
14.0667 11.554
14.0819 11.702
14.0971 11.359
14.1123 11.332
14.1274 11.290
14.1426 11.048
14.1578 11.440
14.1730 11.393
14.1881 11.368
14.2033 11.366
14.2185 11.421
14.2337 11.339
14.2488 11.639
14.2640 11.549
14.2792 11.597
14.2944 11.769
14.3095 11.862
14.3247 11.501
14.3399 11.794
14.3551 12.071
14.3702 12.536
14.3854 12.475
14.4006 12.506
14.4158 12.720
14.4309 12.781
14.4461 12.942
14.4613 12.549
14.4765 12.570
14.4916 12.481
14.5068 12.289
14.5220 11.923
14.5372 11.863
14.5523 11.629
14.5675 11.536
14.5827 11.404
14.5979 11.057
14.6130 11.217
14.6282 11.219
14.6434 11.072
14.6586 10.878
14.6737 10.848
14.6889 11.132
14.7041 11.067
14.7193 11.099
14.7344 11.127
14.7496 11.137
14.7648 11.346
14.7800 11.180
14.7951 10.996
14.8103 11.012
14.8255 10.824
14.8407 11.005
14.8558 10.941
14.8710 11.028
14.8862 10.396
14.9014 10.807
14.9165 11.083
14.9317 10.963
14.9469 10.533
14.9621 10.704
14.9772 10.295
14.9924 10.809
15.0076 10.667
15.0228 10.694
15.0379 10.287
15.0531 10.438
15.0683 10.450
15.0835 10.447
15.0986 10.336
15.1138 10.278
15.1290 10.436
15.1442 9.982
15.1593 10.469
15.1745 10.755
15.1897 10.089
15.2049 10.225
15.2200 10.552
15.2352 10.583
15.2504 10.415
15.2656 10.395
15.2807 10.434
15.2959 10.243
15.3111 10.229
15.3263 10.082
15.3414 10.215
15.3566 10.276
15.3718 10.076
15.3870 10.476
15.4021 10.415
15.4173 10.418
15.4325 10.630
15.4477 10.159
15.4628 10.461
15.4780 10.264
15.4932 10.127
15.5084 10.029
15.5235 10.423
15.5387 10.146
15.5539 10.105
15.5691 10.169
15.5842 10.501
15.5994 10.427
15.6146 10.323
15.6298 10.127
15.6449 10.043
15.6601 10.299
15.6753 10.268
15.6905 10.230
15.7056 10.070
15.7208 10.113
15.7360 10.089
15.7512 9.911
15.7663 9.836
15.7815 9.840
15.7967 9.644
15.8119 9.843
15.8270 9.910
15.8422 9.906
15.8574 9.684
15.8726 9.824
15.8877 9.745
15.9029 9.819
15.9181 9.912
15.9333 10.000
15.9484 9.730
15.9636 9.447
15.9788 9.776
15.9940 9.806
16.0091 10.043
16.0243 9.966
16.0395 9.834
16.0547 9.827
16.0698 9.938
16.0850 9.848
16.1002 9.690
16.1154 9.826
16.1305 9.707
16.1457 9.821
16.1609 9.739
16.1761 9.731
16.1912 9.583
16.2064 9.875
16.2216 9.851
16.2368 9.781
16.2519 9.781
16.2671 9.947
16.2823 10.068
16.2975 9.788
16.3126 9.624
16.3278 9.987
16.3430 10.079
16.3582 10.064
16.3733 10.263
16.3885 10.060
16.4037 10.079
16.4189 10.238
16.4340 9.779
16.4492 9.917
16.4644 10.034
16.4796 9.923
16.4947 9.880
16.5099 9.938
16.5251 10.101
16.5403 9.911
16.5554 9.848
16.5706 9.933
16.5858 9.904
16.6010 9.888
16.6161 9.933
16.6313 9.928
16.6465 10.187
16.6617 10.051
16.6768 9.765
16.6920 9.996
16.7072 10.084
16.7224 10.033
16.7375 10.114
16.7527 10.185
16.7679 10.124
16.7831 10.133
16.7982 10.261
16.8134 10.110
16.8286 10.021
16.8438 10.065
16.8589 9.893
16.8741 9.813
16.8893 10.070
16.9045 10.018
16.9196 10.042
16.9348 9.924
16.9500 9.685
16.9652 9.957
16.9803 10.241
16.9955 10.060
17.0107 10.082
17.0259 10.219
17.0410 10.198
17.0562 10.308
17.0714 10.205
17.0866 10.312
17.1017 10.639
17.1169 10.944
17.1321 11.232
17.1473 11.351
17.1624 11.571
17.1776 12.404
17.1928 13.265
17.2080 14.045
17.2231 15.342
17.2383 16.642
17.2535 17.628
17.2687 18.360
17.2838 18.698
17.2990 18.411
17.3142 17.422
17.3294 16.608
17.3445 16.199
17.3597 15.865
17.3749 15.738
17.3901 15.391
17.4052 14.260
17.4204 13.295
17.4356 12.609
17.4508 11.742
17.4659 11.375
17.4811 11.284
17.4963 11.302
17.5115 11.038
17.5266 10.664
17.5418 10.488
17.5570 10.259
17.5722 10.257
17.5873 10.270
17.6025 10.305
17.6177 10.271
17.6329 10.127
17.6480 10.223
17.6632 10.308
17.6784 10.328
17.6936 10.379
17.7087 10.322
17.7239 10.295
17.7391 10.384
17.7543 10.447
17.7694 10.572
17.7846 10.674
17.7998 10.735
17.8150 11.065
17.8301 10.948
17.8453 10.833
17.8605 11.055
17.8757 11.163
17.8908 11.200
17.9060 11.157
17.9212 11.019
17.9364 10.978
17.9515 10.686
17.9667 10.665
17.9819 10.785
17.9971 10.619
18.0122 10.560
18.0274 10.529
18.0426 10.291
18.0578 10.345
18.0729 10.260
18.0881 10.080
18.1033 10.003
18.1185 10.073
18.1336 10.095
18.1488 9.936
18.1640 9.900
18.1792 9.813
18.1943 9.627
18.2095 9.662
18.2247 9.944
18.2399 10.050
18.2550 9.910
18.2702 9.980
18.2854 9.951
18.3006 10.041
18.3157 10.006
18.3309 9.953
18.3461 10.022
18.3613 10.088
18.3764 9.737
18.3916 9.711
18.4068 9.833
18.4220 9.748
18.4371 9.760
18.4523 9.939
18.4675 10.125
18.4827 10.009
18.4978 9.769
18.5130 9.713
18.5282 9.442
18.5434 9.507
18.5585 9.671
18.5737 9.810
18.5889 9.745
18.6041 9.622
18.6192 9.606
18.6344 9.526
18.6496 9.611
18.6648 9.706
18.6799 9.744
18.6951 9.512
18.7103 9.555
18.7255 9.736
18.7406 9.858
18.7558 9.924
18.7710 9.780
18.7862 9.786
18.8013 9.879
18.8165 9.714
18.8317 9.918
18.8469 10.132
18.8620 9.944
18.8772 9.835
18.8924 9.914
18.9076 9.949
18.9227 9.905
18.9379 10.093
18.9531 10.048
18.9683 9.961
18.9834 9.908
18.9986 10.052
19.0138 10.257
19.0290 10.240
19.0441 10.109
19.0593 10.167
19.0745 10.186
19.0897 10.370
19.1048 10.456
19.1200 10.297
19.1352 10.319
19.1504 10.475
19.1655 10.450
19.1807 10.462
19.1959 10.614
19.2111 10.617
19.2262 10.750
19.2414 10.835
19.2566 10.762
19.2718 10.653
19.2869 10.844
19.3021 11.097
19.3173 11.018
19.3325 11.021
19.3476 11.115
19.3628 11.066
19.3780 10.880
19.3932 11.005
19.4083 11.181
19.4235 11.353
19.4387 11.488
19.4539 11.599
19.4690 11.433
19.4842 11.265
19.4994 11.288
19.5146 11.509
19.5297 11.636
19.5449 11.387
19.5601 11.443
19.5753 11.665
19.5904 11.650
19.6056 11.500
19.6208 11.604
19.6360 11.910
19.6511 11.820
19.6663 11.711
19.6815 11.795
19.6967 11.660
19.7118 11.657
19.7270 11.679
19.7422 11.506
19.7574 11.429
19.7725 11.623
19.7877 11.764
19.8029 11.780
19.8180 11.875
19.8332 11.958
19.8484 12.272
19.8636 12.379
19.8787 12.716
19.8939 13.095
19.9091 13.290
19.9243 13.620
19.9394 13.877
19.9546 14.205
19.9698 14.627
19.9850 14.756
20.0001 14.738
20.0153 14.357
20.0305 14.186
20.0457 14.089
20.0608 13.726
20.0760 13.876
20.0912 13.922
20.1064 13.715
20.1215 13.402
20.1367 13.224
20.1519 12.939
20.1671 12.626
20.1822 12.460
20.1974 12.424
20.2126 12.405
20.2278 12.400
20.2429 12.415
20.2581 12.041
20.2733 11.715
20.2885 11.683
20.3036 11.771
20.3188 11.633
20.3340 11.750
20.3492 11.570
20.3643 11.282
20.3795 11.193
20.3947 11.173
20.4099 11.110
20.4250 11.153
20.4402 10.923
20.4554 10.702
20.4706 11.013
20.4857 10.795
20.5009 10.771
20.5161 10.868
20.5313 10.738
20.5464 10.428
20.5616 10.538
20.5768 10.707
20.5920 10.824
20.6071 11.006
20.6223 10.452
20.6375 10.408
20.6527 10.446
20.6678 10.541
20.6830 10.339
20.6982 10.490
20.7134 10.372
20.7285 10.447
20.7437 10.555
20.7589 10.389
20.7741 10.456
20.7892 10.213
20.8044 10.307
20.8196 10.404
20.8348 10.383
20.8499 10.428
20.8651 9.880
20.8803 10.488
20.8955 10.419
20.9106 10.560
20.9258 10.583
20.9410 10.592
20.9562 10.437
20.9713 10.217
20.9865 10.737
21.0017 10.495
21.0169 10.686
21.0320 10.177
21.0472 10.336
21.0624 10.236
21.0776 10.151
21.0927 10.426
21.1079 10.370
21.1231 10.263
21.1383 10.177
21.1534 9.711
21.1686 9.800
21.1838 9.660
21.1990 9.841
21.2141 9.548
21.2293 9.975
21.2445 9.702
21.2597 9.693
21.2748 9.801
21.2900 10.034
21.3052 9.844
21.3204 9.085
21.3355 9.608
21.3507 9.701
21.3659 9.445
21.3811 9.397
21.3962 9.396
21.4114 9.503
21.4266 9.257
21.4418 9.261
21.4569 9.308
21.4721 9.243
21.4873 9.377
21.5025 9.562
21.5176 9.280
21.5328 9.358
21.5480 9.462
21.5632 9.227
21.5783 9.211
21.5935 9.258
21.6087 9.262
21.6239 9.152
21.6390 9.102
21.6542 9.331
21.6694 9.423
21.6846 9.456
21.6997 9.108
21.7149 8.810
21.7301 8.910
21.7453 9.021
21.7604 9.056
21.7756 9.071
21.7908 9.027
21.8060 9.011
21.8211 9.179
21.8363 9.230
21.8515 9.105
21.8667 9.072
21.8818 9.063
21.8970 9.058
21.9122 8.993
21.9274 8.841
21.9425 8.919
21.9577 8.956
21.9729 8.924
21.9881 8.999
22.0032 8.878
22.0184 8.713
22.0336 8.706
22.0488 8.560
22.0639 8.558
22.0791 8.711
22.0943 8.649
22.1095 8.664
22.1246 8.654
22.1398 8.687
22.1550 8.596
22.1702 8.713
22.1853 8.692
22.2005 8.521
22.2157 8.577
22.2309 8.505
22.2460 8.700
22.2612 8.627
22.2764 8.716
22.2916 8.645
22.3067 8.413
22.3219 8.634
22.3371 8.423
22.3523 8.505
22.3674 8.616
22.3826 8.502
22.3978 8.595
22.4130 8.622
22.4281 8.548
22.4433 8.573
22.4585 8.749
22.4737 8.328
22.4888 8.368
22.5040 8.516
22.5192 8.564
22.5344 8.427
22.5495 8.427
22.5647 8.426
22.5799 8.610
22.5951 8.686
22.6102 8.508
22.6254 8.793
22.6406 8.606
22.6558 8.445
22.6709 8.473
22.6861 8.357
22.7013 8.003
22.7165 7.968
22.7316 6.547
