'Id: "" Comment: "" Operator: "Lab Manager" Anode: "Mo" Scantype: "Still (Eiger2R_500K (1D mode))" TimePerStep: "300" X: "11.8" Y: "9.4" Z: "11.284" 
7.2532 19.384
7.2684 18.933
7.2836 18.896
7.2987 18.953
7.3139 19.102
7.3291 19.281
7.3443 19.041
7.3594 19.120
7.3746 19.083
7.3898 19.584
7.4050 19.560
7.4201 19.309
7.4353 19.726
7.4505 19.502
7.4657 19.944
7.4808 19.830
7.4960 19.572
7.5112 19.525
7.5264 19.672
7.5415 19.597
7.5567 19.891
7.5719 20.111
7.5871 20.089
7.6022 20.206
7.6174 20.185
7.6326 20.265
7.6478 20.390
7.6629 20.375
7.6781 20.396
7.6933 20.446
7.7085 20.304
7.7236 20.276
7.7388 20.259
7.7540 20.455
7.7692 20.714
7.7843 21.035
7.7995 21.050
7.8147 20.991
7.8299 20.796
7.8450 20.672
7.8602 20.990
7.8754 21.252
7.8905 21.239
7.9057 21.281
7.9209 21.315
7.9361 21.172
7.9512 21.475
7.9664 21.590
7.9816 21.479
7.9968 21.721
8.0119 21.523
8.0271 21.467
8.0423 21.604
8.0575 21.459
8.0726 21.414
8.0878 21.363
8.1030 21.704
8.1182 21.663
8.1333 21.591
8.1485 21.449
8.1637 21.493
8.1789 21.718
8.1940 21.877
8.2092 21.347
8.2244 21.263
8.2396 21.869
8.2547 21.791
8.2699 21.708
8.2851 21.968
8.3003 22.009
8.3154 21.779
8.3306 22.089
8.3458 21.728
8.3610 21.717
8.3761 22.369
8.3913 21.805
8.4065 22.330
8.4217 21.725
8.4368 21.800
8.4520 21.954
8.4672 21.668
8.4824 21.878
8.4975 21.954
8.5127 22.465
8.5279 22.165
8.5431 22.285
8.5582 21.981
8.5734 22.231
8.5886 22.488
8.6038 22.800
8.6189 21.941
8.6341 22.644
8.6493 22.474
8.6645 22.871
8.6796 22.738
8.6948 22.369
8.7100 22.527
8.7252 22.773
8.7403 22.598
8.7555 22.618
8.7707 23.147
8.7859 22.734
8.8010 23.152
8.8162 22.615
8.8314 22.849
8.8466 23.036
8.8617 22.744
8.8769 22.603
8.8921 23.163
8.9073 23.109
8.9224 22.887
8.9376 22.475
8.9528 22.999
8.9680 22.895
8.9831 22.720
8.9983 22.743
9.0135 22.781
9.0287 22.898
9.0438 22.902
9.0590 23.088
9.0742 23.016
9.0894 23.058
9.1045 23.343
9.1197 22.971
9.1349 22.969
9.1501 23.069
9.1652 23.071
9.1804 23.109
9.1956 23.057
9.2108 23.077
9.2259 22.887
9.2411 23.050
9.2563 22.623
9.2715 23.018
9.2866 23.392
9.3018 23.379
9.3170 23.399
9.3322 23.130
9.3473 22.883
9.3625 23.085
9.3777 23.351
9.3929 23.257
9.4080 23.494
9.4232 23.198
9.4384 22.978
9.4536 23.080
9.4687 22.993
9.4839 23.229
9.4991 23.113
9.5143 22.965
9.5294 23.114
9.5446 23.315
9.5598 23.405
9.5750 23.550
9.5901 23.545
9.6053 23.552
9.6205 23.527
9.6357 23.542
9.6508 23.694
9.6660 23.663
9.6812 23.832
9.6964 23.852
9.7115 23.825
9.7267 23.866
9.7419 23.952
9.7571 23.756
9.7722 23.769
9.7874 23.858
9.8026 23.570
9.8178 23.405
9.8329 23.488
9.8481 23.580
9.8633 23.689
9.8785 23.814
9.8936 23.376
9.9088 23.620
9.9240 23.766
9.9392 23.585
9.9543 23.626
9.9695 23.693
9.9847 23.674
9.9999 23.728
10.0150 23.869
10.0302 24.119
10.0454 23.900
10.0606 24.006
10.0757 24.319
10.0909 24.378
10.1061 24.074
10.1213 24.211
10.1364 24.215
10.1516 23.891
10.1668 24.091
10.1820 24.063
10.1971 24.207
10.2123 24.190
10.2275 24.671
10.2427 24.535
10.2578 24.277
10.2730 24.182
10.2882 24.036
10.3034 23.853
10.3185 23.632
10.3337 23.562
10.3489 23.417
10.3641 23.372
10.3792 23.247
10.3944 23.268
10.4096 23.057
10.4248 22.962
10.4399 23.203
10.4551 22.986
10.4703 22.730
10.4855 22.868
10.5006 23.068
10.5158 23.099
10.5310 22.801
10.5462 22.703
10.5613 22.325
10.5765 22.619
10.5917 22.563
10.6069 22.702
10.6220 22.690
10.6372 22.986
10.6524 23.090
10.6676 22.832
10.6827 22.698
10.6979 22.500
10.7131 22.485
10.7283 22.652
10.7434 22.500
10.7586 22.597
10.7738 22.682
10.7890 22.827
10.8041 22.361
10.8193 22.066
10.8345 22.301
10.8497 22.091
10.8648 22.426
10.8800 22.473
10.8952 22.085
10.9104 22.115
10.9255 22.345
10.9407 22.201
10.9559 22.293
10.9711 21.829
10.9862 22.011
11.0014 22.164
11.0166 22.261
11.0318 22.241
11.0469 21.971
11.0621 21.763
11.0773 21.786
11.0925 22.199
11.1076 21.938
11.1228 22.106
11.1380 22.189
11.1532 21.938
11.1683 21.606
11.1835 21.472
11.1987 21.850
11.2139 21.828
11.2290 21.661
11.2442 21.882
11.2594 22.504
11.2746 22.291
11.2897 22.007
11.3049 21.876
11.3201 21.806
11.3353 21.538
11.3504 21.625
11.3656 21.559
11.3808 21.752
11.3960 21.690
11.4111 21.469
11.4263 21.327
11.4415 21.175
11.4567 21.281
11.4718 21.108
11.4870 21.110
11.5022 20.987
11.5174 21.330
11.5325 21.153
11.5477 21.094
11.5629 21.153
11.5781 21.460
11.5932 21.082
11.6084 20.610
11.6236 20.549
11.6388 20.595
11.6539 20.501
11.6691 20.687
11.6843 20.728
11.6995 20.620
11.7146 20.536
11.7298 20.468
11.7450 20.185
11.7602 20.181
11.7753 20.168
11.7905 20.204
11.8057 20.318
11.8209 19.996
11.8360 19.905
11.8512 19.932
11.8664 19.989
11.8816 19.792
11.8967 19.577
11.9119 19.531
11.9271 19.661
11.9423 19.368
11.9574 19.294
11.9726 18.979
11.9878 19.018
12.0030 19.555
12.0181 19.683
12.0333 19.021
12.0485 18.973
12.0637 18.871
12.0788 18.917
12.0940 18.501
12.1092 18.455
12.1244 18.475
12.1395 18.568
12.1547 18.663
12.1699 18.432
12.1851 18.210
12.2002 18.448
12.2154 18.089
12.2306 18.195
12.2458 18.258
12.2609 17.897
12.2761 17.933
12.2913 17.686
12.3065 17.507
12.3216 17.613
12.3368 17.900
12.3520 17.754
12.3672 17.517
12.3823 17.519
12.3975 17.653
12.4127 17.262
12.4279 17.225
12.4430 17.241
12.4582 17.161
12.4734 16.985
12.4886 17.079
12.5037 16.977
12.5189 16.860
12.5341 16.682
12.5493 16.804
12.5644 16.731
12.5796 16.356
12.5948 16.174
12.6100 16.213
12.6251 16.060
12.6403 15.863
12.6555 15.792
12.6707 15.876
12.6858 16.107
12.7010 15.852
12.7162 15.716
12.7314 15.742
12.7465 15.462
12.7617 15.274
12.7769 15.031
12.7921 15.012
12.8072 14.884
12.8224 14.910
12.8376 14.738
12.8528 14.812
12.8679 15.004
12.8831 14.868
12.8983 14.698
12.9135 14.556
12.9286 14.570
12.9438 14.641
12.9590 14.663
12.9742 14.465
12.9893 14.306
13.0045 14.324
13.0197 14.182
13.0349 14.139
13.0500 14.315
13.0652 14.322
13.0804 14.084
13.0956 13.992
13.1107 13.928
13.1259 13.681
13.1411 13.534
13.1563 13.519
13.1714 13.380
13.1866 13.345
13.2018 13.671
13.2170 13.449
13.2321 13.226
13.2473 13.470
13.2625 13.292
13.2777 13.237
13.2928 13.155
13.3080 12.820
13.3232 12.842
13.3384 13.002
13.3535 13.269
13.3687 13.265
13.3839 13.014
13.3991 13.201
13.4142 12.987
13.4294 12.764
13.4446 12.909
13.4598 12.765
13.4749 12.452
13.4901 12.342
13.5053 12.570
13.5205 12.508
13.5356 12.392
13.5508 12.413
13.5660 12.253
13.5812 12.374
13.5963 12.144
13.6115 11.965
13.6267 11.959
13.6419 11.944
13.6570 12.101
13.6722 11.950
13.6874 11.903
13.7026 11.858
13.7177 11.792
13.7329 11.848
13.7481 12.033
13.7633 12.013
13.7784 12.057
13.7936 12.191
13.8088 12.417
13.8239 12.351
13.8391 12.207
13.8543 11.967
13.8695 11.968
13.8846 11.876
13.8998 11.875
13.9150 11.884
13.9302 11.937
13.9453 11.994
13.9605 11.932
13.9757 11.723
13.9909 11.564
14.0060 11.471
14.0212 11.288
14.0364 11.561
14.0516 11.493
14.0667 11.294
14.0819 11.321
14.0971 11.583
14.1123 11.483
14.1274 11.387
14.1426 11.504
14.1578 11.370
14.1730 11.147
14.1881 11.436
14.2033 11.798
14.2185 11.696
14.2337 11.939
14.2488 12.100
14.2640 12.193
14.2792 12.183
14.2944 12.268
14.3095 12.215
14.3247 12.327
14.3399 12.610
14.3551 12.758
14.3702 13.131
14.3854 13.244
14.4006 13.074
14.4158 13.327
14.4309 13.130
14.4461 12.970
14.4613 13.158
14.4765 12.955
14.4916 13.005
14.5068 13.038
14.5220 12.813
14.5372 12.472
14.5523 12.328
14.5675 12.606
14.5827 12.283
14.5979 12.037
14.6130 11.830
14.6282 11.939
14.6434 11.496
14.6586 11.638
14.6737 11.624
14.6889 11.417
14.7041 11.084
14.7193 11.176
14.7344 11.018
14.7496 11.018
14.7648 10.975
14.7800 11.095
14.7951 11.072
14.8103 10.480
14.8255 10.609
14.8407 11.094
14.8558 10.590
14.8710 10.820
14.8862 10.421
14.9014 10.975
14.9165 11.161
14.9317 10.638
14.9469 10.588
14.9621 10.840
14.9772 10.365
14.9924 10.368
15.0076 10.612
15.0228 10.430
15.0379 10.045
15.0531 10.823
15.0683 10.706
15.0835 10.408
15.0986 10.541
15.1138 10.465
15.1290 10.667
15.1442 10.489
15.1593 10.729
15.1745 10.445
15.1897 10.629
15.2049 10.837
15.2200 10.550
15.2352 10.529
15.2504 10.437
15.2656 10.310
15.2807 10.307
15.2959 10.314
15.3111 9.990
15.3263 10.215
15.3414 10.453
15.3566 10.162
15.3718 10.368
15.3870 10.429
15.4021 10.488
15.4173 10.454
15.4325 10.542
15.4477 10.530
15.4628 10.285
15.4780 10.453
15.4932 10.620
15.5084 10.470
15.5235 10.667
15.5387 10.648
15.5539 10.391
15.5691 10.173
15.5842 10.259
15.5994 10.336
15.6146 10.134
15.6298 10.020
15.6449 9.980
15.6601 10.284
15.6753 9.940
15.6905 10.038
15.7056 10.161
15.7208 10.140
15.7360 9.987
15.7512 9.948
15.7663 10.010
15.7815 9.942
15.7967 10.031
15.8119 10.084
15.8270 9.795
15.8422 9.848
15.8574 9.876
15.8726 9.959
15.8877 9.585
15.9029 9.752
15.9181 9.673
15.9333 9.842
15.9484 9.763
15.9636 10.023
15.9788 9.903
15.9940 9.736
16.0091 10.176
16.0243 9.787
16.0395 9.853
16.0547 10.039
16.0698 9.826
16.0850 9.719
16.1002 9.895
16.1154 9.807
16.1305 9.813
16.1457 9.687
16.1609 9.798
16.1761 9.751
16.1912 9.681
16.2064 9.735
16.2216 9.983
16.2368 9.861
16.2519 9.816
16.2671 10.054
16.2823 10.048
16.2975 10.233
16.3126 10.050
16.3278 10.252
16.3430 10.102
16.3582 10.010
16.3733 10.209
16.3885 10.287
16.4037 10.301
16.4189 10.203
16.4340 9.821
16.4492 9.847
16.4644 9.790
16.4796 10.148
16.4947 10.103
16.5099 9.888
16.5251 9.753
16.5403 9.635
16.5554 9.691
16.5706 9.719
16.5858 9.686
16.6010 9.564
16.6161 9.629
16.6313 9.833
16.6465 9.928
16.6617 9.918
16.6768 9.572
16.6920 9.660
16.7072 9.974
16.7224 10.009
16.7375 10.108
16.7527 9.848
16.7679 9.837
16.7831 9.992
16.7982 9.998
16.8134 9.876
16.8286 10.042
16.8438 10.174
16.8589 10.104
16.8741 10.023
16.8893 9.869
16.9045 9.806
16.9196 9.844
16.9348 9.860
16.9500 9.675
16.9652 9.657
16.9803 9.728
16.9955 9.723
17.0107 9.797
17.0259 10.045
17.0410 10.089
17.0562 9.981
17.0714 10.064
17.0866 10.216
17.1017 10.625
17.1169 10.940
17.1321 11.042
17.1473 11.353
17.1624 11.760
17.1776 12.207
17.1928 12.870
17.2080 13.727
17.2231 14.925
17.2383 16.276
17.2535 17.452
17.2687 18.618
17.2838 19.012
17.2990 18.179
17.3142 17.183
17.3294 16.527
17.3445 16.161
17.3597 16.037
17.3749 15.503
17.3901 14.943
17.4052 14.342
17.4204 13.248
17.4356 12.338
17.4508 11.897
17.4659 11.810
17.4811 11.746
17.4963 11.494
17.5115 11.241
17.5266 11.171
17.5418 11.185
17.5570 11.205
17.5722 11.336
17.5873 11.534
17.6025 11.596
17.6177 11.567
17.6329 11.422
17.6480 11.184
17.6632 11.112
17.6784 11.098
17.6936 11.081
17.7087 11.170
17.7239 11.069
17.7391 11.019
17.7543 10.837
17.7694 10.694
17.7846 10.874
17.7998 10.983
17.8150 11.122
17.8301 11.098
17.8453 10.987
17.8605 11.165
17.8757 11.208
17.8908 11.166
17.9060 11.146
17.9212 11.031
17.9364 11.039
17.9515 10.789
17.9667 10.630
17.9819 10.759
17.9971 10.561
18.0122 10.347
18.0274 10.476
18.0426 10.497
18.0578 10.283
18.0729 10.069
18.0881 10.211
18.1033 10.144
18.1185 10.124
18.1336 10.078
18.1488 9.851
18.1640 9.874
18.1792 9.782
18.1943 9.735
18.2095 9.854
18.2247 9.722
18.2399 9.729
18.2550 9.756
18.2702 9.762
18.2854 9.824
18.3006 9.810
18.3157 9.740
18.3309 9.838
18.3461 9.774
18.3613 9.608
18.3764 9.825
18.3916 10.032
18.4068 9.666
18.4220 9.751
18.4371 9.734
18.4523 9.657
18.4675 9.589
18.4827 9.614
18.4978 9.823
18.5130 9.767
18.5282 9.595
18.5434 9.948
18.5585 10.133
18.5737 9.945
18.5889 9.680
18.6041 9.700
18.6192 9.748
18.6344 9.741
18.6496 9.658
18.6648 9.821
18.6799 9.912
18.6951 9.842
18.7103 9.734
18.7255 9.788
18.7406 9.736
18.7558 9.759
18.7710 9.808
18.7862 9.927
18.8013 9.740
18.8165 9.411
18.8317 9.471
18.8469 9.709
18.8620 9.788
18.8772 9.807
18.8924 9.859
18.9076 9.829
18.9227 9.769
18.9379 9.858
18.9531 10.045
18.9683 10.030
18.9834 10.309
18.9986 10.244
19.0138 9.995
19.0290 10.188
19.0441 10.399
19.0593 10.372
19.0745 10.426
19.0897 10.285
19.1048 10.247
19.1200 10.492
19.1352 10.544
19.1504 10.396
19.1655 10.452
19.1807 10.546
19.1959 10.720
19.2111 10.666
19.2262 10.595
19.2414 10.668
19.2566 10.788
19.2718 10.929
19.2869 11.056
19.3021 11.017
19.3173 11.049
19.3325 10.918
19.3476 10.962
19.3628 11.060
19.3780 10.921
19.3932 11.008
19.4083 11.149
19.4235 11.126
19.4387 11.362
19.4539 11.483
19.4690 11.281
19.4842 11.183
19.4994 11.221
19.5146 11.340
19.5297 11.576
19.5449 11.814
19.5601 11.884
19.5753 11.786
19.5904 11.542
19.6056 11.712
19.6208 11.730
19.6360 11.658
19.6511 11.447
19.6663 11.365
19.6815 11.656
19.6967 11.608
19.7118 11.551
19.7270 11.742
19.7422 11.946
19.7574 12.031
19.7725 11.861
19.7877 11.841
19.8029 11.885
19.8180 11.826
19.8332 12.101
19.8484 12.412
19.8636 12.665
19.8787 12.646
19.8939 12.645
19.9091 12.840
19.9243 13.239
19.9394 13.486
19.9546 13.877
19.9698 14.337
19.9850 14.246
20.0001 14.128
20.0153 14.006
20.0305 13.717
20.0457 13.601
20.0608 13.440
20.0760 13.430
20.0912 13.554
20.1064 13.423
20.1215 13.413
20.1367 13.268
20.1519 13.075
20.1671 13.115
20.1822 13.052
20.1974 12.645
20.2126 12.581
20.2278 12.778
20.2429 12.638
20.2581 12.406
20.2733 12.230
20.2885 12.052
20.3036 11.993
20.3188 12.071
20.3340 12.054
20.3492 11.986
20.3643 11.886
20.3795 11.285
20.3947 10.940
20.4099 11.225
20.4250 11.210
20.4402 11.204
20.4554 11.084
20.4706 11.041
20.4857 10.905
20.5009 11.058
20.5161 11.031
20.5313 11.235
20.5464 11.345
20.5616 11.197
20.5768 10.983
20.5920 11.047
20.6071 10.827
20.6223 10.911
20.6375 10.989
20.6527 10.803
20.6678 10.929
20.6830 11.031
20.6982 11.026
20.7134 10.804
20.7285 10.856
20.7437 10.867
20.7589 11.077
20.7741 11.337
20.7892 10.766
20.8044 10.621
20.8196 10.666
20.8348 10.659
20.8499 10.680
20.8651 10.496
20.8803 10.549
20.8955 10.644
20.9106 10.482
20.9258 10.224
20.9410 9.936
20.9562 9.986
20.9713 10.068
20.9865 10.227
21.0017 9.937
21.0169 10.374
21.0320 9.973
21.0472 9.878
21.0624 10.147
21.0776 9.912
21.0927 9.847
21.1079 9.855
21.1231 9.701
21.1383 9.835
21.1534 9.776
21.1686 10.036
21.1838 9.764
21.1990 9.673
21.2141 9.565
21.2293 9.465
21.2445 9.894
21.2597 9.853
21.2748 9.718
21.2900 9.664
21.3052 9.834
21.3204 9.305
21.3355 9.571
21.3507 9.373
21.3659 9.722
21.3811 9.334
21.3962 9.639
21.4114 9.308
21.4266 9.442
21.4418 9.362
21.4569 9.529
21.4721 9.348
21.4873 9.372
21.5025 9.333
21.5176 9.599
21.5328 9.465
21.5480 9.475
21.5632 9.436
21.5783 9.131
21.5935 8.915
21.6087 9.253
21.6239 9.171
21.6390 8.856
21.6542 8.855
21.6694 9.020
21.6846 9.043
21.6997 9.141
21.7149 9.074
21.7301 9.192
21.7453 8.988
21.7604 9.049
21.7756 9.411
21.7908 9.313
21.8060 9.009
21.8211 9.044
21.8363 9.053
21.8515 9.046
21.8667 9.210
21.8818 9.091
21.8970 9.037
21.9122 8.948
21.9274 9.107
21.9425 8.907
21.9577 8.849
21.9729 8.906
21.9881 8.829
22.0032 8.774
22.0184 8.780
22.0336 8.726
22.0488 8.766
22.0639 8.868
22.0791 8.914
22.0943 8.772
22.1095 8.628
22.1246 8.722
22.1398 8.710
22.1550 8.618
22.1702 8.476
22.1853 8.562
22.2005 8.618
22.2157 8.703
22.2309 8.702
22.2460 8.479
22.2612 8.342
22.2764 8.579
22.2916 8.645
22.3067 8.691
22.3219 8.685
22.3371 8.714
22.3523 8.614
22.3674 8.541
22.3826 8.594
22.3978 8.597
22.4130 8.451
22.4281 8.630
22.4433 8.397
22.4585 8.421
22.4737 8.569
22.4888 8.506
22.5040 8.426
22.5192 8.388
22.5344 8.297
22.5495 8.518
22.5647 8.697
22.5799 8.257
22.5951 8.691
22.6102 8.459
22.6254 8.701
22.6406 8.165
22.6558 8.705
22.6709 8.565
22.6861 8.620
22.7013 8.071
22.7165 7.983
22.7316 6.638
