'Id: "" Comment: "" Operator: "Lab Manager" Anode: "Mo" Scantype: "Still (Eiger2R_500K (1D mode))" TimePerStep: "300" X: "11.8" Y: "9.4" Z: "11.284" 
7.2532 18.839
7.2684 18.429
7.2836 18.843
7.2987 19.001
7.3139 18.735
7.3291 18.988
7.3443 19.111
7.3594 19.158
7.3746 18.984
7.3898 18.973
7.4050 19.268
7.4201 19.557
7.4353 19.710
7.4505 19.260
7.4657 19.136
7.4808 19.405
7.4960 19.082
7.5112 19.558
7.5264 19.326
7.5415 19.446
7.5567 19.718
7.5719 19.958
7.5871 19.624
7.6022 19.447
7.6174 19.947
7.6326 19.879
7.6478 20.048
7.6629 20.252
7.6781 20.425
7.6933 20.320
7.7085 20.270
7.7236 20.388
7.7388 20.187
7.7540 20.391
7.7692 20.327
7.7843 20.322
7.7995 20.554
7.8147 20.392
7.8299 20.449
7.8450 20.584
7.8602 20.626
7.8754 20.461
7.8905 20.369
7.9057 20.639
7.9209 20.782
7.9361 20.898
7.9512 21.124
7.9664 21.311
7.9816 21.253
7.9968 21.169
8.0119 21.104
8.0271 21.199
8.0423 21.255
8.0575 21.001
8.0726 20.920
8.0878 20.907
8.1030 21.213
8.1182 21.398
8.1333 21.148
8.1485 21.109
8.1637 20.882
8.1789 21.250
8.1940 21.354
8.2092 21.600
8.2244 21.313
8.2396 21.676
8.2547 21.491
8.2699 21.560
8.2851 21.017
8.3003 21.369
8.3154 21.084
8.3306 21.769
8.3458 21.505
8.3610 22.446
8.3761 21.875
8.3913 21.771
8.4065 21.941
8.4217 22.344
8.4368 21.753
8.4520 21.804
8.4672 21.716
8.4824 22.111
8.4975 22.572
8.5127 22.163
8.5279 21.780
8.5431 21.939
8.5582 21.690
8.5734 22.133
8.5886 21.782
8.6038 21.975
8.6189 22.379
8.6341 21.938
8.6493 21.582
8.6645 22.122
8.6796 22.392
8.6948 22.330
8.7100 22.046
8.7252 21.564
8.7403 22.431
8.7555 22.522
8.7707 22.404
8.7859 22.442
8.8010 22.404
8.8162 22.167
8.8314 22.192
8.8466 22.688
8.8617 22.609
8.8769 22.854
8.8921 22.741
8.9073 22.705
8.9224 22.480
8.9376 22.460
8.9528 22.541
8.9680 22.641
8.9831 22.109
8.9983 22.601
9.0135 22.751
9.0287 22.530
9.0438 22.707
9.0590 22.753
9.0742 22.621
9.0894 22.600
9.1045 22.837
9.1197 22.920
9.1349 22.267
9.1501 22.394
9.1652 22.394
9.1804 22.535
9.1956 22.752
9.2108 22.572
9.2259 22.583
9.2411 22.642
9.2563 22.779
9.2715 22.621
9.2866 22.683
9.3018 22.799
9.3170 22.953
9.3322 23.074
9.3473 22.671
9.3625 22.839
9.3777 23.112
9.3929 23.140
9.4080 22.885
9.4232 23.067
9.4384 23.242
9.4536 22.784
9.4687 22.503
9.4839 22.876
9.4991 22.902
9.5143 22.755
9.5294 23.030
9.5446 22.980
9.5598 22.768
9.5750 22.801
9.5901 23.087
9.6053 23.172
9.6205 23.122
9.6357 23.095
9.6508 23.189
9.6660 23.225
9.6812 23.429
9.6964 23.595
9.7115 23.607
9.7267 23.517
9.7419 23.849
9.7571 24.116
9.7722 23.900
9.7874 23.797
9.8026 23.643
9.8178 23.472
9.8329 23.668
9.8481 23.656
9.8633 23.443
9.8785 23.134
9.8936 22.859
9.9088 23.071
9.9240 23.382
9.9392 23.453
9.9543 23.410
9.9695 23.105
9.9847 23.015
9.9999 23.443
10.0150 23.537
10.0302 23.463
10.0454 23.147
10.0606 23.027
10.0757 23.177
10.0909 22.925
10.1061 23.078
10.1213 23.238
10.1364 23.234
10.1516 23.542
10.1668 23.437
10.1820 23.284
10.1971 23.183
10.2123 23.075
10.2275 23.057
10.2427 23.076
10.2578 22.695
10.2730 22.535
10.2882 22.649
10.3034 22.648
10.3185 22.484
10.3337 22.591
10.3489 22.741
10.3641 22.722
10.3792 22.791
10.3944 22.622
10.4096 22.746
10.4248 22.789
10.4399 22.653
10.4551 22.627
10.4703 22.997
10.4855 22.835
10.5006 22.398
10.5158 22.469
10.5310 22.272
10.5462 22.089
10.5613 22.550
10.5765 22.838
10.5917 22.565
10.6069 22.251
10.6220 21.962
10.6372 22.191
10.6524 22.121
10.6676 22.009
10.6827 22.384
10.6979 22.427
10.7131 21.890
10.7283 22.214
10.7434 22.072
10.7586 22.251
10.7738 22.264
10.7890 22.409
10.8041 22.523
10.8193 22.319
10.8345 22.267
10.8497 22.197
10.8648 22.173
10.8800 22.400
10.8952 21.961
10.9104 21.843
10.9255 22.283
10.9407 21.910
10.9559 22.199
10.9711 22.398
10.9862 22.217
11.0014 22.174
11.0166 21.997
11.0318 22.069
11.0469 21.706
11.0621 21.787
11.0773 21.833
11.0925 21.583
11.1076 21.647
11.1228 22.058
11.1380 21.914
11.1532 21.609
11.1683 21.807
11.1835 21.429
11.1987 21.650
11.2139 21.516
11.2290 21.625
11.2442 21.637
11.2594 21.407
11.2746 21.279
11.2897 21.309
11.3049 21.545
11.3201 21.699
11.3353 21.964
11.3504 21.502
11.3656 21.130
11.3808 21.463
11.3960 21.412
11.4111 21.225
11.4263 21.249
11.4415 21.157
11.4567 21.342
11.4718 21.246
11.4870 21.290
11.5022 21.603
11.5174 21.289
11.5325 20.718
11.5477 20.646
11.5629 20.570
11.5781 20.506
11.5932 20.801
11.6084 20.792
11.6236 20.634
11.6388 20.761
11.6539 20.851
11.6691 20.677
11.6843 20.570
11.6995 20.378
11.7146 20.382
11.7298 20.308
11.7450 20.736
11.7602 20.453
11.7753 19.821
11.7905 19.693
11.8057 20.086
11.8209 19.710
11.8360 19.676
11.8512 19.530
11.8664 19.743
11.8816 19.802
11.8967 19.712
11.9119 19.694
11.9271 19.335
11.9423 19.564
11.9574 19.487
11.9726 19.157
11.9878 19.256
12.0030 19.314
12.0181 18.919
12.0333 19.039
12.0485 19.003
12.0637 18.962
12.0788 18.637
12.0940 18.548
12.1092 18.717
12.1244 18.505
12.1395 18.618
12.1547 18.364
12.1699 18.208
12.1851 18.370
12.2002 18.372
12.2154 18.098
12.2306 17.827
12.2458 17.781
12.2609 17.896
12.2761 17.894
12.2913 17.742
12.3065 17.604
12.3216 17.496
12.3368 17.410
12.3520 17.549
12.3672 17.335
12.3823 17.385
12.3975 17.336
12.4127 17.198
12.4279 17.158
12.4430 16.987
12.4582 16.610
12.4734 16.512
12.4886 16.536
12.5037 16.667
12.5189 16.538
12.5341 16.341
12.5493 16.649
12.5644 16.855
12.5796 16.321
12.5948 15.970
12.6100 16.017
12.6251 16.163
12.6403 15.960
12.6555 15.819
12.6707 15.916
12.6858 15.893
12.7010 15.572
12.7162 15.193
12.7314 15.270
12.7465 15.317
12.7617 15.198
12.7769 15.068
12.7921 15.068
12.8072 15.186
12.8224 15.122
12.8376 15.038
12.8528 14.945
12.8679 14.858
12.8831 14.604
12.8983 14.436
12.9135 14.503
12.9286 14.337
12.9438 14.331
12.9590 14.486
12.9742 14.280
12.9893 14.205
13.0045 14.050
13.0197 14.113
13.0349 14.294
13.0500 13.859
13.0652 13.693
13.0804 14.027
13.0956 14.163
13.1107 13.799
13.1259 13.663
13.1411 13.779
13.1563 13.694
13.1714 13.630
13.1866 13.622
13.2018 13.746
13.2170 13.638
13.2321 13.285
13.2473 13.288
13.2625 13.352
13.2777 13.155
13.2928 13.169
13.3080 13.055
13.3232 13.022
13.3384 12.976
13.3535 12.779
13.3687 12.911
13.3839 12.750
13.3991 12.740
13.4142 12.942
13.4294 12.908
13.4446 12.861
13.4598 12.975
13.4749 12.818
13.4901 12.652
13.5053 12.583
13.5205 12.566
13.5356 12.421
13.5508 12.635
13.5660 12.781
13.5812 12.257
13.5963 12.032
13.6115 12.065
13.6267 12.218
13.6419 12.247
13.6570 12.328
13.6722 12.133
13.6874 12.055
13.7026 12.058
13.7177 11.974
13.7329 12.028
13.7481 12.133
13.7633 12.383
13.7784 12.425
13.7936 12.284
13.8088 12.247
13.8239 12.302
13.8391 12.113
13.8543 12.217
13.8695 12.157
13.8846 12.168
13.8998 12.076
13.9150 11.982
13.9302 12.095
13.9453 12.133
13.9605 11.997
13.9757 11.574
13.9909 11.588
14.0060 11.653
14.0212 11.334
14.0364 11.434
14.0516 11.661
14.0667 11.665
14.0819 11.696
14.0971 11.818
14.1123 11.505
14.1274 11.652
14.1426 11.673
14.1578 11.820
14.1730 11.816
14.1881 11.736
14.2033 11.604
14.2185 11.639
14.2337 11.621
14.2488 11.777
14.2640 11.695
14.2792 11.791
14.2944 11.971
14.3095 11.799
14.3247 11.998
14.3399 12.490
14.3551 12.762
14.3702 12.626
14.3854 12.950
14.4006 12.990
14.4158 13.175
14.4309 12.664
14.4461 12.609
14.4613 12.275
14.4765 12.241
14.4916 12.177
14.5068 12.154
14.5220 11.781
14.5372 11.663
14.5523 11.397
14.5675 11.315
14.5827 11.044
14.5979 10.988
14.6130 10.810
14.6282 10.821
14.6434 10.732
14.6586 10.367
14.6737 10.615
14.6889 10.491
14.7041 10.961
14.7193 10.748
14.7344 10.806
14.7496 10.405
14.7648 10.572
14.7800 10.516
14.7951 10.753
14.8103 10.468
14.8255 10.594
14.8407 10.203
14.8558 10.457
14.8710 10.521
14.8862 10.127
14.9014 10.282
14.9165 10.694
14.9317 10.353
14.9469 10.366
14.9621 10.929
14.9772 10.403
14.9924 10.340
15.0076 10.272
15.0228 10.234
15.0379 10.520
15.0531 10.293
15.0683 10.184
15.0835 10.097
15.0986 10.048
15.1138 10.399
15.1290 10.377
15.1442 10.115
15.1593 10.074
15.1745 10.315
15.1897 10.175
15.2049 10.402
15.2200 10.448
15.2352 10.085
15.2504 10.376
15.2656 9.835
15.2807 9.822
15.2959 10.069
15.3111 10.292
15.3263 10.287
15.3414 9.766
15.3566 10.180
15.3718 10.052
15.3870 9.902
15.4021 9.815
15.4173 10.092
15.4325 10.391
15.4477 10.136
15.4628 10.291
15.4780 10.343
15.4932 10.037
15.5084 10.233
15.5235 10.119
15.5387 9.776
15.5539 9.889
15.5691 9.902
15.5842 9.436
15.5994 9.655
15.6146 10.029
15.6298 9.860
15.6449 10.082
15.6601 9.918
15.6753 9.792
15.6905 9.955
15.7056 9.938
15.7208 9.740
15.7360 9.974
15.7512 9.797
15.7663 9.728
15.7815 9.562
15.7967 9.671
15.8119 9.287
15.8270 9.684
15.8422 9.720
15.8574 9.770
15.8726 9.685
15.8877 9.407
15.9029 9.415
15.9181 9.534
15.9333 9.604
15.9484 9.731
15.9636 9.531
15.9788 9.570
15.9940 9.611
16.0091 9.749
16.0243 9.584
16.0395 9.577
16.0547 9.574
16.0698 9.672
16.0850 9.598
16.1002 9.515
16.1154 9.464
16.1305 9.694
16.1457 9.679
16.1609 9.578
16.1761 9.478
16.1912 9.577
16.2064 9.478
16.2216 9.689
16.2368 9.601
16.2519 9.563
16.2671 9.849
16.2823 9.927
16.2975 9.682
16.3126 9.470
16.3278 9.530
16.3430 9.896
16.3582 10.084
16.3733 10.054
16.3885 9.926
16.4037 9.993
16.4189 9.888
16.4340 9.920
16.4492 9.955
16.4644 9.830
16.4796 9.787
16.4947 9.882
16.5099 9.903
16.5251 9.929
16.5403 9.834
16.5554 9.551
16.5706 9.452
16.5858 9.364
16.6010 9.359
16.6161 9.437
16.6313 9.547
16.6465 9.683
16.6617 9.665
16.6768 9.810
16.6920 10.086
16.7072 10.099
16.7224 9.993
16.7375 9.787
16.7527 9.799
16.7679 9.985
16.7831 9.818
16.7982 9.842
16.8134 9.983
16.8286 9.889
16.8438 9.868
16.8589 9.830
16.8741 9.750
16.8893 9.561
16.9045 9.624
16.9196 9.796
16.9348 9.857
16.9500 9.936
16.9652 10.021
16.9803 9.790
16.9955 9.818
17.0107 9.908
17.0259 9.887
17.0410 10.172
17.0562 10.040
17.0714 9.929
17.0866 10.356
17.1017 10.661
17.1169 10.863
17.1321 10.902
17.1473 11.163
17.1624 11.678
17.1776 12.253
17.1928 12.730
17.2080 13.616
17.2231 14.949
17.2383 16.322
17.2535 17.630
17.2687 18.414
17.2838 18.656
17.2990 18.027
17.3142 16.848
17.3294 16.268
17.3445 16.304
17.3597 16.051
17.3749 15.939
17.3901 15.499
17.4052 14.408
17.4204 13.649
17.4356 12.662
17.4508 11.963
17.4659 11.788
17.4811 11.439
17.4963 11.410
17.5115 11.440
17.5266 11.189
17.5418 11.095
17.5570 11.125
17.5722 10.967
17.5873 10.896
17.6025 11.096
17.6177 11.183
17.6329 11.314
17.6480 11.319
17.6632 11.375
17.6784 11.703
17.6936 11.773
17.7087 11.540
17.7239 11.487
17.7391 11.333
17.7543 10.972
17.7694 10.923
17.7846 10.980
17.7998 10.968
17.8150 10.666
17.8301 10.383
17.8453 10.243
17.8605 10.321
17.8757 10.293
17.8908 10.284
17.9060 10.239
17.9212 10.106
17.9364 10.373
17.9515 10.504
17.9667 10.285
17.9819 10.205
17.9971 10.265
18.0122 10.284
18.0274 10.205
18.0426 10.184
18.0578 10.174
18.0729 10.136
18.0881 10.031
18.1033 9.946
18.1185 9.953
18.1336 9.975
18.1488 10.122
18.1640 10.124
18.1792 10.166
18.1943 10.141
18.2095 10.136
18.2247 9.951
18.2399 9.776
18.2550 9.945
18.2702 9.895
18.2854 9.767
18.3006 9.914
18.3157 9.841
18.3309 9.774
18.3461 9.727
18.3613 9.650
18.3764 9.718
18.3916 9.809
18.4068 9.890
18.4220 9.818
18.4371 9.824
18.4523 9.829
18.4675 9.939
18.4827 9.886
18.4978 9.737
18.5130 9.523
18.5282 9.682
18.5434 9.894
18.5585 10.082
18.5737 10.248
18.5889 10.223
18.6041 9.970
18.6192 9.659
18.6344 9.651
18.6496 9.655
18.6648 9.850
18.6799 9.808
18.6951 9.752
18.7103 9.936
18.7255 9.999
18.7406 9.889
18.7558 9.704
18.7710 9.912
18.7862 9.942
18.8013 9.762
18.8165 9.627
18.8317 9.761
18.8469 9.988
18.8620 10.017
18.8772 9.968
18.8924 9.973
18.9076 10.202
18.9227 10.355
18.9379 10.186
18.9531 10.196
18.9683 10.026
18.9834 10.139
18.9986 9.967
19.0138 10.147
19.0290 10.207
19.0441 10.143
19.0593 10.180
19.0745 10.195
19.0897 10.251
19.1048 10.250
19.1200 10.269
19.1352 10.221
19.1504 10.527
19.1655 10.745
19.1807 10.535
19.1959 10.373
19.2111 10.503
19.2262 10.696
19.2414 10.809
19.2566 10.917
19.2718 10.906
19.2869 10.814
19.3021 10.842
19.3173 10.995
19.3325 11.041
19.3476 10.883
19.3628 10.960
19.3780 11.035
19.3932 11.339
19.4083 11.436
19.4235 11.112
19.4387 11.068
19.4539 11.406
19.4690 11.398
19.4842 11.379
19.4994 11.589
19.5146 11.811
19.5297 11.698
19.5449 11.522
19.5601 11.594
19.5753 11.675
19.5904 11.856
19.6056 11.928
19.6208 11.877
19.6360 11.737
19.6511 11.602
19.6663 11.642
19.6815 11.731
19.6967 11.859
19.7118 11.902
19.7270 11.708
19.7422 11.798
19.7574 11.827
19.7725 11.672
19.7877 11.886
19.8029 11.998
19.8180 11.839
19.8332 12.150
19.8484 12.325
19.8636 12.181
19.8787 12.448
19.8939 12.693
19.9091 12.981
19.9243 13.454
19.9394 13.581
19.9546 13.884
19.9698 14.579
19.9850 14.623
20.0001 14.269
20.0153 14.121
20.0305 14.225
20.0457 14.113
20.0608 13.844
20.0760 13.932
20.0912 13.922
20.1064 13.654
20.1215 13.430
20.1367 13.248
20.1519 12.932
20.1671 12.785
20.1822 13.054
20.1974 12.898
20.2126 13.012
20.2278 13.345
20.2429 12.761
20.2581 12.480
20.2733 12.260
20.2885 12.248
20.3036 12.113
20.3188 11.977
20.3340 11.911
20.3492 11.905
20.3643 11.863
20.3795 11.782
20.3947 11.780
20.4099 11.866
20.4250 11.971
20.4402 11.994
20.4554 11.637
20.4706 11.863
20.4857 11.843
20.5009 11.511
20.5161 11.466
20.5313 11.354
20.5464 11.483
20.5616 11.435
20.5768 11.159
20.5920 10.807
20.6071 11.018
20.6223 11.086
20.6375 10.980
20.6527 10.686
20.6678 10.627
20.6830 10.642
20.6982 10.703
20.7134 10.523
20.7285 10.432
20.7437 10.335
20.7589 10.381
20.7741 10.413
20.7892 10.670
20.8044 10.426
20.8196 10.554
20.8348 10.605
20.8499 10.626
20.8651 10.206
20.8803 10.466
20.8955 10.249
20.9106 9.931
20.9258 10.226
20.9410 9.969
20.9562 10.088
20.9713 10.020
20.9865 10.136
21.0017 10.364
21.0169 10.063
21.0320 9.740
21.0472 10.143
21.0624 10.167
21.0776 10.114
21.0927 10.165
21.1079 9.638
21.1231 9.966
21.1383 10.026
21.1534 9.853
21.1686 9.845
21.1838 9.740
21.1990 9.546
21.2141 9.895
21.2293 9.711
21.2445 9.878
21.2597 9.670
21.2748 9.924
21.2900 9.832
21.3052 9.517
21.3204 9.445
21.3355 9.687
21.3507 9.649
21.3659 9.794
21.3811 9.554
21.3962 9.926
21.4114 9.364
21.4266 9.430
21.4418 9.406
21.4569 9.475
21.4721 9.384
21.4873 9.270
21.5025 9.537
21.5176 9.219
21.5328 9.415
21.5480 9.281
21.5632 8.994
21.5783 9.164
21.5935 9.169
21.6087 9.021
21.6239 9.279
21.6390 9.083
21.6542 8.980
21.6694 9.054
21.6846 9.282
21.6997 9.122
21.7149 8.851
21.7301 9.024
21.7453 8.861
21.7604 9.189
21.7756 9.162
21.7908 8.861
21.8060 9.176
21.8211 9.296
21.8363 9.205
21.8515 9.177
21.8667 9.253
21.8818 9.118
21.8970 9.022
21.9122 9.169
21.9274 9.149
21.9425 9.294
21.9577 9.187
21.9729 9.200
21.9881 9.044
22.0032 8.754
22.0184 8.894
22.0336 8.900
22.0488 8.882
22.0639 8.846
22.0791 8.900
22.0943 8.767
22.1095 8.598
22.1246 8.670
22.1398 8.734
22.1550 8.599
22.1702 8.547
22.1853 8.581
22.2005 8.555
22.2157 8.538
22.2309 8.436
22.2460 8.509
22.2612 8.539
22.2764 8.583
22.2916 8.170
22.3067 8.323
22.3219 8.527
22.3371 8.449
22.3523 8.456
22.3674 8.472
22.3826 8.465
22.3978 8.516
22.4130 8.589
22.4281 8.383
22.4433 8.456
22.4585 8.733
22.4737 8.590
22.4888 8.300
22.5040 8.480
22.5192 8.215
22.5344 8.320
22.5495 8.515
22.5647 8.592
22.5799 8.613
22.5951 8.554
22.6102 8.382
22.6254 8.351
22.6406 8.257
22.6558 8.225
22.6709 8.367
22.6861 8.460
22.7013 8.281
22.7165 8.088
22.7316 6.619
