'Id: "" Comment: "" Operator: "Lab Manager" Anode: "Mo" Scantype: "Still (Eiger2R_500K (1D mode))" TimePerStep: "300" X: "11.8" Y: "9.4" Z: "11.284" 
7.2532 19.049
7.2684 19.072
7.2836 18.548
7.2987 18.728
7.3139 19.101
7.3291 19.162
7.3443 18.972
7.3594 19.532
7.3746 19.608
7.3898 19.668
7.4050 19.556
7.4201 19.587
7.4353 19.638
7.4505 19.166
7.4657 19.677
7.4808 19.745
7.4960 19.746
7.5112 19.734
7.5264 19.987
7.5415 19.943
7.5567 19.626
7.5719 19.705
7.5871 19.976
7.6022 20.001
7.6174 20.147
7.6326 20.360
7.6478 19.914
7.6629 19.916
7.6781 19.947
7.6933 20.247
7.7085 20.448
7.7236 20.371
7.7388 20.240
7.7540 20.261
7.7692 20.354
7.7843 20.489
7.7995 20.562
7.8147 20.355
7.8299 20.186
7.8450 20.709
7.8602 20.956
7.8754 20.507
7.8905 20.501
7.9057 20.672
7.9209 20.593
7.9361 20.556
7.9512 21.006
7.9664 21.159
7.9816 20.917
7.9968 20.971
8.0119 20.924
8.0271 20.746
8.0423 20.941
8.0575 20.778
8.0726 21.227
8.0878 21.131
8.1030 21.113
8.1182 21.116
8.1333 20.998
8.1485 21.452
8.1637 21.706
8.1789 21.464
8.1940 20.930
8.2092 21.207
8.2244 21.134
8.2396 21.349
8.2547 21.274
8.2699 21.565
8.2851 21.612
8.3003 21.520
8.3154 21.924
8.3306 21.737
8.3458 21.694
8.3610 21.936
8.3761 21.680
8.3913 21.681
8.4065 21.864
8.4217 21.386
8.4368 21.989
8.4520 22.071
8.4672 22.358
8.4824 21.762
8.4975 22.045
8.5127 21.931
8.5279 22.287
8.5431 22.100
8.5582 22.279
8.5734 22.568
8.5886 22.372
8.6038 22.568
8.6189 21.996
8.6341 22.692
8.6493 22.648
8.6645 22.229
8.6796 22.432
8.6948 22.365
8.7100 22.187
8.7252 22.254
8.7403 21.971
8.7555 22.050
8.7707 22.409
8.7859 22.318
8.8010 22.294
8.8162 22.424
8.8314 22.442
8.8466 22.381
8.8617 22.097
8.8769 22.214
8.8921 22.179
8.9073 22.541
8.9224 22.429
8.9376 22.644
8.9528 22.876
8.9680 22.761
8.9831 22.960
8.9983 22.455
9.0135 22.609
9.0287 22.283
9.0438 22.331
9.0590 23.190
9.0742 23.164
9.0894 22.667
9.1045 22.817
9.1197 22.828
9.1349 22.960
9.1501 22.958
9.1652 22.653
9.1804 23.147
9.1956 22.983
9.2108 22.826
9.2259 22.693
9.2411 22.649
9.2563 22.473
9.2715 22.765
9.2866 23.175
9.3018 23.083
9.3170 22.893
9.3322 22.691
9.3473 22.858
9.3625 22.862
9.3777 22.963
9.3929 22.793
9.4080 22.893
9.4232 23.156
9.4384 23.152
9.4536 23.180
9.4687 23.101
9.4839 23.097
9.4991 23.244
9.5143 23.272
9.5294 23.206
9.5446 23.121
9.5598 23.284
9.5750 23.187
9.5901 22.927
9.6053 22.979
9.6205 23.291
9.6357 23.517
9.6508 23.731
9.6660 23.734
9.6812 23.752
9.6964 24.030
9.7115 24.028
9.7267 23.878
9.7419 24.078
9.7571 24.071
9.7722 23.645
9.7874 23.761
9.8026 24.119
9.8178 23.771
9.8329 23.448
9.8481 23.207
9.8633 23.253
9.8785 23.229
9.8936 23.098
9.9088 23.273
9.9240 23.372
9.9392 23.480
9.9543 23.297
9.9695 23.173
9.9847 23.216
9.9999 23.267
10.0150 23.251
10.0302 23.128
10.0454 23.246
10.0606 23.497
10.0757 23.311
10.0909 23.221
10.1061 23.156
10.1213 23.163
10.1364 23.568
10.1516 23.781
10.1668 23.443
10.1820 23.247
10.1971 23.212
10.2123 23.422
10.2275 23.089
10.2427 22.903
10.2578 22.998
10.2730 23.149
10.2882 23.179
10.3034 22.962
10.3185 22.787
10.3337 22.615
10.3489 22.738
10.3641 22.675
10.3792 22.842
10.3944 22.894
10.4096 22.846
10.4248 22.532
10.4399 22.333
10.4551 22.402
10.4703 22.428
10.4855 22.410
10.5006 22.759
10.5158 22.881
10.5310 22.467
10.5462 22.775
10.5613 23.083
10.5765 22.642
10.5917 21.987
10.6069 22.162
10.6220 22.359
10.6372 22.319
10.6524 22.887
10.6676 22.519
10.6827 22.270
10.6979 22.432
10.7131 22.426
10.7283 22.451
10.7434 22.605
10.7586 22.352
10.7738 22.135
10.7890 22.218
10.8041 22.410
10.8193 22.400
10.8345 22.327
10.8497 22.333
10.8648 22.767
10.8800 22.091
10.8952 22.085
10.9104 22.084
10.9255 22.220
10.9407 22.646
10.9559 22.598
10.9711 22.299
10.9862 22.275
11.0014 22.452
11.0166 22.100
11.0318 22.053
11.0469 21.908
11.0621 21.723
11.0773 21.685
11.0925 21.951
11.1076 21.945
11.1228 22.028
11.1380 21.759
11.1532 21.517
11.1683 21.735
11.1835 21.720
11.1987 21.591
11.2139 22.005
11.2290 21.397
11.2442 21.421
11.2594 21.434
11.2746 21.601
11.2897 21.616
11.3049 21.388
11.3201 21.311
11.3353 21.284
11.3504 21.168
11.3656 21.206
11.3808 21.358
11.3960 21.281
11.4111 21.324
11.4263 21.035
11.4415 21.022
11.4567 21.490
11.4718 21.315
11.4870 20.932
11.5022 21.092
11.5174 21.338
11.5325 21.055
11.5477 20.919
11.5629 21.053
11.5781 20.957
11.5932 20.689
11.6084 20.838
11.6236 20.662
11.6388 20.577
11.6539 20.812
11.6691 20.777
11.6843 20.637
11.6995 20.287
11.7146 20.105
11.7298 20.375
11.7450 20.190
11.7602 20.118
11.7753 20.592
11.7905 20.419
11.8057 20.181
11.8209 20.283
11.8360 19.992
11.8512 19.786
11.8664 19.842
11.8816 19.818
11.8967 19.571
11.9119 19.920
11.9271 19.687
11.9423 19.659
11.9574 19.759
11.9726 19.731
11.9878 19.311
12.0030 19.186
12.0181 19.236
12.0333 19.234
12.0485 19.204
12.0637 18.970
12.0788 18.961
12.0940 18.780
12.1092 18.743
12.1244 18.695
12.1395 18.565
12.1547 18.237
12.1699 18.084
12.1851 18.275
12.2002 18.291
12.2154 18.273
12.2306 18.101
12.2458 17.620
12.2609 17.596
12.2761 17.727
12.2913 17.591
12.3065 17.576
12.3216 17.735
12.3368 17.555
12.3520 17.313
12.3672 17.379
12.3823 17.478
12.3975 17.453
12.4127 17.277
12.4279 17.174
12.4430 16.684
12.4582 16.850
12.4734 16.724
12.4886 16.861
12.5037 16.820
12.5189 16.518
12.5341 16.413
12.5493 16.417
12.5644 16.440
12.5796 16.296
12.5948 16.220
12.6100 16.104
12.6251 16.050
12.6403 15.884
12.6555 15.979
12.6707 15.841
12.6858 15.817
12.7010 15.842
12.7162 15.593
12.7314 15.546
12.7465 15.583
12.7617 15.407
12.7769 15.238
12.7921 15.321
12.8072 15.371
12.8224 15.268
12.8376 15.039
12.8528 15.169
12.8679 15.027
12.8831 14.714
12.8983 14.544
12.9135 14.449
12.9286 14.367
12.9438 14.358
12.9590 14.464
12.9742 14.468
12.9893 14.345
13.0045 14.486
13.0197 14.227
13.0349 14.019
13.0500 14.258
13.0652 14.242
13.0804 14.090
13.0956 14.116
13.1107 14.161
13.1259 14.056
13.1411 13.753
13.1563 13.670
13.1714 13.719
13.1866 13.807
13.2018 13.816
13.2170 13.616
13.2321 13.383
13.2473 13.302
13.2625 13.431
13.2777 13.344
13.2928 13.463
13.3080 13.446
13.3232 13.110
13.3384 12.934
13.3535 12.986
13.3687 12.972
13.3839 12.953
13.3991 12.987
13.4142 12.994
13.4294 12.957
13.4446 13.037
13.4598 12.962
13.4749 12.940
13.4901 12.883
13.5053 12.568
13.5205 12.293
13.5356 12.126
13.5508 12.076
13.5660 12.329
13.5812 12.480
13.5963 12.446
13.6115 12.312
13.6267 12.186
13.6419 12.263
13.6570 12.216
13.6722 12.224
13.6874 12.169
13.7026 12.280
13.7177 12.282
13.7329 12.136
13.7481 11.959
13.7633 12.224
13.7784 12.227
13.7936 12.084
13.8088 12.163
13.8239 12.132
13.8391 12.365
13.8543 12.509
13.8695 12.307
13.8846 12.248
13.8998 12.694
13.9150 12.393
13.9302 11.908
13.9453 11.822
13.9605 11.890
13.9757 11.584
13.9909 11.366
14.0060 11.730
14.0212 11.700
14.0364 11.807
14.0516 11.823
14.0667 11.541
14.0819 11.598
14.0971 11.749
14.1123 11.329
14.1274 11.440
14.1426 11.545
14.1578 11.779
14.1730 11.487
14.1881 11.749
14.2033 11.592
14.2185 11.836
14.2337 11.816
14.2488 12.159
14.2640 11.844
14.2792 12.180
14.2944 12.099
14.3095 12.340
14.3247 12.215
14.3399 12.287
14.3551 12.478
14.3702 12.729
14.3854 13.076
14.4006 13.359
14.4158 13.130
14.4309 13.135
14.4461 12.735
14.4613 12.542
14.4765 12.089
14.4916 11.955
14.5068 11.951
14.5220 11.738
14.5372 11.532
14.5523 11.278
14.5675 11.072
14.5827 10.927
14.5979 10.945
14.6130 11.018
14.6282 10.719
14.6434 10.931
14.6586 10.856
14.6737 10.511
14.6889 10.646
14.7041 10.810
14.7193 10.827
14.7344 10.783
14.7496 10.621
14.7648 10.579
14.7800 10.640
14.7951 10.822
14.8103 10.592
14.8255 10.511
14.8407 10.278
14.8558 10.527
14.8710 10.740
14.8862 10.870
14.9014 10.488
14.9165 10.794
14.9317 10.502
14.9469 10.152
14.9621 10.445
14.9772 10.234
14.9924 10.316
15.0076 10.516
15.0228 10.245
15.0379 10.395
15.0531 10.300
15.0683 10.629
15.0835 10.388
15.0986 10.198
15.1138 10.233
15.1290 10.056
15.1442 10.377
15.1593 10.345
15.1745 10.192
15.1897 10.310
15.2049 10.421
15.2200 10.084
15.2352 9.976
15.2504 10.118
15.2656 10.045
15.2807 10.134
15.2959 10.412
15.3111 10.493
15.3263 10.017
15.3414 10.179
15.3566 10.128
15.3718 9.898
15.3870 10.375
15.4021 10.028
15.4173 10.333
15.4325 10.416
15.4477 10.175
15.4628 10.111
15.4780 10.250
15.4932 10.361
15.5084 10.588
15.5235 10.036
15.5387 9.932
15.5539 10.043
15.5691 10.066
15.5842 10.345
15.5994 10.098
15.6146 9.930
15.6298 9.898
15.6449 9.785
15.6601 9.726
15.6753 9.868
15.6905 9.588
15.7056 9.802
15.7208 9.651
15.7360 9.869
15.7512 9.634
15.7663 9.706
15.7815 9.857
15.7967 9.683
15.8119 9.715
15.8270 9.807
15.8422 9.876
15.8574 9.706
15.8726 9.388
15.8877 9.556
15.9029 9.574
15.9181 9.732
15.9333 9.677
15.9484 9.564
15.9636 9.718
15.9788 9.702
15.9940 9.676
16.0091 9.488
16.0243 9.738
16.0395 9.723
16.0547 9.715
16.0698 9.675
16.0850 9.971
16.1002 9.596
16.1154 9.757
16.1305 9.723
16.1457 9.492
16.1609 9.676
16.1761 9.549
16.1912 9.772
16.2064 9.808
16.2216 9.611
16.2368 9.595
16.2519 9.884
16.2671 9.926
16.2823 10.005
16.2975 9.985
16.3126 10.025
16.3278 9.975
16.3430 10.161
16.3582 9.924
16.3733 9.857
16.3885 9.824
16.4037 9.666
16.4189 10.071
16.4340 9.884
16.4492 9.899
16.4644 9.859
16.4796 9.611
16.4947 9.578
16.5099 9.617
16.5251 9.772
16.5403 9.613
16.5554 9.657
16.5706 9.539
16.5858 9.611
16.6010 9.633
16.6161 9.639
16.6313 9.730
16.6465 9.663
16.6617 9.828
16.6768 9.734
16.6920 9.708
16.7072 9.893
16.7224 9.812
16.7375 9.917
16.7527 10.141
16.7679 9.946
16.7831 9.944
16.7982 10.048
16.8134 9.802
16.8286 9.929
16.8438 9.968
16.8589 9.923
16.8741 9.912
16.8893 9.598
16.9045 9.648
16.9196 9.896
16.9348 9.936
16.9500 9.870
16.9652 9.807
16.9803 9.748
16.9955 9.663
17.0107 9.866
17.0259 10.082
17.0410 9.902
17.0562 10.015
17.0714 10.422
17.0866 10.372
17.1017 10.418
17.1169 10.590
17.1321 11.193
17.1473 11.641
17.1624 11.562
17.1776 12.152
17.1928 13.064
17.2080 13.730
17.2231 14.719
17.2383 16.263
17.2535 17.494
17.2687 18.332
17.2838 18.689
17.2990 17.880
17.3142 16.748
17.3294 15.963
17.3445 15.786
17.3597 15.841
17.3749 15.582
17.3901 14.961
17.4052 13.989
17.4204 13.226
17.4356 12.578
17.4508 11.919
17.4659 11.504
17.4811 11.561
17.4963 11.550
17.5115 11.392
17.5266 11.487
17.5418 11.533
17.5570 11.369
17.5722 11.224
17.5873 11.382
17.6025 11.306
17.6177 11.205
17.6329 11.364
17.6480 11.441
17.6632 11.526
17.6784 11.569
17.6936 11.448
17.7087 11.355
17.7239 11.257
17.7391 11.056
17.7543 10.813
17.7694 11.038
17.7846 11.201
17.7998 10.806
17.8150 10.643
17.8301 10.467
17.8453 10.442
17.8605 10.448
17.8757 10.220
17.8908 10.084
17.9060 10.126
17.9212 10.197
17.9364 10.390
17.9515 10.358
17.9667 10.099
17.9819 10.189
17.9971 10.414
18.0122 10.273
18.0274 10.138
18.0426 10.241
18.0578 10.155
18.0729 9.934
18.0881 10.008
18.1033 10.084
18.1185 10.162
18.1336 9.879
18.1488 9.777
18.1640 9.763
18.1792 9.713
18.1943 9.891
18.2095 9.864
18.2247 9.767
18.2399 9.752
18.2550 9.979
18.2702 10.089
18.2854 9.910
18.3006 9.827
18.3157 9.702
18.3309 9.751
18.3461 9.976
18.3613 9.986
18.3764 9.674
18.3916 9.704
18.4068 9.794
18.4220 9.668
18.4371 9.574
18.4523 9.810
18.4675 9.755
18.4827 9.607
18.4978 9.686
18.5130 9.733
18.5282 9.812
18.5434 9.807
18.5585 9.712
18.5737 9.888
18.5889 9.892
18.6041 9.596
18.6192 9.727
18.6344 10.046
18.6496 9.723
18.6648 9.577
18.6799 9.661
18.6951 9.745
18.7103 9.832
18.7255 9.869
18.7406 9.891
18.7558 9.915
18.7710 9.867
18.7862 9.796
18.8013 9.612
18.8165 9.710
18.8317 9.779
18.8469 9.712
18.8620 9.816
18.8772 10.030
18.8924 9.958
18.9076 9.855
18.9227 9.846
18.9379 10.026
18.9531 10.133
18.9683 10.012
18.9834 9.927
18.9986 10.107
19.0138 10.228
19.0290 10.073
19.0441 10.205
19.0593 10.157
19.0745 10.225
19.0897 10.151
19.1048 10.168
19.1200 10.343
19.1352 10.444
19.1504 10.467
19.1655 10.635
19.1807 10.572
19.1959 10.522
19.2111 10.635
19.2262 10.622
19.2414 10.584
19.2566 10.537
19.2718 10.671
19.2869 10.974
19.3021 11.088
19.3173 11.023
19.3325 11.002
19.3476 11.112
19.3628 11.204
19.3780 11.159
19.3932 11.058
19.4083 11.087
19.4235 11.422
19.4387 11.340
19.4539 11.156
19.4690 11.186
19.4842 11.162
19.4994 11.351
19.5146 11.523
19.5297 11.450
19.5449 11.424
19.5601 11.481
19.5753 11.497
19.5904 11.699
19.6056 11.778
19.6208 11.532
19.6360 11.256
19.6511 11.357
19.6663 11.770
19.6815 11.899
19.6967 11.809
19.7118 11.893
19.7270 11.852
19.7422 11.712
19.7574 11.761
19.7725 12.028
19.7877 11.884
19.8029 11.682
19.8180 12.066
19.8332 12.106
19.8484 12.332
19.8636 12.516
19.8787 12.495
19.8939 12.750
19.9091 12.917
19.9243 13.449
19.9394 14.039
19.9546 14.143
19.9698 14.431
19.9850 14.512
20.0001 14.181
20.0153 13.839
20.0305 13.697
20.0457 13.728
20.0608 13.718
20.0760 13.653
20.0912 13.654
20.1064 13.350
20.1215 13.230
20.1367 13.037
20.1519 12.836
20.1671 13.016
20.1822 13.015
20.1974 12.881
20.2126 12.761
20.2278 12.504
20.2429 12.379
20.2581 12.580
20.2733 12.455
20.2885 12.146
20.3036 12.023
20.3188 12.271
20.3340 12.055
20.3492 12.091
20.3643 12.050
20.3795 11.924
20.3947 11.603
20.4099 11.570
20.4250 11.730
20.4402 12.051
20.4554 11.840
20.4706 11.794
20.4857 11.671
20.5009 11.609
20.5161 11.579
20.5313 11.401
20.5464 11.509
20.5616 11.430
20.5768 11.478
20.5920 10.983
20.6071 10.899
20.6223 10.776
20.6375 10.897
20.6527 10.794
20.6678 10.788
20.6830 10.699
20.6982 10.852
20.7134 10.470
20.7285 10.680
20.7437 10.443
20.7589 10.574
20.7741 10.219
20.7892 10.246
20.8044 10.094
20.8196 10.395
20.8348 10.226
20.8499 10.620
20.8651 10.241
20.8803 10.156
20.8955 10.202
20.9106 10.234
20.9258 10.052
20.9410 10.345
20.9562 10.539
20.9713 10.120
20.9865 10.066
21.0017 9.817
21.0169 9.951
21.0320 9.881
21.0472 10.217
21.0624 10.024
21.0776 9.658
21.0927 10.062
21.1079 10.237
21.1231 10.003
21.1383 9.785
21.1534 9.610
21.1686 10.013
21.1838 9.932
21.1990 9.935
21.2141 10.030
21.2293 9.901
21.2445 9.686
21.2597 9.719
21.2748 9.576
21.2900 9.682
21.3052 9.546
21.3204 9.408
21.3355 9.493
21.3507 9.435
21.3659 9.137
21.3811 9.396
21.3962 9.243
21.4114 9.472
21.4266 9.614
21.4418 9.581
21.4569 9.617
21.4721 9.446
21.4873 9.493
21.5025 9.452
21.5176 9.322
21.5328 9.266
21.5480 9.244
21.5632 9.296
21.5783 9.082
21.5935 9.256
21.6087 9.290
21.6239 9.439
21.6390 9.251
21.6542 9.118
21.6694 9.085
21.6846 9.244
21.6997 9.168
21.7149 8.934
21.7301 9.003
21.7453 9.211
21.7604 9.118
21.7756 8.966
21.7908 9.101
21.8060 9.146
21.8211 9.265
21.8363 9.058
21.8515 8.950
21.8667 9.057
21.8818 9.146
21.8970 9.076
21.9122 8.994
21.9274 8.972
21.9425 8.893
21.9577 8.994
21.9729 8.878
21.9881 8.838
22.0032 8.919
22.0184 9.013
22.0336 8.863
22.0488 8.866
22.0639 8.754
22.0791 8.809
22.0943 8.820
22.1095 8.901
22.1246 8.831
22.1398 8.590
22.1550 8.731
22.1702 8.634
22.1853 8.435
22.2005 8.490
22.2157 8.635
22.2309 8.753
22.2460 8.548
22.2612 8.578
22.2764 8.562
22.2916 8.622
22.3067 8.405
22.3219 8.543
22.3371 8.527
22.3523 8.657
22.3674 8.644
22.3826 8.348
22.3978 8.183
22.4130 8.609
22.4281 8.543
22.4433 8.415
22.4585 8.331
22.4737 8.484
22.4888 8.495
22.5040 8.700
22.5192 8.287
22.5344 8.615
22.5495 8.585
22.5647 8.549
22.5799 8.161
22.5951 8.600
22.6102 8.650
22.6254 8.298
22.6406 8.322
22.6558 8.424
22.6709 8.124
22.6861 8.341
22.7013 8.472
22.7165 8.285
22.7316 6.494
