'Id: "" Comment: "" Operator: "Lab Manager" Anode: "Mo" Scantype: "Still (Eiger2R_500K (1D mode))" TimePerStep: "300" X: "11.8" Y: "9.4" Z: "11.284" 
7.2532 18.970
7.2684 19.025
7.2836 19.014
7.2987 19.166
7.3139 18.935
7.3291 19.160
7.3443 19.137
7.3594 19.383
7.3746 19.019
7.3898 18.873
7.4050 19.097
7.4201 19.240
7.4353 19.329
7.4505 19.305
7.4657 19.337
7.4808 19.364
7.4960 19.899
7.5112 19.911
7.5264 19.755
7.5415 19.786
7.5567 19.864
7.5719 19.698
7.5871 20.143
7.6022 20.064
7.6174 20.129
7.6326 20.088
7.6478 20.344
7.6629 20.243
7.6781 20.304
7.6933 20.242
7.7085 20.122
7.7236 20.322
7.7388 20.244
7.7540 20.317
7.7692 20.490
7.7843 20.456
7.7995 20.655
7.8147 20.516
7.8299 20.272
7.8450 20.297
7.8602 20.547
7.8754 20.891
7.8905 21.064
7.9057 20.765
7.9209 20.678
7.9361 20.538
7.9512 20.564
7.9664 20.784
7.9816 20.861
7.9968 20.912
8.0119 20.914
8.0271 20.653
8.0423 21.018
8.0575 21.663
8.0726 21.383
8.0878 21.345
8.1030 21.050
8.1182 21.149
8.1333 20.910
8.1485 21.038
8.1637 21.262
8.1789 21.653
8.1940 21.812
8.2092 21.608
8.2244 21.423
8.2396 21.687
8.2547 21.395
8.2699 21.142
8.2851 21.515
8.3003 21.259
8.3154 21.571
8.3306 21.610
8.3458 21.233
8.3610 21.555
8.3761 21.492
8.3913 22.111
8.4065 21.444
8.4217 22.091
8.4368 21.471
8.4520 22.027
8.4672 21.863
8.4824 21.677
8.4975 21.897
8.5127 21.961
8.5279 21.709
8.5431 22.199
8.5582 22.354
8.5734 22.424
8.5886 22.024
8.6038 21.853
8.6189 22.161
8.6341 21.817
8.6493 21.920
8.6645 22.128
8.6796 22.162
8.6948 22.317
8.7100 22.106
8.7252 22.629
8.7403 22.247
8.7555 22.475
8.7707 22.370
8.7859 21.858
8.8010 22.421
8.8162 22.699
8.8314 22.367
8.8466 22.856
8.8617 22.387
8.8769 22.431
8.8921 22.568
8.9073 22.473
8.9224 22.550
8.9376 22.442
8.9528 22.375
8.9680 22.777
8.9831 22.948
8.9983 22.378
9.0135 22.700
9.0287 22.634
9.0438 22.578
9.0590 22.322
9.0742 22.847
9.0894 23.007
9.1045 23.241
9.1197 23.012
9.1349 22.636
9.1501 22.399
9.1652 22.494
9.1804 22.978
9.1956 22.638
9.2108 22.526
9.2259 23.009
9.2411 23.155
9.2563 23.189
9.2715 22.850
9.2866 22.805
9.3018 23.011
9.3170 22.958
9.3322 23.070
9.3473 22.932
9.3625 22.840
9.3777 23.245
9.3929 23.465
9.4080 23.231
9.4232 23.198
9.4384 22.875
9.4536 23.124
9.4687 23.190
9.4839 23.085
9.4991 22.950
9.5143 23.081
9.5294 23.274
9.5446 23.094
9.5598 23.009
9.5750 23.059
9.5901 23.073
9.6053 23.366
9.6205 23.456
9.6357 23.529
9.6508 23.301
9.6660 22.935
9.6812 23.027
9.6964 23.737
9.7115 24.120
9.7267 23.925
9.7419 24.089
9.7571 24.075
9.7722 23.756
9.7874 23.882
9.8026 24.051
9.8178 23.795
9.8329 23.547
9.8481 23.481
9.8633 23.442
9.8785 23.299
9.8936 23.277
9.9088 23.214
9.9240 23.046
9.9392 23.124
9.9543 22.978
9.9695 23.049
9.9847 23.187
9.9999 23.191
10.0150 23.237
10.0302 23.479
10.0454 23.564
10.0606 23.363
10.0757 23.249
10.0909 23.479
10.1061 23.679
10.1213 23.467
10.1364 23.393
10.1516 23.397
10.1668 23.423
10.1820 23.584
10.1971 23.372
10.2123 23.393
10.2275 23.134
10.2427 22.925
10.2578 23.078
10.2730 23.019
10.2882 22.841
10.3034 22.960
10.3185 23.037
10.3337 22.983
10.3489 22.706
10.3641 22.729
10.3792 22.802
10.3944 22.461
10.4096 22.505
10.4248 22.631
10.4399 22.689
10.4551 22.249
10.4703 22.424
10.4855 22.409
10.5006 22.692
10.5158 22.969
10.5310 22.407
10.5462 22.711
10.5613 23.019
10.5765 22.847
10.5917 22.641
10.6069 22.319
10.6220 22.373
10.6372 22.685
10.6524 22.690
10.6676 22.543
10.6827 22.532
10.6979 22.120
10.7131 22.242
10.7283 21.889
10.7434 22.243
10.7586 22.314
10.7738 22.071
10.7890 22.038
10.8041 22.124
10.8193 22.211
10.8345 22.296
10.8497 22.526
10.8648 22.231
10.8800 22.227
10.8952 22.263
10.9104 22.103
10.9255 21.884
10.9407 21.422
10.9559 21.484
10.9711 21.884
10.9862 21.943
11.0014 22.228
11.0166 22.218
11.0318 21.952
11.0469 21.514
11.0621 21.684
11.0773 22.011
11.0925 21.933
11.1076 21.898
11.1228 21.920
11.1380 21.802
11.1532 21.271
11.1683 22.003
11.1835 21.923
11.1987 21.650
11.2139 21.540
11.2290 22.024
11.2442 21.558
11.2594 21.423
11.2746 21.110
11.2897 20.915
11.3049 21.174
11.3201 21.533
11.3353 21.061
11.3504 21.382
11.3656 21.364
11.3808 21.288
11.3960 21.280
11.4111 21.034
11.4263 21.130
11.4415 21.444
11.4567 20.838
11.4718 20.801
11.4870 21.244
11.5022 21.248
11.5174 20.866
11.5325 20.864
11.5477 20.936
11.5629 20.924
11.5781 20.791
11.5932 20.771
11.6084 20.822
11.6236 20.748
11.6388 20.507
11.6539 20.673
11.6691 20.770
11.6843 20.422
11.6995 20.476
11.7146 20.660
11.7298 20.462
11.7450 20.791
11.7602 20.561
11.7753 20.218
11.7905 19.970
11.8057 20.122
11.8209 20.282
11.8360 19.901
11.8512 19.555
11.8664 20.048
11.8816 19.907
11.8967 19.777
11.9119 19.641
11.9271 19.453
11.9423 19.182
11.9574 19.213
11.9726 19.503
11.9878 19.427
12.0030 19.171
12.0181 18.902
12.0333 19.102
12.0485 19.069
12.0637 18.923
12.0788 18.948
12.0940 18.714
12.1092 18.838
12.1244 18.653
12.1395 18.469
12.1547 18.455
12.1699 18.601
12.1851 18.310
12.2002 18.130
12.2154 18.064
12.2306 17.966
12.2458 17.934
12.2609 18.063
12.2761 17.905
12.2913 17.900
12.3065 18.315
12.3216 17.720
12.3368 17.493
12.3520 17.461
12.3672 17.351
12.3823 17.241
12.3975 17.155
12.4127 17.079
12.4279 17.127
12.4430 16.921
12.4582 16.834
12.4734 16.706
12.4886 16.413
12.5037 16.301
12.5189 16.107
12.5341 16.504
12.5493 16.294
12.5644 15.992
12.5796 16.108
12.5948 16.191
12.6100 16.086
12.6251 16.077
12.6403 16.004
12.6555 15.824
12.6707 15.886
12.6858 16.172
12.7010 15.811
12.7162 15.504
12.7314 15.719
12.7465 15.785
12.7617 15.148
12.7769 15.178
12.7921 15.266
12.8072 15.085
12.8224 14.928
12.8376 15.113
12.8528 15.057
12.8679 14.940
12.8831 15.022
12.8983 14.892
12.9135 14.608
12.9286 14.424
12.9438 14.375
12.9590 14.335
12.9742 14.452
12.9893 14.431
13.0045 14.478
13.0197 14.412
13.0349 14.150
13.0500 14.084
13.0652 14.163
13.0804 14.074
13.0956 13.765
13.1107 13.762
13.1259 13.910
13.1411 13.994
13.1563 13.789
13.1714 13.467
13.1866 13.388
13.2018 13.458
13.2170 13.523
13.2321 13.455
13.2473 13.403
13.2625 13.287
13.2777 13.246
13.2928 13.165
13.3080 13.213
13.3232 13.212
13.3384 12.843
13.3535 12.724
13.3687 12.857
13.3839 13.076
13.3991 13.210
13.4142 13.213
13.4294 13.097
13.4446 12.879
13.4598 12.771
13.4749 12.712
13.4901 12.710
13.5053 12.815
13.5205 12.532
13.5356 12.328
13.5508 12.209
13.5660 12.267
13.5812 12.265
13.5963 12.544
13.6115 12.390
13.6267 11.962
13.6419 12.000
13.6570 12.068
13.6722 11.919
13.6874 12.036
13.7026 12.102
13.7177 12.108
13.7329 12.159
13.7481 12.065
13.7633 11.906
13.7784 12.063
13.7936 11.917
13.8088 12.079
13.8239 12.538
13.8391 12.408
13.8543 12.372
13.8695 12.419
13.8846 11.998
13.8998 12.065
13.9150 12.115
13.9302 12.117
13.9453 12.027
13.9605 11.888
13.9757 11.662
13.9909 11.663
14.0060 11.776
14.0212 11.510
14.0364 11.386
14.0516 11.613
14.0667 11.781
14.0819 11.540
14.0971 11.564
14.1123 11.947
14.1274 11.820
14.1426 11.665
14.1578 11.625
14.1730 11.815
14.1881 11.861
14.2033 11.904
14.2185 11.969
14.2337 11.894
14.2488 11.747
14.2640 12.153
14.2792 11.930
14.2944 11.915
14.3095 12.124
14.3247 12.285
14.3399 12.412
14.3551 12.548
14.3702 12.830
14.3854 12.959
14.4006 13.305
14.4158 13.275
14.4309 12.748
14.4461 12.913
14.4613 12.313
14.4765 12.186
14.4916 12.254
14.5068 11.916
14.5220 11.657
14.5372 11.474
14.5523 11.367
14.5675 11.222
14.5827 11.336
14.5979 10.817
14.6130 10.798
14.6282 10.806
14.6434 10.626
14.6586 10.646
14.6737 10.850
14.6889 10.728
14.7041 10.599
14.7193 10.415
14.7344 10.846
14.7496 10.544
14.7648 10.867
14.7800 10.883
14.7951 10.486
14.8103 10.802
14.8255 10.608
14.8407 10.644
14.8558 10.497
14.8710 10.443
14.8862 10.514
14.9014 10.708
14.9165 10.931
14.9317 10.563
14.9469 10.546
14.9621 10.450
14.9772 10.257
14.9924 10.422
15.0076 10.244
15.0228 10.236
15.0379 10.441
15.0531 10.542
15.0683 10.266
15.0835 10.029
15.0986 9.962
15.1138 10.208
15.1290 10.164
15.1442 10.448
15.1593 9.976
15.1745 10.399
15.1897 10.300
15.2049 10.305
15.2200 10.450
15.2352 10.215
15.2504 10.189
15.2656 10.267
15.2807 9.975
15.2959 10.466
15.3111 10.312
15.3263 10.363
15.3414 10.180
15.3566 10.348
15.3718 10.042
15.3870 10.137
15.4021 10.105
15.4173 9.997
15.4325 10.099
15.4477 10.511
15.4628 10.376
15.4780 10.209
15.4932 10.302
15.5084 10.047
15.5235 9.941
15.5387 9.962
15.5539 10.468
15.5691 10.162
15.5842 10.097
15.5994 10.109
15.6146 9.783
15.6298 10.338
15.6449 10.135
15.6601 9.543
15.6753 10.058
15.6905 10.047
15.7056 9.828
15.7208 10.105
15.7360 9.840
15.7512 9.569
15.7663 9.829
15.7815 10.010
15.7967 10.011
15.8119 9.840
15.8270 9.871
15.8422 9.915
15.8574 9.421
15.8726 9.274
15.8877 9.710
15.9029 9.749
15.9181 9.810
15.9333 9.494
15.9484 9.354
15.9636 9.539
15.9788 9.614
15.9940 9.750
16.0091 9.633
16.0243 9.701
16.0395 9.601
16.0547 9.555
16.0698 9.475
16.0850 9.547
16.1002 9.656
16.1154 9.643
16.1305 9.704
16.1457 9.494
16.1609 9.558
16.1761 9.807
16.1912 9.625
16.2064 9.775
16.2216 9.601
16.2368 9.727
16.2519 9.748
16.2671 9.548
16.2823 9.676
16.2975 9.972
16.3126 9.856
16.3278 9.703
16.3430 9.750
16.3582 9.848
16.3733 9.983
16.3885 10.067
16.4037 9.809
16.4189 9.949
16.4340 9.905
16.4492 9.843
16.4644 9.903
16.4796 9.731
16.4947 9.657
16.5099 9.526
16.5251 9.668
16.5403 9.815
16.5554 9.705
16.5706 9.574
16.5858 9.495
16.6010 9.641
16.6161 9.425
16.6313 9.598
16.6465 9.660
16.6617 9.755
16.6768 10.114
16.6920 10.013
16.7072 9.776
16.7224 9.816
16.7375 9.851
16.7527 10.143
16.7679 9.990
16.7831 9.839
16.7982 9.978
16.8134 9.944
16.8286 9.706
16.8438 9.688
16.8589 9.828
16.8741 9.805
16.8893 9.857
16.9045 9.922
16.9196 9.744
16.9348 9.627
16.9500 9.705
16.9652 9.661
16.9803 9.739
16.9955 9.886
17.0107 9.987
17.0259 10.066
17.0410 10.176
17.0562 10.309
17.0714 10.180
17.0866 10.129
17.1017 10.305
17.1169 10.504
17.1321 10.940
17.1473 11.339
17.1624 11.722
17.1776 12.422
17.1928 13.284
17.2080 14.159
17.2231 15.116
17.2383 16.380
17.2535 17.793
17.2687 18.576
17.2838 18.713
17.2990 17.914
17.3142 16.935
17.3294 16.700
17.3445 16.253
17.3597 15.989
17.3749 15.924
17.3901 15.448
17.4052 14.414
17.4204 13.277
17.4356 12.663
17.4508 12.153
17.4659 11.931
17.4811 11.871
17.4963 11.628
17.5115 11.357
17.5266 11.335
17.5418 11.224
17.5570 11.039
17.5722 10.993
17.5873 10.896
17.6025 11.193
17.6177 11.520
17.6329 11.461
17.6480 11.343
17.6632 11.562
17.6784 11.695
17.6936 11.728
17.7087 11.589
17.7239 11.117
17.7391 11.091
17.7543 11.196
17.7694 10.829
17.7846 10.811
17.7998 10.968
17.8150 10.693
17.8301 10.497
17.8453 10.425
17.8605 10.376
17.8757 10.295
17.8908 10.361
17.9060 10.318
17.9212 10.016
17.9364 9.956
17.9515 9.988
17.9667 10.135
17.9819 10.158
17.9971 10.067
18.0122 10.069
18.0274 10.230
18.0426 10.201
18.0578 10.035
18.0729 9.904
18.0881 10.075
18.1033 10.302
18.1185 10.097
18.1336 9.796
18.1488 10.226
18.1640 10.089
18.1792 9.903
18.1943 9.774
18.2095 9.812
18.2247 9.779
18.2399 9.931
18.2550 9.869
18.2702 9.686
18.2854 9.635
18.3006 9.890
18.3157 9.675
18.3309 9.563
18.3461 9.815
18.3613 9.890
18.3764 9.923
18.3916 9.846
18.4068 9.759
18.4220 9.852
18.4371 9.738
18.4523 9.946
18.4675 10.068
18.4827 9.811
18.4978 9.796
18.5130 9.738
18.5282 9.769
18.5434 9.716
18.5585 9.647
18.5737 9.872
18.5889 9.834
18.6041 9.613
18.6192 9.714
18.6344 9.791
18.6496 9.808
18.6648 9.854
18.6799 9.730
18.6951 9.798
18.7103 9.795
18.7255 9.857
18.7406 9.694
18.7558 9.513
18.7710 9.858
18.7862 9.879
18.8013 9.583
18.8165 9.474
18.8317 9.571
18.8469 9.812
18.8620 10.035
18.8772 10.070
18.8924 9.915
18.9076 9.908
18.9227 9.981
18.9379 10.216
18.9531 10.067
18.9683 9.876
18.9834 9.794
18.9986 9.884
19.0138 10.016
19.0290 9.964
19.0441 10.008
19.0593 10.085
19.0745 10.147
19.0897 10.311
19.1048 10.465
19.1200 10.239
19.1352 10.171
19.1504 10.331
19.1655 10.554
19.1807 10.658
19.1959 10.601
19.2111 10.708
19.2262 10.753
19.2414 10.743
19.2566 10.835
19.2718 10.971
19.2869 11.110
19.3021 10.982
19.3173 11.022
19.3325 11.020
19.3476 10.853
19.3628 10.848
19.3780 10.901
19.3932 11.266
19.4083 11.412
19.4235 11.180
19.4387 11.020
19.4539 11.058
19.4690 11.110
19.4842 11.327
19.4994 11.460
19.5146 11.224
19.5297 11.300
19.5449 11.512
19.5601 11.533
19.5753 11.468
19.5904 11.667
19.6056 11.542
19.6208 11.492
19.6360 11.608
19.6511 11.653
19.6663 11.639
19.6815 11.749
19.6967 11.719
19.7118 11.812
19.7270 11.789
19.7422 11.803
19.7574 11.757
19.7725 11.629
19.7877 11.620
19.8029 11.807
19.8180 11.877
19.8332 11.979
19.8484 12.098
19.8636 12.347
19.8787 12.707
19.8939 12.611
19.9091 12.931
19.9243 13.452
19.9394 13.776
19.9546 14.108
19.9698 14.212
19.9850 14.188
20.0001 14.159
20.0153 14.163
20.0305 14.153
20.0457 13.896
20.0608 13.676
20.0760 13.526
20.0912 13.501
20.1064 13.612
20.1215 13.678
20.1367 13.320
20.1519 13.066
20.1671 12.888
20.1822 12.740
20.1974 12.955
20.2126 12.753
20.2278 12.697
20.2429 12.990
20.2581 12.542
20.2733 12.041
20.2885 11.874
20.3036 12.064
20.3188 12.048
20.3340 11.978
20.3492 12.137
20.3643 12.086
20.3795 11.915
20.3947 11.834
20.4099 12.039
20.4250 11.802
20.4402 12.024
20.4554 11.981
20.4706 12.008
20.4857 11.772
20.5009 11.606
20.5161 11.346
20.5313 11.412
20.5464 11.275
20.5616 11.089
20.5768 11.421
20.5920 11.284
20.6071 11.109
20.6223 10.806
20.6375 10.721
20.6527 10.640
20.6678 10.540
20.6830 10.408
20.6982 10.752
20.7134 10.741
20.7285 10.536
20.7437 10.724
20.7589 10.454
20.7741 10.163
20.7892 10.538
20.8044 10.189
20.8196 9.954
20.8348 10.093
20.8499 9.963
20.8651 10.248
20.8803 10.226
20.8955 10.174
20.9106 9.869
20.9258 10.314
20.9410 10.213
20.9562 10.178
20.9713 9.985
20.9865 9.894
21.0017 9.979
21.0169 9.608
21.0320 9.695
21.0472 10.158
21.0624 10.075
21.0776 9.964
21.0927 9.783
21.1079 9.851
21.1231 9.990
21.1383 9.639
21.1534 9.700
21.1686 9.756
21.1838 9.949
21.1990 9.663
21.2141 9.363
21.2293 9.983
21.2445 9.597
21.2597 9.727
21.2748 9.675
21.2900 9.361
21.3052 9.388
21.3204 9.414
21.3355 9.638
21.3507 9.553
21.3659 9.527
21.3811 9.448
21.3962 9.697
21.4114 9.473
21.4266 9.636
21.4418 9.439
21.4569 9.502
21.4721 9.259
21.4873 9.548
21.5025 9.694
21.5176 9.519
21.5328 9.193
21.5480 9.376
21.5632 9.310
21.5783 9.201
21.5935 8.969
21.6087 9.372
21.6239 9.343
21.6390 9.071
21.6542 9.271
21.6694 9.408
21.6846 9.056
21.6997 9.169
21.7149 9.327
21.7301 8.895
21.7453 8.981
21.7604 9.103
21.7756 8.965
21.7908 8.862
21.8060 8.780
21.8211 8.817
21.8363 8.900
21.8515 8.928
21.8667 9.000
21.8818 9.023
21.8970 8.905
21.9122 8.740
21.9274 8.702
21.9425 8.901
21.9577 8.904
21.9729 8.783
21.9881 8.841
22.0032 8.953
22.0184 8.835
22.0336 8.731
22.0488 8.723
22.0639 8.755
22.0791 8.737
22.0943 8.785
22.1095 8.739
22.1246 8.650
22.1398 8.552
22.1550 8.484
22.1702 8.502
22.1853 8.608
22.2005 8.677
22.2157 8.894
22.2309 8.832
22.2460 8.703
22.2612 8.663
22.2764 8.597
22.2916 8.530
22.3067 8.352
22.3219 8.468
22.3371 8.561
22.3523 8.522
22.3674 8.345
22.3826 8.762
22.3978 8.580
22.4130 8.321
22.4281 8.152
22.4433 8.299
22.4585 8.309
22.4737 8.423
22.4888 8.565
22.5040 8.451
22.5192 8.414
22.5344 8.384
22.5495 8.260
22.5647 8.240
22.5799 8.491
22.5951 8.400
22.6102 8.606
22.6254 8.308
22.6406 8.424
22.6558 8.623
22.6709 8.200
22.6861 8.401
22.7013 8.191
22.7165 8.204
22.7316 6.318
