'Id: "" Comment: "" Operator: "Lab Manager" Anode: "Mo" Scantype: "Still (Eiger2R_500K (1D mode))" TimePerStep: "300" X: "11.8" Y: "9.4" Z: "11.284" 
7.2532 18.548
7.2684 18.782
7.2836 18.746
7.2987 18.446
7.3139 18.932
7.3291 18.926
7.3443 19.284
7.3594 19.267
7.3746 19.297
7.3898 19.382
7.4050 19.284
7.4201 19.233
7.4353 19.369
7.4505 19.697
7.4657 19.154
7.4808 19.698
7.4960 19.351
7.5112 19.947
7.5264 19.961
7.5415 19.441
7.5567 19.795
7.5719 19.810
7.5871 19.971
7.6022 20.507
7.6174 20.256
7.6326 20.139
7.6478 20.170
7.6629 20.399
7.6781 20.206
7.6933 20.284
7.7085 20.198
7.7236 20.399
7.7388 20.707
7.7540 19.941
7.7692 19.841
7.7843 20.326
7.7995 20.653
7.8147 20.844
7.8299 20.781
7.8450 20.609
7.8602 20.708
7.8754 21.063
7.8905 20.774
7.9057 20.810
7.9209 21.015
7.9361 21.033
7.9512 21.072
7.9664 21.129
7.9816 21.211
7.9968 21.233
8.0119 21.065
8.0271 20.917
8.0423 21.246
8.0575 21.662
8.0726 21.600
8.0878 21.329
8.1030 21.466
8.1182 21.543
8.1333 21.047
8.1485 21.209
8.1637 21.379
8.1789 21.257
8.1940 21.517
8.2092 21.809
8.2244 21.280
8.2396 21.411
8.2547 21.440
8.2699 21.653
8.2851 21.482
8.3003 21.739
8.3154 21.897
8.3306 22.382
8.3458 21.924
8.3610 21.663
8.3761 22.132
8.3913 22.223
8.4065 21.980
8.4217 21.776
8.4368 22.350
8.4520 21.820
8.4672 21.602
8.4824 21.429
8.4975 22.141
8.5127 22.546
8.5279 22.171
8.5431 21.792
8.5582 22.116
8.5734 22.230
8.5886 21.809
8.6038 22.213
8.6189 22.765
8.6341 22.457
8.6493 22.439
8.6645 22.564
8.6796 22.495
8.6948 22.942
8.7100 23.074
8.7252 22.877
8.7403 23.051
8.7555 22.614
8.7707 22.326
8.7859 22.584
8.8010 22.814
8.8162 22.406
8.8314 22.790
8.8466 22.531
8.8617 22.862
8.8769 22.429
8.8921 22.613
8.9073 22.672
8.9224 22.532
8.9376 22.899
8.9528 22.942
8.9680 22.583
8.9831 22.538
8.9983 22.742
9.0135 22.419
9.0287 22.185
9.0438 22.712
9.0590 22.927
9.0742 22.902
9.0894 23.032
9.1045 22.806
9.1197 22.846
9.1349 22.921
9.1501 23.048
9.1652 22.619
9.1804 23.043
9.1956 23.157
9.2108 23.099
9.2259 23.253
9.2411 22.956
9.2563 23.220
9.2715 22.962
9.2866 23.160
9.3018 23.312
9.3170 23.464
9.3322 23.093
9.3473 22.794
9.3625 22.905
9.3777 23.318
9.3929 23.213
9.4080 23.181
9.4232 23.305
9.4384 23.501
9.4536 23.236
9.4687 23.132
9.4839 23.335
9.4991 23.344
9.5143 23.097
9.5294 23.207
9.5446 23.079
9.5598 23.243
9.5750 23.404
9.5901 23.603
9.6053 23.823
9.6205 23.586
9.6357 23.210
9.6508 23.589
9.6660 23.637
9.6812 23.622
9.6964 23.645
9.7115 23.861
9.7267 24.402
9.7419 24.133
9.7571 23.786
9.7722 23.906
9.7874 23.918
9.8026 23.740
9.8178 23.771
9.8329 23.623
9.8481 23.804
9.8633 23.943
9.8785 23.610
9.8936 23.223
9.9088 23.211
9.9240 23.842
9.9392 24.080
9.9543 23.768
9.9695 23.219
9.9847 22.911
9.9999 23.223
10.0150 23.430
10.0302 23.262
10.0454 23.283
10.0606 23.335
10.0757 23.412
10.0909 23.064
10.1061 23.044
10.1213 23.336
10.1364 23.701
10.1516 23.845
10.1668 23.298
10.1820 23.157
10.1971 23.414
10.2123 23.573
10.2275 23.534
10.2427 23.736
10.2578 23.832
10.2730 23.770
10.2882 23.541
10.3034 23.203
10.3185 23.018
10.3337 23.306
10.3489 23.118
10.3641 22.971
10.3792 23.046
10.3944 23.183
10.4096 23.017
10.4248 23.075
10.4399 22.506
10.4551 22.586
10.4703 22.390
10.4855 22.414
10.5006 22.900
10.5158 22.911
10.5310 22.719
10.5462 22.812
10.5613 22.953
10.5765 22.835
10.5917 23.045
10.6069 22.743
10.6220 22.552
10.6372 22.516
10.6524 22.654
10.6676 22.777
10.6827 22.715
10.6979 22.492
10.7131 22.485
10.7283 22.429
10.7434 22.160
10.7586 22.434
10.7738 22.333
10.7890 22.539
10.8041 22.562
10.8193 22.307
10.8345 22.508
10.8497 22.154
10.8648 22.419
10.8800 22.465
10.8952 22.294
10.9104 22.156
10.9255 21.775
10.9407 21.986
10.9559 22.289
10.9711 22.085
10.9862 22.257
11.0014 22.018
11.0166 21.865
11.0318 22.467
11.0469 22.082
11.0621 21.734
11.0773 22.097
11.0925 22.080
11.1076 22.137
11.1228 21.831
11.1380 21.750
11.1532 21.648
11.1683 21.887
11.1835 21.853
11.1987 21.770
11.2139 22.001
11.2290 22.053
11.2442 21.852
11.2594 21.981
11.2746 21.518
11.2897 21.673
11.3049 21.985
11.3201 21.729
11.3353 21.791
11.3504 21.228
11.3656 21.589
11.3808 21.661
11.3960 21.366
11.4111 21.262
11.4263 21.453
11.4415 21.156
11.4567 21.352
11.4718 21.342
11.4870 21.115
11.5022 21.050
11.5174 21.206
11.5325 21.129
11.5477 20.999
11.5629 21.115
11.5781 21.192
11.5932 21.007
11.6084 20.972
11.6236 20.709
11.6388 20.740
11.6539 20.740
11.6691 20.780
11.6843 20.740
11.6995 20.517
11.7146 20.354
11.7298 20.686
11.7450 20.632
11.7602 20.349
11.7753 19.956
11.7905 20.253
11.8057 20.090
11.8209 20.087
11.8360 20.141
11.8512 20.167
11.8664 20.045
11.8816 19.885
11.8967 19.927
11.9119 19.722
11.9271 19.437
11.9423 19.376
11.9574 19.431
11.9726 19.179
11.9878 19.242
12.0030 19.318
12.0181 19.249
12.0333 19.149
12.0485 19.440
12.0637 19.083
12.0788 19.037
12.0940 19.137
12.1092 19.096
12.1244 18.769
12.1395 18.329
12.1547 18.437
12.1699 18.436
12.1851 18.387
12.2002 18.105
12.2154 18.173
12.2306 18.348
12.2458 18.264
12.2609 18.084
12.2761 18.172
12.2913 18.230
12.3065 17.974
12.3216 17.956
12.3368 17.623
12.3520 17.377
12.3672 17.223
12.3823 17.438
12.3975 17.790
12.4127 17.432
12.4279 17.462
12.4430 17.286
12.4582 17.284
12.4734 17.079
12.4886 16.917
12.5037 16.906
12.5189 16.935
12.5341 16.645
12.5493 16.623
12.5644 16.480
12.5796 16.418
12.5948 16.439
12.6100 16.370
12.6251 16.180
12.6403 16.032
12.6555 16.120
12.6707 15.920
12.6858 15.739
12.7010 15.751
12.7162 15.907
12.7314 15.738
12.7465 15.548
12.7617 15.503
12.7769 15.654
12.7921 15.420
12.8072 15.162
12.8224 15.253
12.8376 15.290
12.8528 15.080
12.8679 14.950
12.8831 15.024
12.8983 14.847
12.9135 14.446
12.9286 14.511
12.9438 14.555
12.9590 14.474
12.9742 14.705
12.9893 14.878
13.0045 14.577
13.0197 14.306
13.0349 14.326
13.0500 14.253
13.0652 14.256
13.0804 14.008
13.0956 13.959
13.1107 14.066
13.1259 13.966
13.1411 13.889
13.1563 13.820
13.1714 13.801
13.1866 13.790
13.2018 13.748
13.2170 13.410
13.2321 13.180
13.2473 13.472
13.2625 13.441
13.2777 13.084
13.2928 13.285
13.3080 13.353
13.3232 13.225
13.3384 13.339
13.3535 13.357
13.3687 13.249
13.3839 13.030
13.3991 13.015
13.4142 13.145
13.4294 12.993
13.4446 12.881
13.4598 12.677
13.4749 12.668
13.4901 12.701
13.5053 12.689
13.5205 12.716
13.5356 12.550
13.5508 12.434
13.5660 12.395
13.5812 12.524
13.5963 12.404
13.6115 12.306
13.6267 12.290
13.6419 12.272
13.6570 12.473
13.6722 12.592
13.6874 12.360
13.7026 12.165
13.7177 12.088
13.7329 12.201
13.7481 12.051
13.7633 11.937
13.7784 12.251
13.7936 12.087
13.8088 12.418
13.8239 12.355
13.8391 12.275
13.8543 12.288
13.8695 12.400
13.8846 12.197
13.8998 12.270
13.9150 12.179
13.9302 12.173
13.9453 12.141
13.9605 11.688
13.9757 11.880
13.9909 12.040
14.0060 11.985
14.0212 12.067
14.0364 11.909
14.0516 11.907
14.0667 12.042
14.0819 11.614
14.0971 11.528
14.1123 11.613
14.1274 11.671
14.1426 11.560
14.1578 11.620
14.1730 11.915
14.1881 11.678
14.2033 11.807
14.2185 11.763
14.2337 11.777
14.2488 11.730
14.2640 11.679
14.2792 12.028
14.2944 11.914
14.3095 12.089
14.3247 12.455
14.3399 12.600
14.3551 12.355
14.3702 12.438
14.3854 12.460
14.4006 12.234
14.4158 12.419
14.4309 12.190
14.4461 12.041
14.4613 12.321
14.4765 12.147
14.4916 11.680
14.5068 11.543
14.5220 11.845
14.5372 11.624
14.5523 11.467
14.5675 11.305
14.5827 11.195
14.5979 11.524
14.6130 11.062
14.6282 10.951
14.6434 10.908
14.6586 11.036
14.6737 11.269
14.6889 10.888
14.7041 10.873
14.7193 10.948
14.7344 11.139
14.7496 10.992
14.7648 10.845
14.7800 10.800
14.7951 10.653
14.8103 10.871
14.8255 10.702
14.8407 10.844
14.8558 10.276
14.8710 10.620
14.8862 10.892
14.9014 10.763
14.9165 11.087
14.9317 10.841
14.9469 10.308
14.9621 10.559
14.9772 10.600
14.9924 10.435
15.0076 10.840
15.0228 10.668
15.0379 10.614
15.0531 10.537
15.0683 10.382
15.0835 10.578
15.0986 10.670
15.1138 10.497
15.1290 10.520
15.1442 10.629
15.1593 10.712
15.1745 10.318
15.1897 10.588
15.2049 10.243
15.2200 10.734
15.2352 10.240
15.2504 10.042
15.2656 10.537
15.2807 10.153
15.2959 10.490
15.3111 10.194
15.3263 10.493
15.3414 10.383
15.3566 10.327
15.3718 10.285
15.3870 10.499
15.4021 10.724
15.4173 10.518
15.4325 10.733
15.4477 10.658
15.4628 10.370
15.4780 10.454
15.4932 10.390
15.5084 10.462
15.5235 10.160
15.5387 10.414
15.5539 10.360
15.5691 10.363
15.5842 10.253
15.5994 10.275
15.6146 10.391
15.6298 10.026
15.6449 10.246
15.6601 9.965
15.6753 9.933
15.6905 10.104
15.7056 10.046
15.7208 10.104
15.7360 10.097
15.7512 10.193
15.7663 9.827
15.7815 9.881
15.7967 9.829
15.8119 10.087
15.8270 9.774
15.8422 10.062
15.8574 10.279
15.8726 9.814
15.8877 9.717
15.9029 9.896
15.9181 9.875
15.9333 10.205
15.9484 10.313
15.9636 10.166
15.9788 9.837
15.9940 9.936
16.0091 9.760
16.0243 9.853
16.0395 9.843
16.0547 9.405
16.0698 9.718
16.0850 9.655
16.1002 9.824
16.1154 9.804
16.1305 9.603
16.1457 9.910
16.1609 9.811
16.1761 9.570
16.1912 9.671
16.2064 9.617
16.2216 9.982
16.2368 9.963
16.2519 9.859
16.2671 9.944
16.2823 9.857
16.2975 9.966
16.3126 9.863
16.3278 9.855
16.3430 9.792
16.3582 10.069
16.3733 10.306
16.3885 10.244
16.4037 10.150
16.4189 10.056
16.4340 9.894
16.4492 10.006
16.4644 9.780
16.4796 10.017
16.4947 10.110
16.5099 10.012
16.5251 9.810
16.5403 9.760
16.5554 9.669
16.5706 9.580
16.5858 9.913
16.6010 9.729
16.6161 9.691
16.6313 9.826
16.6465 9.556
16.6617 9.719
16.6768 9.966
16.6920 9.986
16.7072 10.262
16.7224 10.102
16.7375 9.963
16.7527 10.058
16.7679 10.033
16.7831 9.970
16.7982 10.102
16.8134 10.186
16.8286 10.038
16.8438 10.051
16.8589 10.097
16.8741 9.946
16.8893 9.881
16.9045 9.779
16.9196 9.722
16.9348 9.794
16.9500 10.030
16.9652 10.018
16.9803 9.982
16.9955 10.000
17.0107 10.076
17.0259 10.367
17.0410 10.445
17.0562 10.182
17.0714 10.158
17.0866 10.479
17.1017 10.766
17.1169 10.838
17.1321 11.024
17.1473 11.391
17.1624 11.861
17.1776 12.536
17.1928 13.394
17.2080 14.176
17.2231 15.233
17.2383 16.550
17.2535 17.562
17.2687 18.618
17.2838 18.680
17.2990 17.751
17.3142 17.250
17.3294 16.885
17.3445 16.334
17.3597 16.215
17.3749 16.007
17.3901 15.206
17.4052 14.112
17.4204 13.157
17.4356 12.587
17.4508 11.952
17.4659 11.583
17.4811 11.460
17.4963 11.541
17.5115 11.454
17.5266 11.189
17.5418 11.316
17.5570 11.237
17.5722 11.203
17.5873 11.240
17.6025 11.191
17.6177 11.191
17.6329 11.156
17.6480 11.057
17.6632 10.736
17.6784 10.578
17.6936 10.556
17.7087 10.605
17.7239 10.376
17.7391 10.250
17.7543 10.324
17.7694 10.339
17.7846 10.216
17.7998 10.103
17.8150 10.250
17.8301 10.122
17.8453 10.025
17.8605 10.017
17.8757 10.120
17.8908 10.037
17.9060 10.156
17.9212 10.384
17.9364 10.239
17.9515 10.064
17.9667 9.998
17.9819 9.922
17.9971 10.225
18.0122 10.390
18.0274 10.147
18.0426 10.210
18.0578 10.201
18.0729 10.232
18.0881 10.337
18.1033 10.037
18.1185 9.966
18.1336 10.259
18.1488 10.211
18.1640 9.884
18.1792 9.790
18.1943 9.801
18.2095 9.795
18.2247 10.067
18.2399 10.144
18.2550 10.129
18.2702 9.979
18.2854 9.868
18.3006 9.855
18.3157 9.813
18.3309 10.075
18.3461 10.013
18.3613 9.791
18.3764 9.762
18.3916 9.835
18.4068 9.842
18.4220 9.902
18.4371 9.857
18.4523 10.014
18.4675 10.083
18.4827 9.883
18.4978 9.704
18.5130 9.589
18.5282 9.570
18.5434 9.591
18.5585 9.632
18.5737 9.733
18.5889 9.657
18.6041 9.681
18.6192 9.869
18.6344 9.976
18.6496 9.916
18.6648 9.801
18.6799 9.655
18.6951 9.850
18.7103 9.767
18.7255 9.734
18.7406 9.759
18.7558 9.757
18.7710 9.682
18.7862 9.757
18.8013 9.677
18.8165 9.385
18.8317 9.570
18.8469 9.867
18.8620 9.949
18.8772 10.137
18.8924 10.009
18.9076 9.867
18.9227 9.964
18.9379 9.985
18.9531 10.084
18.9683 10.172
18.9834 10.083
18.9986 9.998
19.0138 9.959
19.0290 10.082
19.0441 10.175
19.0593 10.306
19.0745 10.225
19.0897 10.178
19.1048 10.264
19.1200 10.446
19.1352 10.716
19.1504 10.708
19.1655 10.542
19.1807 10.465
19.1959 10.554
19.2111 10.690
19.2262 10.872
19.2414 10.760
19.2566 10.678
19.2718 10.685
19.2869 10.676
19.3021 10.812
19.3173 10.882
19.3325 10.939
19.3476 11.141
19.3628 11.128
19.3780 11.013
19.3932 11.033
19.4083 11.067
19.4235 11.223
19.4387 11.209
19.4539 11.074
19.4690 11.113
19.4842 11.200
19.4994 11.493
19.5146 11.930
19.5297 11.741
19.5449 11.628
19.5601 11.660
19.5753 11.581
19.5904 11.548
19.6056 11.777
19.6208 11.989
19.6360 11.811
19.6511 11.817
19.6663 11.733
19.6815 11.557
19.6967 12.018
19.7118 12.163
19.7270 11.892
19.7422 11.841
19.7574 11.763
19.7725 11.805
19.7877 11.950
19.8029 12.144
19.8180 12.203
19.8332 11.957
19.8484 11.977
19.8636 12.383
19.8787 12.566
19.8939 12.747
19.9091 13.063
19.9243 13.669
19.9394 14.063
19.9546 14.041
19.9698 14.185
19.9850 14.249
20.0001 14.421
20.0153 14.215
20.0305 13.762
20.0457 13.696
20.0608 13.830
20.0760 13.738
20.0912 13.879
20.1064 14.064
20.1215 13.757
20.1367 13.422
20.1519 13.038
20.1671 12.694
20.1822 12.879
20.1974 12.964
20.2126 12.625
20.2278 12.479
20.2429 12.532
20.2581 12.415
20.2733 12.053
20.2885 11.906
20.3036 11.732
20.3188 11.742
20.3340 11.701
20.3492 11.787
20.3643 11.551
20.3795 11.478
20.3947 11.234
20.4099 11.035
20.4250 10.913
20.4402 10.773
20.4554 10.708
20.4706 10.681
20.4857 10.931
20.5009 10.640
20.5161 10.547
20.5313 10.565
20.5464 10.638
20.5616 10.597
20.5768 10.699
20.5920 10.631
20.6071 10.465
20.6223 10.654
20.6375 10.584
20.6527 10.773
20.6678 10.607
20.6830 10.662
20.6982 10.522
20.7134 10.353
20.7285 10.678
20.7437 10.609
20.7589 10.408
20.7741 10.204
20.7892 10.541
20.8044 10.314
20.8196 10.635
20.8348 10.256
20.8499 10.198
20.8651 10.448
20.8803 10.152
20.8955 10.155
20.9106 10.093
20.9258 10.083
20.9410 10.082
20.9562 10.399
20.9713 9.823
20.9865 10.215
21.0017 10.019
21.0169 10.490
21.0320 10.226
21.0472 10.085
21.0624 10.172
21.0776 10.147
21.0927 9.819
21.1079 9.655
21.1231 10.011
21.1383 9.882
21.1534 9.676
21.1686 9.869
21.1838 9.910
21.1990 9.661
21.2141 10.075
21.2293 9.496
21.2445 9.859
21.2597 9.708
21.2748 9.677
21.2900 9.810
21.3052 9.853
21.3204 9.690
21.3355 9.650
21.3507 9.489
21.3659 9.877
21.3811 9.594
21.3962 9.706
21.4114 9.481
21.4266 9.355
21.4418 9.412
21.4569 9.312
21.4721 9.478
21.4873 9.510
21.5025 9.255
21.5176 9.205
21.5328 9.288
21.5480 9.510
21.5632 9.359
21.5783 9.055
21.5935 9.401
21.6087 9.212
21.6239 9.252
21.6390 9.238
21.6542 9.012
21.6694 8.894
21.6846 9.121
21.6997 9.084
21.7149 9.143
21.7301 9.344
21.7453 9.067
21.7604 9.104
21.7756 9.301
21.7908 8.946
21.8060 8.822
21.8211 9.049
21.8363 9.155
21.8515 8.974
21.8667 9.000
21.8818 9.089
21.8970 9.058
21.9122 9.129
21.9274 8.903
21.9425 8.858
21.9577 8.920
21.9729 9.059
21.9881 9.046
22.0032 8.915
22.0184 8.860
22.0336 8.911
22.0488 9.092
22.0639 8.931
22.0791 8.846
22.0943 8.810
22.1095 8.735
22.1246 8.856
22.1398 8.871
22.1550 8.800
22.1702 8.741
22.1853 8.616
22.2005 8.649
22.2157 8.588
22.2309 8.686
22.2460 9.033
22.2612 8.794
22.2764 8.500
22.2916 8.746
22.3067 8.709
22.3219 8.704
22.3371 8.589
22.3523 8.675
22.3674 8.624
22.3826 8.691
22.3978 8.875
22.4130 8.618
22.4281 8.513
22.4433 8.658
22.4585 8.394
22.4737 8.525
22.4888 8.454
22.5040 8.331
22.5192 8.636
22.5344 8.417
22.5495 8.837
22.5647 8.412
22.5799 8.345
22.5951 8.421
22.6102 8.358
22.6254 8.462
22.6406 8.562
22.6558 8.636
22.6709 8.260
22.6861 8.636
22.7013 8.196
22.7165 8.062
22.7316 6.389
