'Id: "" Comment: "" Operator: "Lab Manager" Anode: "Mo" Scantype: "Still (Eiger2R_500K (1D mode))" TimePerStep: "300" X: "11.8" Y: "9.4" Z: "11.284" 
7.2532 18.931
7.2684 18.854
7.2836 19.167
7.2987 18.802
7.3139 18.846
7.3291 19.043
7.3443 18.805
7.3594 19.049
7.3746 18.922
7.3898 19.081
7.4050 19.100
7.4201 19.460
7.4353 19.535
7.4505 19.365
7.4657 19.422
7.4808 19.692
7.4960 19.586
7.5112 19.832
7.5264 19.626
7.5415 19.620
7.5567 19.651
7.5719 19.967
7.5871 20.070
7.6022 19.985
7.6174 20.269
7.6326 20.058
7.6478 19.933
7.6629 19.839
7.6781 19.920
7.6933 19.866
7.7085 20.235
7.7236 20.310
7.7388 20.418
7.7540 20.444
7.7692 20.300
7.7843 20.393
7.7995 20.546
7.8147 20.476
7.8299 20.423
7.8450 20.427
7.8602 20.508
7.8754 20.418
7.8905 20.589
7.9057 20.724
7.9209 20.804
7.9361 20.739
7.9512 20.591
7.9664 20.565
7.9816 20.872
7.9968 20.917
8.0119 20.713
8.0271 20.819
8.0423 20.777
8.0575 21.115
8.0726 21.315
8.0878 21.272
8.1030 21.157
8.1182 21.509
8.1333 21.339
8.1485 21.641
8.1637 21.762
8.1789 21.327
8.1940 21.396
8.2092 21.099
8.2244 21.437
8.2396 21.410
8.2547 21.400
8.2699 21.948
8.2851 21.262
8.3003 21.184
8.3154 21.553
8.3306 22.182
8.3458 21.236
8.3610 21.815
8.3761 21.999
8.3913 21.624
8.4065 21.952
8.4217 21.975
8.4368 21.795
8.4520 22.063
8.4672 21.569
8.4824 21.449
8.4975 21.689
8.5127 21.789
8.5279 21.866
8.5431 21.752
8.5582 22.169
8.5734 21.754
8.5886 22.220
8.6038 22.312
8.6189 22.336
8.6341 22.042
8.6493 21.906
8.6645 22.464
8.6796 22.033
8.6948 22.255
8.7100 22.066
8.7252 22.369
8.7403 22.056
8.7555 22.576
8.7707 22.489
8.7859 22.471
8.8010 22.080
8.8162 22.763
8.8314 22.469
8.8466 22.402
8.8617 22.347
8.8769 22.236
8.8921 22.533
8.9073 22.110
8.9224 22.219
8.9376 22.510
8.9528 22.560
8.9680 22.651
8.9831 22.684
8.9983 22.688
9.0135 22.360
9.0287 22.349
9.0438 22.289
9.0590 22.547
9.0742 22.876
9.0894 22.755
9.1045 22.779
9.1197 22.855
9.1349 23.065
9.1501 22.780
9.1652 22.666
9.1804 22.802
9.1956 22.979
9.2108 22.630
9.2259 22.522
9.2411 22.475
9.2563 22.532
9.2715 22.492
9.2866 22.775
9.3018 22.747
9.3170 22.823
9.3322 22.954
9.3473 23.022
9.3625 23.101
9.3777 22.881
9.3929 22.776
9.4080 22.846
9.4232 22.490
9.4384 22.815
9.4536 22.901
9.4687 22.865
9.4839 23.288
9.4991 23.224
9.5143 22.845
9.5294 22.956
9.5446 23.173
9.5598 23.138
9.5750 23.080
9.5901 23.003
9.6053 23.357
9.6205 23.634
9.6357 23.637
9.6508 23.260
9.6660 23.463
9.6812 23.753
9.6964 23.675
9.7115 23.868
9.7267 24.241
9.7419 24.185
9.7571 23.938
9.7722 23.927
9.7874 23.848
9.8026 23.558
9.8178 23.349
9.8329 23.394
9.8481 23.403
9.8633 23.399
9.8785 23.152
9.8936 22.952
9.9088 23.482
9.9240 23.347
9.9392 23.297
9.9543 23.513
9.9695 23.088
9.9847 22.977
9.9999 23.185
10.0150 23.135
10.0302 23.122
10.0454 23.227
10.0606 22.977
10.0757 23.192
10.0909 23.067
10.1061 23.080
10.1213 23.418
10.1364 23.665
10.1516 23.316
10.1668 23.051
10.1820 23.290
10.1971 23.153
10.2123 22.818
10.2275 22.644
10.2427 22.708
10.2578 22.859
10.2730 22.788
10.2882 22.607
10.3034 22.405
10.3185 22.601
10.3337 22.607
10.3489 22.621
10.3641 22.794
10.3792 22.610
10.3944 22.717
10.4096 22.599
10.4248 22.622
10.4399 22.357
10.4551 22.744
10.4703 22.989
10.4855 22.672
10.5006 22.763
10.5158 22.770
10.5310 22.654
10.5462 22.523
10.5613 22.659
10.5765 22.553
10.5917 22.297
10.6069 22.383
10.6220 22.322
10.6372 22.202
10.6524 22.298
10.6676 22.577
10.6827 22.582
10.6979 22.354
10.7131 22.477
10.7283 22.503
10.7434 22.719
10.7586 22.400
10.7738 22.046
10.7890 21.930
10.8041 22.011
10.8193 21.743
10.8345 21.771
10.8497 21.966
10.8648 21.983
10.8800 22.141
10.8952 22.006
10.9104 22.010
10.9255 21.556
10.9407 21.754
10.9559 22.119
10.9711 22.184
10.9862 22.019
11.0014 22.242
11.0166 22.194
11.0318 22.163
11.0469 21.972
11.0621 21.527
11.0773 21.555
11.0925 21.656
11.1076 22.031
11.1228 21.690
11.1380 21.464
11.1532 21.612
11.1683 21.506
11.1835 21.626
11.1987 21.484
11.2139 21.634
11.2290 21.493
11.2442 21.555
11.2594 21.576
11.2746 21.270
11.2897 21.504
11.3049 21.493
11.3201 21.584
11.3353 21.621
11.3504 21.621
11.3656 21.671
11.3808 21.539
11.3960 21.404
11.4111 21.093
11.4263 21.240
11.4415 20.888
11.4567 20.989
11.4718 21.094
11.4870 20.781
11.5022 20.736
11.5174 20.961
11.5325 21.295
11.5477 20.804
11.5629 20.617
11.5781 20.729
11.5932 20.660
11.6084 20.389
11.6236 20.718
11.6388 20.609
11.6539 20.469
11.6691 20.342
11.6843 20.844
11.6995 20.588
11.7146 20.439
11.7298 20.311
11.7450 19.949
11.7602 20.127
11.7753 20.073
11.7905 20.533
11.8057 19.901
11.8209 19.434
11.8360 19.741
11.8512 19.759
11.8664 19.812
11.8816 19.802
11.8967 19.661
11.9119 19.115
11.9271 19.241
11.9423 19.409
11.9574 19.239
11.9726 19.085
11.9878 19.078
12.0030 19.056
12.0181 19.153
12.0333 18.874
12.0485 18.813
12.0637 19.002
12.0788 18.865
12.0940 18.667
12.1092 18.768
12.1244 18.555
12.1395 18.442
12.1547 18.422
12.1699 18.320
12.1851 18.337
12.2002 18.281
12.2154 18.090
12.2306 17.914
12.2458 17.620
12.2609 17.580
12.2761 17.646
12.2913 17.751
12.3065 17.728
12.3216 17.295
12.3368 17.410
12.3520 17.526
12.3672 17.145
12.3823 16.869
12.3975 17.240
12.4127 17.435
12.4279 17.220
12.4430 17.068
12.4582 16.940
12.4734 16.808
12.4886 16.617
12.5037 16.651
12.5189 16.721
12.5341 16.585
12.5493 16.141
12.5644 16.189
12.5796 16.302
12.5948 16.068
12.6100 15.870
12.6251 15.716
12.6403 15.710
12.6555 15.763
12.6707 15.771
12.6858 15.562
12.7010 15.640
12.7162 15.768
12.7314 15.508
12.7465 15.232
12.7617 15.247
12.7769 15.043
12.7921 15.053
12.8072 15.334
12.8224 15.182
12.8376 14.818
12.8528 14.774
12.8679 14.652
12.8831 14.612
12.8983 14.442
12.9135 14.186
12.9286 14.224
12.9438 14.343
12.9590 14.434
12.9742 14.423
12.9893 14.272
13.0045 14.259
13.0197 14.249
13.0349 14.034
13.0500 14.136
13.0652 14.192
13.0804 13.792
13.0956 13.879
13.1107 13.965
13.1259 13.718
13.1411 13.624
13.1563 13.523
13.1714 13.547
13.1866 13.568
13.2018 13.475
13.2170 13.445
13.2321 13.486
13.2473 13.460
13.2625 13.286
13.2777 13.344
13.2928 13.228
13.3080 13.189
13.3232 13.343
13.3384 13.042
13.3535 13.003
13.3687 13.128
13.3839 13.056
13.3991 12.862
13.4142 13.191
13.4294 13.173
13.4446 12.860
13.4598 12.757
13.4749 12.588
13.4901 12.497
13.5053 12.614
13.5205 12.515
13.5356 12.249
13.5508 12.316
13.5660 12.159
13.5812 12.194
13.5963 12.355
13.6115 12.214
13.6267 12.148
13.6419 12.139
13.6570 11.991
13.6722 12.119
13.6874 12.270
13.7026 12.208
13.7177 12.048
13.7329 12.015
13.7481 12.064
13.7633 12.056
13.7784 12.130
13.7936 12.336
13.8088 12.206
13.8239 12.064
13.8391 12.326
13.8543 12.392
13.8695 12.550
13.8846 12.466
13.8998 12.347
13.9150 12.250
13.9302 12.110
13.9453 11.881
13.9605 11.905
13.9757 11.817
13.9909 11.632
14.0060 11.614
14.0212 11.690
14.0364 11.801
14.0516 11.633
14.0667 11.478
14.0819 11.370
14.0971 11.268
14.1123 11.560
14.1274 11.617
14.1426 11.430
14.1578 11.682
14.1730 11.464
14.1881 11.547
14.2033 11.681
14.2185 11.696
14.2337 11.852
14.2488 11.529
14.2640 11.664
14.2792 11.577
14.2944 12.072
14.3095 12.015
14.3247 12.223
14.3399 12.379
14.3551 12.233
14.3702 12.709
14.3854 12.924
14.4006 13.394
14.4158 13.038
14.4309 12.680
14.4461 12.500
14.4613 12.782
14.4765 12.416
14.4916 11.997
14.5068 12.040
14.5220 11.734
14.5372 11.943
14.5523 11.559
14.5675 11.547
14.5827 11.318
14.5979 10.844
14.6130 10.716
14.6282 10.676
14.6434 10.410
14.6586 10.835
14.6737 10.641
14.6889 10.456
14.7041 10.582
14.7193 10.170
14.7344 10.758
14.7496 10.546
14.7648 10.526
14.7800 10.453
14.7951 10.357
14.8103 10.171
14.8255 10.308
14.8407 10.410
14.8558 10.479
14.8710 10.432
14.8862 10.341
14.9014 10.306
14.9165 11.028
14.9317 10.833
14.9469 10.368
14.9621 10.507
14.9772 10.325
14.9924 10.582
15.0076 10.459
15.0228 10.342
15.0379 10.421
15.0531 10.510
15.0683 10.607
15.0835 10.414
15.0986 9.921
15.1138 10.141
15.1290 10.128
15.1442 10.358
15.1593 10.301
15.1745 10.288
15.1897 9.664
15.2049 9.954
15.2200 10.300
15.2352 9.990
15.2504 10.002
15.2656 9.963
15.2807 10.244
15.2959 9.986
15.3111 10.128
15.3263 10.195
15.3414 9.884
15.3566 10.007
15.3718 10.109
15.3870 10.174
15.4021 10.162
15.4173 10.104
15.4325 10.337
15.4477 10.343
15.4628 10.055
15.4780 10.095
15.4932 10.019
15.5084 9.886
15.5235 9.773
15.5387 10.103
15.5539 9.824
15.5691 10.069
15.5842 10.077
15.5994 9.721
15.6146 9.864
15.6298 9.738
15.6449 9.987
15.6601 9.748
15.6753 9.819
15.6905 9.698
15.7056 9.832
15.7208 9.959
15.7360 9.902
15.7512 9.969
15.7663 9.655
15.7815 9.675
15.7967 9.814
15.8119 9.709
15.8270 9.890
15.8422 9.603
15.8574 9.532
15.8726 9.507
15.8877 9.739
15.9029 9.426
15.9181 9.484
15.9333 9.685
15.9484 9.794
15.9636 9.634
15.9788 9.458
15.9940 9.627
16.0091 9.740
16.0243 9.608
16.0395 9.675
16.0547 9.603
16.0698 9.483
16.0850 9.452
16.1002 9.615
16.1154 9.532
16.1305 9.565
16.1457 9.317
16.1609 9.464
16.1761 9.493
16.1912 9.421
16.2064 9.575
16.2216 9.699
16.2368 9.638
16.2519 9.783
16.2671 9.639
16.2823 9.802
16.2975 9.854
16.3126 9.830
16.3278 9.568
16.3430 9.496
16.3582 9.724
16.3733 9.611
16.3885 10.005
16.4037 9.920
16.4189 9.829
16.4340 9.780
16.4492 9.763
16.4644 9.767
16.4796 9.533
16.4947 9.661
16.5099 9.769
16.5251 9.770
16.5403 9.659
16.5554 9.585
16.5706 9.556
16.5858 9.181
16.6010 9.341
16.6161 9.697
16.6313 9.569
16.6465 9.508
16.6617 9.846
16.6768 9.921
16.6920 9.965
16.7072 9.868
16.7224 9.956
16.7375 10.059
16.7527 9.954
16.7679 9.720
16.7831 9.615
16.7982 9.731
16.8134 9.809
16.8286 9.938
16.8438 9.774
16.8589 9.799
16.8741 9.913
16.8893 9.865
16.9045 9.968
16.9196 9.806
16.9348 9.791
16.9500 10.028
16.9652 9.931
16.9803 9.763
16.9955 9.947
17.0107 9.960
17.0259 9.799
17.0410 9.938
17.0562 9.963
17.0714 10.060
17.0866 10.353
17.1017 10.391
17.1169 10.440
17.1321 10.769
17.1473 11.319
17.1624 11.780
17.1776 12.252
17.1928 12.851
17.2080 13.920
17.2231 15.129
17.2383 16.128
17.2535 17.497
17.2687 18.675
17.2838 18.776
17.2990 17.916
17.3142 16.802
17.3294 16.108
17.3445 15.984
17.3597 16.001
17.3749 15.851
17.3901 15.451
17.4052 14.676
17.4204 13.542
17.4356 12.815
17.4508 12.362
17.4659 11.750
17.4811 11.626
17.4963 11.512
17.5115 11.298
17.5266 11.271
17.5418 11.166
17.5570 10.945
17.5722 10.978
17.5873 11.196
17.6025 11.135
17.6177 11.116
17.6329 11.193
17.6480 11.231
17.6632 11.312
17.6784 11.564
17.6936 11.674
17.7087 11.460
17.7239 11.295
17.7391 11.154
17.7543 10.945
17.7694 10.935
17.7846 11.028
17.7998 10.991
17.8150 10.792
17.8301 10.485
17.8453 10.197
17.8605 10.224
17.8757 10.236
17.8908 10.197
17.9060 10.267
17.9212 10.408
17.9364 10.262
17.9515 10.254
17.9667 10.131
17.9819 10.101
17.9971 9.967
18.0122 9.925
18.0274 10.068
18.0426 10.232
18.0578 10.178
18.0729 10.233
18.0881 10.189
18.1033 9.730
18.1185 9.971
18.1336 10.057
18.1488 10.026
18.1640 9.967
18.1792 9.855
18.1943 9.741
18.2095 9.998
18.2247 10.043
18.2399 9.969
18.2550 9.995
18.2702 9.939
18.2854 9.876
18.3006 10.017
18.3157 9.977
18.3309 9.771
18.3461 9.692
18.3613 9.663
18.3764 9.775
18.3916 9.847
18.4068 9.917
18.4220 9.950
18.4371 9.958
18.4523 10.081
18.4675 9.744
18.4827 9.616
18.4978 9.735
18.5130 9.621
18.5282 9.608
18.5434 9.793
18.5585 9.770
18.5737 9.731
18.5889 10.014
18.6041 9.792
18.6192 9.597
18.6344 9.679
18.6496 9.528
18.6648 9.532
18.6799 9.630
18.6951 9.632
18.7103 9.733
18.7255 9.854
18.7406 9.862
18.7558 9.694
18.7710 9.806
18.7862 10.135
18.8013 9.843
18.8165 9.638
18.8317 9.781
18.8469 9.805
18.8620 9.778
18.8772 9.686
18.8924 9.853
18.9076 9.836
18.9227 9.744
18.9379 9.951
18.9531 10.026
18.9683 9.899
18.9834 10.009
18.9986 10.064
19.0138 9.867
19.0290 10.065
19.0441 10.027
19.0593 9.986
19.0745 10.280
19.0897 10.644
19.1048 10.661
19.1200 10.330
19.1352 10.335
19.1504 10.519
19.1655 10.431
19.1807 10.566
19.1959 10.893
19.2111 10.781
19.2262 10.516
19.2414 10.591
19.2566 10.801
19.2718 10.971
19.2869 10.993
19.3021 11.026
19.3173 10.884
19.3325 10.754
19.3476 10.863
19.3628 10.908
19.3780 10.947
19.3932 11.098
19.4083 11.401
19.4235 11.199
19.4387 10.946
19.4539 11.128
19.4690 11.274
19.4842 11.243
19.4994 11.197
19.5146 11.354
19.5297 11.423
19.5449 11.374
19.5601 11.626
19.5753 11.534
19.5904 11.432
19.6056 11.481
19.6208 11.549
19.6360 11.782
19.6511 11.891
19.6663 11.877
19.6815 11.730
19.6967 11.692
19.7118 11.539
19.7270 11.397
19.7422 11.594
19.7574 11.615
19.7725 11.622
19.7877 11.759
19.8029 11.706
19.8180 11.857
19.8332 12.258
19.8484 12.357
19.8636 12.412
19.8787 12.650
19.8939 12.902
19.9091 13.055
19.9243 13.304
19.9394 13.537
19.9546 13.884
19.9698 14.204
19.9850 14.265
20.0001 14.277
20.0153 14.147
20.0305 13.899
20.0457 13.993
20.0608 13.935
20.0760 13.539
20.0912 13.541
20.1064 13.542
20.1215 13.387
20.1367 13.368
20.1519 13.327
20.1671 13.080
20.1822 12.960
20.1974 12.830
20.2126 12.599
20.2278 12.675
20.2429 12.538
20.2581 12.285
20.2733 12.171
20.2885 12.161
20.3036 12.041
20.3188 11.862
20.3340 11.900
20.3492 11.746
20.3643 11.521
20.3795 11.763
20.3947 11.772
20.4099 11.695
20.4250 11.878
20.4402 11.693
20.4554 11.703
20.4706 11.851
20.4857 11.935
20.5009 11.751
20.5161 11.514
20.5313 11.498
20.5464 11.508
20.5616 11.360
20.5768 11.468
20.5920 11.324
20.6071 11.067
20.6223 11.049
20.6375 10.780
20.6527 10.648
20.6678 10.585
20.6830 10.579
20.6982 10.646
20.7134 10.759
20.7285 10.320
20.7437 10.373
20.7589 10.221
20.7741 10.257
20.7892 10.331
20.8044 10.708
20.8196 10.564
20.8348 10.336
20.8499 10.206
20.8651 10.147
20.8803 10.389
20.8955 10.508
20.9106 10.218
20.9258 10.313
20.9410 10.189
20.9562 10.185
20.9713 10.112
20.9865 9.938
21.0017 9.848
21.0169 9.825
21.0320 10.012
21.0472 9.880
21.0624 10.033
21.0776 9.824
21.0927 9.965
21.1079 9.899
21.1231 9.733
21.1383 9.821
21.1534 10.042
21.1686 9.640
21.1838 9.607
21.1990 9.339
21.2141 9.805
21.2293 9.553
21.2445 9.764
21.2597 9.383
21.2748 9.484
21.2900 9.678
21.3052 9.592
21.3204 9.541
21.3355 9.790
21.3507 9.382
21.3659 9.588
21.3811 9.486
21.3962 9.593
21.4114 9.446
21.4266 9.599
21.4418 9.623
21.4569 9.136
21.4721 9.059
21.4873 9.503
21.5025 9.352
21.5176 9.562
21.5328 9.556
21.5480 9.482
21.5632 9.357
21.5783 9.205
21.5935 9.118
21.6087 9.397
21.6239 9.118
21.6390 9.161
21.6542 9.078
21.6694 9.014
21.6846 9.184
21.6997 9.189
21.7149 9.293
21.7301 9.297
21.7453 9.152
21.7604 9.132
21.7756 9.023
21.7908 8.932
21.8060 8.886
21.8211 9.090
21.8363 9.094
21.8515 9.001
21.8667 8.921
21.8818 8.878
21.8970 8.992
21.9122 8.944
21.9274 8.757
21.9425 9.182
21.9577 9.077
21.9729 8.835
21.9881 8.803
22.0032 8.804
22.0184 8.764
22.0336 8.825
22.0488 8.947
22.0639 8.760
22.0791 8.746
22.0943 8.844
22.1095 8.850
22.1246 8.734
22.1398 8.591
22.1550 8.564
22.1702 8.473
22.1853 8.668
22.2005 8.554
22.2157 8.508
22.2309 8.911
22.2460 8.697
22.2612 8.551
22.2764 8.517
22.2916 8.418
22.3067 8.569
22.3219 8.539
22.3371 8.693
22.3523 8.412
22.3674 8.449
22.3826 8.461
22.3978 8.474
22.4130 8.706
22.4281 8.488
22.4433 8.410
22.4585 8.342
22.4737 8.345
22.4888 8.460
22.5040 8.452
22.5192 8.483
22.5344 8.376
22.5495 8.618
22.5647 8.205
22.5799 8.242
22.5951 8.320
22.6102 8.188
22.6254 8.274
22.6406 8.235
22.6558 8.268
22.6709 8.180
22.6861 8.279
22.7013 8.125
22.7165 8.010
22.7316 6.493
