'Id: "" Comment: "" Operator: "Lab Manager" Anode: "Mo" Scantype: "Still (Eiger2R_500K (1D mode))" TimePerStep: "300" X: "11.8" Y: "9.4" Z: "11.284" 
7.2532 18.633
7.2684 19.397
7.2836 18.818
7.2987 18.950
7.3139 18.692
7.3291 18.997
7.3443 19.429
7.3594 19.347
7.3746 18.790
7.3898 19.253
7.4050 19.111
7.4201 19.266
7.4353 19.149
7.4505 19.381
7.4657 19.736
7.4808 19.646
7.4960 19.306
7.5112 19.725
7.5264 19.880
7.5415 19.681
7.5567 19.830
7.5719 20.158
7.5871 20.123
7.6022 19.996
7.6174 19.774
7.6326 19.992
7.6478 20.035
7.6629 20.208
7.6781 20.572
7.6933 20.505
7.7085 20.197
7.7236 20.388
7.7388 20.458
7.7540 20.541
7.7692 20.552
7.7843 20.752
7.7995 20.702
7.8147 20.599
7.8299 20.766
7.8450 20.715
7.8602 20.794
7.8754 21.075
7.8905 21.076
7.9057 20.959
7.9209 21.042
7.9361 21.002
7.9512 20.824
7.9664 20.921
7.9816 21.146
7.9968 21.275
8.0119 21.541
8.0271 20.963
8.0423 21.339
8.0575 21.397
8.0726 21.129
8.0878 21.145
8.1030 21.016
8.1182 21.584
8.1333 21.395
8.1485 21.234
8.1637 21.429
8.1789 21.519
8.1940 20.792
8.2092 20.855
8.2244 21.221
8.2396 21.882
8.2547 21.811
8.2699 21.700
8.2851 21.422
8.3003 21.965
8.3154 22.129
8.3306 22.089
8.3458 21.886
8.3610 21.969
8.3761 21.791
8.3913 21.507
8.4065 21.981
8.4217 22.037
8.4368 21.927
8.4520 22.133
8.4672 21.901
8.4824 22.312
8.4975 22.739
8.5127 22.245
8.5279 22.845
8.5431 22.340
8.5582 22.598
8.5734 22.337
8.5886 22.216
8.6038 22.216
8.6189 22.493
8.6341 22.179
8.6493 22.049
8.6645 22.912
8.6796 22.505
8.6948 22.625
8.7100 23.127
8.7252 23.023
8.7403 22.880
8.7555 22.648
8.7707 22.282
8.7859 22.530
8.8010 22.886
8.8162 22.797
8.8314 22.228
8.8466 22.615
8.8617 22.969
8.8769 22.362
8.8921 22.761
8.9073 22.682
8.9224 22.638
8.9376 22.901
8.9528 22.942
8.9680 22.638
8.9831 22.592
8.9983 22.802
9.0135 23.157
9.0287 22.923
9.0438 22.988
9.0590 23.275
9.0742 22.773
9.0894 22.665
9.1045 23.008
9.1197 22.801
9.1349 22.922
9.1501 22.823
9.1652 23.099
9.1804 23.165
9.1956 23.315
9.2108 23.448
9.2259 23.029
9.2411 22.820
9.2563 23.081
9.2715 23.007
9.2866 22.906
9.3018 23.458
9.3170 23.353
9.3322 23.198
9.3473 23.095
9.3625 22.958
9.3777 23.094
9.3929 23.171
9.4080 23.077
9.4232 23.163
9.4384 23.240
9.4536 23.118
9.4687 23.303
9.4839 23.272
9.4991 23.156
9.5143 23.087
9.5294 23.052
9.5446 22.821
9.5598 23.009
9.5750 23.463
9.5901 23.668
9.6053 23.514
9.6205 23.204
9.6357 23.272
9.6508 23.513
9.6660 23.525
9.6812 23.516
9.6964 23.760
9.7115 23.993
9.7267 24.099
9.7419 24.128
9.7571 23.933
9.7722 23.667
9.7874 23.817
9.8026 23.765
9.8178 23.326
9.8329 23.045
9.8481 23.340
9.8633 23.581
9.8785 23.191
9.8936 23.020
9.9088 22.911
9.9240 22.940
9.9392 23.238
9.9543 23.447
9.9695 23.516
9.9847 23.414
9.9999 23.271
10.0150 23.520
10.0302 23.747
10.0454 23.516
10.0606 23.585
10.0757 23.635
10.0909 23.453
10.1061 23.265
10.1213 23.124
10.1364 23.074
10.1516 23.287
10.1668 23.308
10.1820 23.592
10.1971 23.645
10.2123 23.678
10.2275 23.738
10.2427 23.877
10.2578 23.669
10.2730 23.601
10.2882 23.577
10.3034 23.457
10.3185 23.471
10.3337 23.383
10.3489 23.047
10.3641 23.262
10.3792 23.029
10.3944 22.762
10.4096 22.870
10.4248 22.679
10.4399 22.645
10.4551 23.093
10.4703 23.613
10.4855 22.827
10.5006 22.647
10.5158 22.761
10.5310 22.759
10.5462 22.476
10.5613 22.463
10.5765 22.340
10.5917 22.792
10.6069 22.851
10.6220 22.782
10.6372 22.403
10.6524 22.089
10.6676 22.545
10.6827 22.824
10.6979 22.504
10.7131 22.478
10.7283 22.586
10.7434 22.226
10.7586 22.413
10.7738 22.139
10.7890 22.459
10.8041 22.557
10.8193 22.274
10.8345 22.507
10.8497 22.298
10.8648 22.215
10.8800 22.675
10.8952 22.892
10.9104 22.341
10.9255 22.060
10.9407 22.087
10.9559 22.033
10.9711 21.879
10.9862 21.987
11.0014 22.433
11.0166 22.202
11.0318 22.188
11.0469 22.181
11.0621 21.870
11.0773 22.088
11.0925 21.852
11.1076 21.911
11.1228 22.236
11.1380 21.981
11.1532 21.488
11.1683 21.736
11.1835 21.670
11.1987 21.964
11.2139 22.277
11.2290 22.424
11.2442 22.013
11.2594 21.919
11.2746 21.783
11.2897 21.738
11.3049 21.651
11.3201 21.850
11.3353 21.753
11.3504 21.582
11.3656 21.645
11.3808 21.392
11.3960 21.313
11.4111 21.277
11.4263 21.347
11.4415 21.417
11.4567 21.395
11.4718 21.414
11.4870 21.347
11.5022 21.350
11.5174 21.354
11.5325 21.361
11.5477 21.428
11.5629 20.975
11.5781 20.965
11.5932 21.094
11.6084 20.949
11.6236 20.707
11.6388 20.677
11.6539 20.957
11.6691 20.669
11.6843 20.601
11.6995 20.488
11.7146 20.422
11.7298 20.019
11.7450 20.079
11.7602 19.848
11.7753 20.371
11.7905 20.428
11.8057 20.254
11.8209 20.083
11.8360 20.104
11.8512 20.047
11.8664 20.123
11.8816 20.173
11.8967 20.113
11.9119 19.620
11.9271 19.485
11.9423 19.168
11.9574 19.295
11.9726 19.680
11.9878 19.828
12.0030 19.414
12.0181 19.275
12.0333 19.164
12.0485 19.154
12.0637 18.991
12.0788 18.724
12.0940 18.901
12.1092 18.936
12.1244 18.862
12.1395 18.640
12.1547 18.544
12.1699 18.213
12.1851 18.146
12.2002 18.051
12.2154 18.316
12.2306 18.258
12.2458 18.301
12.2609 18.166
12.2761 17.869
12.2913 18.151
12.3065 18.240
12.3216 17.795
12.3368 17.640
12.3520 17.430
12.3672 17.299
12.3823 17.383
12.3975 17.522
12.4127 17.544
12.4279 17.451
12.4430 17.427
12.4582 17.396
12.4734 17.305
12.4886 17.212
12.5037 16.957
12.5189 16.726
12.5341 16.571
12.5493 16.683
12.5644 16.729
12.5796 16.754
12.5948 16.650
12.6100 16.306
12.6251 16.042
12.6403 15.918
12.6555 16.068
12.6707 16.040
12.6858 15.850
12.7010 15.825
12.7162 15.569
12.7314 15.592
12.7465 15.660
12.7617 15.368
12.7769 15.268
12.7921 15.049
12.8072 15.037
12.8224 15.386
12.8376 15.454
12.8528 15.219
12.8679 14.954
12.8831 14.912
12.8983 14.832
12.9135 14.477
12.9286 14.511
12.9438 14.674
12.9590 14.663
12.9742 14.624
12.9893 14.528
13.0045 14.530
13.0197 14.328
13.0349 14.316
13.0500 14.257
13.0652 14.089
13.0804 14.237
13.0956 14.113
13.1107 13.946
13.1259 13.813
13.1411 13.659
13.1563 13.701
13.1714 13.779
13.1866 13.816
13.2018 13.572
13.2170 13.396
13.2321 13.512
13.2473 13.494
13.2625 13.455
13.2777 13.352
13.2928 13.163
13.3080 13.312
13.3232 13.285
13.3384 13.197
13.3535 13.352
13.3687 13.307
13.3839 13.380
13.3991 13.112
13.4142 12.708
13.4294 12.764
13.4446 12.936
13.4598 12.736
13.4749 12.576
13.4901 12.583
13.5053 12.530
13.5205 12.486
13.5356 12.366
13.5508 12.401
13.5660 12.470
13.5812 12.392
13.5963 12.456
13.6115 12.621
13.6267 12.433
13.6419 12.310
13.6570 12.234
13.6722 12.222
13.6874 12.248
13.7026 12.074
13.7177 12.056
13.7329 12.369
13.7481 12.341
13.7633 12.106
13.7784 12.146
13.7936 12.190
13.8088 12.422
13.8239 12.271
13.8391 12.116
13.8543 12.339
13.8695 12.138
13.8846 12.208
13.8998 12.153
13.9150 12.359
13.9302 12.128
13.9453 12.008
13.9605 11.591
13.9757 11.715
13.9909 11.883
14.0060 11.842
14.0212 11.817
14.0364 11.745
14.0516 11.551
14.0667 11.575
14.0819 11.494
14.0971 11.414
14.1123 11.481
14.1274 11.436
14.1426 11.452
14.1578 11.605
14.1730 11.773
14.1881 11.799
14.2033 11.717
14.2185 11.749
14.2337 12.058
14.2488 11.754
14.2640 11.716
14.2792 11.705
14.2944 11.965
14.3095 11.931
14.3247 12.075
14.3399 12.029
14.3551 12.278
14.3702 12.180
14.3854 12.475
14.4006 12.609
14.4158 12.574
14.4309 12.497
14.4461 12.230
14.4613 12.166
14.4765 12.293
14.4916 11.680
14.5068 11.803
14.5220 11.614
14.5372 11.476
14.5523 11.640
14.5675 11.338
14.5827 10.969
14.5979 10.915
14.6130 11.180
14.6282 10.944
14.6434 10.709
14.6586 10.914
14.6737 10.652
14.6889 11.096
14.7041 10.768
14.7193 11.095
14.7344 10.494
14.7496 11.111
14.7648 10.794
14.7800 10.814
14.7951 10.573
14.8103 10.701
14.8255 10.580
14.8407 10.791
14.8558 10.636
14.8710 10.778
14.8862 10.803
14.9014 11.049
14.9165 11.048
14.9317 10.854
14.9469 10.697
14.9621 10.450
14.9772 10.541
14.9924 10.579
15.0076 10.208
15.0228 10.542
15.0379 10.664
15.0531 10.473
15.0683 10.580
15.0835 10.521
15.0986 10.249
15.1138 10.556
15.1290 10.557
15.1442 10.597
15.1593 10.217
15.1745 10.256
15.1897 9.999
15.2049 10.470
15.2200 10.472
15.2352 10.342
15.2504 10.497
15.2656 10.133
15.2807 10.197
15.2959 10.523
15.3111 10.575
15.3263 10.546
15.3414 10.502
15.3566 10.152
15.3718 10.691
15.3870 10.369
15.4021 10.509
15.4173 10.243
15.4325 10.392
15.4477 10.674
15.4628 10.699
15.4780 10.331
15.4932 10.425
15.5084 10.426
15.5235 10.510
15.5387 10.579
15.5539 10.571
15.5691 10.258
15.5842 10.239
15.5994 10.294
15.6146 10.336
15.6298 10.283
15.6449 10.086
15.6601 10.334
15.6753 10.026
15.6905 10.095
15.7056 9.923
15.7208 10.424
15.7360 9.992
15.7512 9.806
15.7663 9.776
15.7815 10.019
15.7967 10.229
15.8119 9.897
15.8270 10.040
15.8422 10.041
15.8574 9.762
15.8726 9.627
15.8877 9.989
15.9029 10.019
15.9181 9.686
15.9333 9.796
15.9484 10.042
15.9636 9.802
15.9788 9.696
15.9940 10.041
16.0091 9.976
16.0243 9.782
16.0395 9.536
16.0547 9.715
16.0698 9.753
16.0850 9.583
16.1002 9.450
16.1154 9.439
16.1305 9.513
16.1457 9.491
16.1609 9.671
16.1761 9.652
16.1912 9.957
16.2064 9.996
16.2216 9.536
16.2368 9.646
16.2519 9.763
16.2671 9.958
16.2823 10.227
16.2975 10.149
16.3126 9.772
16.3278 9.925
16.3430 9.980
16.3582 10.166
16.3733 9.978
16.3885 9.988
16.4037 10.188
16.4189 10.201
16.4340 9.882
16.4492 9.629
16.4644 9.601
16.4796 9.810
16.4947 9.849
16.5099 9.634
16.5251 9.779
16.5403 9.771
16.5554 9.689
16.5706 9.771
16.5858 9.709
16.6010 9.787
16.6161 9.596
16.6313 9.692
16.6465 9.661
16.6617 9.767
16.6768 10.053
16.6920 10.063
16.7072 9.967
16.7224 9.966
16.7375 9.968
16.7527 10.074
16.7679 9.853
16.7831 9.788
16.7982 9.974
16.8134 10.001
16.8286 9.784
16.8438 9.883
16.8589 9.836
16.8741 9.699
16.8893 9.660
16.9045 9.538
16.9196 9.676
16.9348 9.832
16.9500 9.975
16.9652 9.973
16.9803 9.755
16.9955 9.734
17.0107 10.061
17.0259 10.187
17.0410 10.103
17.0562 10.135
17.0714 10.050
17.0866 10.154
17.1017 10.569
17.1169 10.707
17.1321 10.821
17.1473 11.041
17.1624 11.485
17.1776 12.465
17.1928 13.294
17.2080 13.868
17.2231 14.858
17.2383 16.313
17.2535 17.543
17.2687 18.589
17.2838 18.844
17.2990 18.296
17.3142 17.231
17.3294 16.230
17.3445 16.195
17.3597 16.296
17.3749 16.149
17.3901 15.461
17.4052 14.277
17.4204 13.328
17.4356 12.491
17.4508 11.997
17.4659 11.846
17.4811 11.539
17.4963 11.542
17.5115 11.271
17.5266 10.885
17.5418 10.960
17.5570 11.181
17.5722 11.350
17.5873 11.226
17.6025 11.235
17.6177 11.216
17.6329 11.129
17.6480 10.925
17.6632 10.873
17.6784 10.983
17.6936 10.822
17.7087 10.577
17.7239 10.465
17.7391 10.321
17.7543 10.244
17.7694 10.195
17.7846 10.147
17.7998 10.209
17.8150 10.236
17.8301 10.249
17.8453 10.213
17.8605 10.181
17.8757 10.267
17.8908 10.171
17.9060 10.090
17.9212 10.288
17.9364 10.301
17.9515 10.285
17.9667 10.420
17.9819 10.359
17.9971 10.119
18.0122 10.358
18.0274 10.298
18.0426 10.206
18.0578 10.236
18.0729 10.130
18.0881 10.104
18.1033 10.269
18.1185 10.072
18.1336 10.021
18.1488 10.118
18.1640 10.087
18.1792 9.923
18.1943 9.826
18.2095 9.907
18.2247 9.924
18.2399 9.931
18.2550 9.818
18.2702 9.606
18.2854 9.848
18.3006 9.875
18.3157 9.911
18.3309 9.896
18.3461 9.858
18.3613 10.064
18.3764 9.922
18.3916 9.793
18.4068 9.761
18.4220 9.631
18.4371 9.776
18.4523 9.845
18.4675 9.722
18.4827 9.693
18.4978 9.879
18.5130 9.741
18.5282 9.555
18.5434 9.818
18.5585 9.866
18.5737 9.732
18.5889 9.583
18.6041 9.600
18.6192 9.761
18.6344 9.725
18.6496 9.797
18.6648 9.843
18.6799 9.895
18.6951 9.840
18.7103 9.894
18.7255 9.598
18.7406 9.632
18.7558 9.823
18.7710 9.867
18.7862 9.996
18.8013 9.986
18.8165 9.667
18.8317 9.586
18.8469 9.891
18.8620 10.129
18.8772 10.172
18.8924 10.029
18.9076 9.946
18.9227 10.003
18.9379 10.074
18.9531 9.964
18.9683 9.944
18.9834 9.988
18.9986 10.091
19.0138 10.140
19.0290 10.211
19.0441 10.027
19.0593 9.837
19.0745 10.212
19.0897 10.387
19.1048 10.372
19.1200 10.346
19.1352 10.379
19.1504 10.445
19.1655 10.502
19.1807 10.406
19.1959 10.608
19.2111 10.666
19.2262 10.865
19.2414 10.850
19.2566 10.621
19.2718 10.701
19.2869 10.906
19.3021 11.035
19.3173 10.947
19.3325 10.989
19.3476 11.282
19.3628 11.218
19.3780 11.044
19.3932 11.016
19.4083 11.157
19.4235 11.107
19.4387 11.290
19.4539 11.429
19.4690 11.252
19.4842 11.338
19.4994 11.428
19.5146 11.372
19.5297 11.592
19.5449 11.659
19.5601 11.437
19.5753 11.369
19.5904 11.610
19.6056 11.651
19.6208 11.613
19.6360 11.614
19.6511 11.433
19.6663 11.575
19.6815 11.915
19.6967 11.917
19.7118 11.895
19.7270 11.724
19.7422 11.779
19.7574 11.772
19.7725 11.694
19.7877 11.933
19.8029 11.873
19.8180 11.666
19.8332 11.953
19.8484 12.197
19.8636 12.397
19.8787 12.664
19.8939 12.836
19.9091 13.059
19.9243 13.302
19.9394 13.697
19.9546 14.013
19.9698 14.251
19.9850 14.342
20.0001 14.237
20.0153 14.028
20.0305 14.030
20.0457 14.103
20.0608 13.811
20.0760 13.539
20.0912 13.502
20.1064 13.581
20.1215 13.483
20.1367 13.370
20.1519 13.133
20.1671 12.918
20.1822 12.669
20.1974 12.684
20.2126 12.855
20.2278 12.608
20.2429 12.409
20.2581 12.349
20.2733 12.099
20.2885 11.846
20.3036 11.675
20.3188 11.756
20.3340 11.790
20.3492 11.494
20.3643 11.328
20.3795 11.182
20.3947 11.032
20.4099 11.004
20.4250 10.792
20.4402 10.531
20.4554 10.716
20.4706 10.615
20.4857 10.578
20.5009 10.756
20.5161 10.453
20.5313 10.633
20.5464 10.696
20.5616 10.663
20.5768 10.349
20.5920 10.602
20.6071 10.830
20.6223 10.809
20.6375 10.874
20.6527 10.697
20.6678 10.471
20.6830 10.948
20.6982 10.848
20.7134 10.395
20.7285 10.465
20.7437 10.450
20.7589 10.537
20.7741 10.363
20.7892 10.294
20.8044 10.044
20.8196 9.865
20.8348 10.279
20.8499 10.390
20.8651 10.052
20.8803 10.162
20.8955 10.080
20.9106 9.891
20.9258 9.989
20.9410 10.275
20.9562 10.295
20.9713 10.100
20.9865 10.120
21.0017 10.217
21.0169 10.359
21.0320 9.900
21.0472 9.991
21.0624 10.199
21.0776 9.776
21.0927 10.011
21.1079 10.089
21.1231 9.750
21.1383 9.781
21.1534 9.709
21.1686 9.814
21.1838 9.890
21.1990 9.458
21.2141 9.773
21.2293 9.757
21.2445 9.952
21.2597 9.691
21.2748 9.917
21.2900 9.643
21.3052 9.630
21.3204 9.579
21.3355 9.565
21.3507 9.670
21.3659 9.562
21.3811 9.282
21.3962 9.530
21.4114 9.391
21.4266 9.582
21.4418 9.655
21.4569 9.261
21.4721 9.263
21.4873 9.367
21.5025 9.503
21.5176 9.314
21.5328 9.537
21.5480 9.437
21.5632 9.315
21.5783 9.445
21.5935 9.523
21.6087 9.276
21.6239 9.493
21.6390 9.175
21.6542 9.190
21.6694 9.191
21.6846 9.235
21.6997 9.006
21.7149 8.951
21.7301 9.255
21.7453 9.368
21.7604 9.098
21.7756 9.066
21.7908 9.094
21.8060 8.928
21.8211 9.052
21.8363 9.167
21.8515 8.963
21.8667 8.942
21.8818 9.079
21.8970 9.050
21.9122 8.839
21.9274 8.919
21.9425 9.022
21.9577 9.081
21.9729 8.965
21.9881 8.787
22.0032 8.838
22.0184 8.933
22.0336 8.816
22.0488 8.763
22.0639 8.780
22.0791 8.915
22.0943 9.013
22.1095 8.753
22.1246 8.585
22.1398 8.581
22.1550 8.402
22.1702 8.596
22.1853 8.697
22.2005 8.710
22.2157 8.833
22.2309 8.644
22.2460 8.344
22.2612 8.661
22.2764 8.700
22.2916 8.751
22.3067 8.536
22.3219 8.412
22.3371 8.369
22.3523 8.468
22.3674 8.378
22.3826 8.700
22.3978 8.691
22.4130 8.596
22.4281 8.570
22.4433 8.537
22.4585 8.505
22.4737 8.469
22.4888 8.281
22.5040 8.348
22.5192 8.582
22.5344 8.387
22.5495 8.515
22.5647 8.574
22.5799 8.732
22.5951 8.433
22.6102 8.493
22.6254 8.516
22.6406 8.356
22.6558 8.466
22.6709 8.247
22.6861 8.228
22.7013 8.519
22.7165 8.087
22.7316 6.454
