'Id: "" Comment: "" Operator: "Lab Manager" Anode: "Mo" Scantype: "Still (Eiger2R_500K (1D mode))" TimePerStep: "300" X: "11.8" Y: "9.4" Z: "11.284" 
7.2532 18.663
7.2684 18.836
7.2836 18.709
7.2987 19.093
7.3139 19.487
7.3291 19.071
7.3443 19.280
7.3594 19.202
7.3746 19.333
7.3898 19.261
7.4050 19.790
7.4201 19.242
7.4353 19.806
7.4505 19.422
7.4657 19.474
7.4808 19.184
7.4960 19.317
7.5112 19.472
7.5264 19.546
7.5415 19.823
7.5567 19.347
7.5719 19.561
7.5871 20.027
7.6022 20.225
7.6174 20.296
7.6326 20.105
7.6478 19.770
7.6629 19.687
7.6781 20.113
7.6933 20.104
7.7085 19.989
7.7236 20.218
7.7388 20.164
7.7540 20.273
7.7692 20.337
7.7843 20.468
7.7995 20.640
7.8147 20.624
7.8299 20.533
7.8450 20.613
7.8602 20.929
7.8754 20.884
7.8905 20.877
7.9057 20.830
7.9209 20.849
7.9361 20.615
7.9512 20.855
7.9664 21.059
7.9816 20.945
7.9968 21.019
8.0119 21.030
8.0271 20.982
8.0423 20.920
8.0575 21.031
8.0726 21.120
8.0878 21.214
8.1030 20.976
8.1182 21.409
8.1333 21.610
8.1485 21.413
8.1637 21.293
8.1789 21.364
8.1940 21.028
8.2092 21.351
8.2244 21.399
8.2396 21.466
8.2547 21.722
8.2699 21.695
8.2851 21.384
8.3003 21.719
8.3154 21.335
8.3306 21.349
8.3458 21.613
8.3610 22.254
8.3761 21.909
8.3913 22.127
8.4065 22.128
8.4217 22.135
8.4368 21.661
8.4520 22.085
8.4672 21.853
8.4824 21.646
8.4975 22.118
8.5127 22.076
8.5279 22.019
8.5431 21.522
8.5582 22.348
8.5734 22.453
8.5886 22.333
8.6038 22.343
8.6189 22.191
8.6341 22.178
8.6493 22.249
8.6645 22.392
8.6796 21.975
8.6948 22.292
8.7100 22.536
8.7252 21.755
8.7403 22.661
8.7555 22.328
8.7707 22.575
8.7859 21.904
8.8010 22.439
8.8162 22.396
8.8314 22.302
8.8466 22.504
8.8617 22.423
8.8769 22.569
8.8921 22.391
8.9073 22.666
8.9224 22.225
8.9376 22.366
8.9528 22.577
8.9680 22.411
8.9831 22.495
8.9983 22.504
9.0135 22.276
9.0287 22.340
9.0438 22.599
9.0590 22.949
9.0742 22.786
9.0894 22.672
9.1045 22.487
9.1197 22.780
9.1349 22.950
9.1501 23.119
9.1652 22.920
9.1804 22.783
9.1956 22.664
9.2108 22.455
9.2259 22.598
9.2411 22.884
9.2563 22.911
9.2715 23.039
9.2866 22.792
9.3018 22.799
9.3170 23.202
9.3322 22.948
9.3473 22.847
9.3625 23.008
9.3777 22.807
9.3929 22.885
9.4080 22.703
9.4232 22.776
9.4384 23.080
9.4536 23.231
9.4687 23.157
9.4839 22.893
9.4991 22.732
9.5143 23.004
9.5294 23.467
9.5446 23.349
9.5598 23.198
9.5750 23.520
9.5901 23.086
9.6053 23.047
9.6205 23.131
9.6357 22.961
9.6508 23.481
9.6660 23.722
9.6812 23.733
9.6964 23.674
9.7115 23.555
9.7267 23.897
9.7419 24.496
9.7571 24.578
9.7722 23.957
9.7874 23.689
9.8026 23.899
9.8178 23.849
9.8329 23.744
9.8481 23.654
9.8633 23.382
9.8785 23.398
9.8936 23.507
9.9088 23.099
9.9240 23.069
9.9392 23.093
9.9543 23.021
9.9695 23.076
9.9847 23.080
9.9999 23.367
10.0150 23.405
10.0302 23.062
10.0454 23.637
10.0606 23.832
10.0757 23.429
10.0909 23.452
10.1061 23.662
10.1213 23.312
10.1364 23.380
10.1516 23.520
10.1668 23.195
10.1820 23.002
10.1971 23.199
10.2123 23.163
10.2275 22.952
10.2427 23.305
10.2578 22.887
10.2730 22.575
10.2882 22.850
10.3034 22.728
10.3185 22.535
10.3337 22.661
10.3489 22.512
10.3641 22.476
10.3792 22.558
10.3944 22.811
10.4096 22.895
10.4248 22.972
10.4399 22.778
10.4551 22.771
10.4703 22.915
10.4855 22.774
10.5006 22.557
10.5158 22.533
10.5310 22.792
10.5462 22.608
10.5613 22.442
10.5765 22.453
10.5917 22.705
10.6069 23.138
10.6220 22.647
10.6372 22.779
10.6524 22.779
10.6676 22.891
10.6827 22.641
10.6979 22.656
10.7131 22.741
10.7283 22.461
10.7434 22.461
10.7586 22.621
10.7738 22.571
10.7890 22.331
10.8041 22.382
10.8193 22.315
10.8345 22.196
10.8497 22.206
10.8648 22.587
10.8800 22.283
10.8952 22.018
10.9104 22.186
10.9255 22.160
10.9407 22.272
10.9559 22.101
10.9711 22.269
10.9862 22.110
11.0014 21.870
11.0166 21.996
11.0318 22.222
11.0469 22.039
11.0621 22.061
11.0773 22.087
11.0925 22.022
11.1076 21.973
11.1228 21.754
11.1380 21.386
11.1532 21.711
11.1683 22.072
11.1835 21.743
11.1987 21.532
11.2139 21.678
11.2290 22.066
11.2442 21.835
11.2594 21.668
11.2746 21.406
11.2897 21.583
11.3049 21.661
11.3201 21.507
11.3353 21.666
11.3504 21.407
11.3656 21.342
11.3808 21.200
11.3960 21.249
11.4111 21.175
11.4263 21.198
11.4415 20.884
11.4567 20.889
11.4718 21.273
11.4870 21.399
11.5022 21.136
11.5174 20.852
11.5325 20.993
11.5477 20.924
11.5629 20.896
11.5781 20.992
11.5932 21.009
11.6084 20.817
11.6236 20.731
11.6388 20.578
11.6539 20.343
11.6691 20.920
11.6843 20.601
11.6995 20.641
11.7146 20.462
11.7298 20.585
11.7450 20.482
11.7602 20.420
11.7753 20.299
11.7905 20.033
11.8057 20.115
11.8209 20.258
11.8360 20.084
11.8512 19.640
11.8664 19.504
11.8816 19.718
11.8967 19.669
11.9119 19.710
11.9271 19.643
11.9423 19.159
11.9574 18.920
11.9726 19.169
11.9878 19.521
12.0030 19.591
12.0181 19.413
12.0333 19.338
12.0485 19.080
12.0637 18.991
12.0788 19.177
12.0940 18.726
12.1092 18.604
12.1244 18.748
12.1395 18.493
12.1547 18.250
12.1699 18.245
12.1851 18.550
12.2002 18.766
12.2154 18.236
12.2306 17.794
12.2458 17.726
12.2609 17.692
12.2761 17.848
12.2913 17.715
12.3065 17.556
12.3216 17.564
12.3368 17.616
12.3520 17.722
12.3672 17.538
12.3823 17.549
12.3975 17.499
12.4127 17.032
12.4279 16.885
12.4430 17.054
12.4582 16.886
12.4734 16.517
12.4886 16.600
12.5037 16.814
12.5189 16.583
12.5341 16.624
12.5493 16.505
12.5644 16.314
12.5796 16.241
12.5948 16.208
12.6100 16.093
12.6251 15.941
12.6403 15.937
12.6555 15.934
12.6707 15.895
12.6858 15.705
12.7010 15.890
12.7162 15.801
12.7314 15.683
12.7465 15.409
12.7617 15.250
12.7769 15.314
12.7921 15.194
12.8072 15.113
12.8224 15.048
12.8376 14.887
12.8528 14.615
12.8679 14.653
12.8831 14.886
12.8983 14.815
12.9135 14.513
12.9286 14.451
12.9438 14.501
12.9590 14.606
12.9742 14.500
12.9893 14.213
13.0045 14.118
13.0197 13.906
13.0349 13.902
13.0500 14.092
13.0652 13.995
13.0804 13.691
13.0956 13.827
13.1107 14.026
13.1259 13.826
13.1411 13.700
13.1563 13.665
13.1714 13.818
13.1866 13.710
13.2018 13.512
13.2170 13.341
13.2321 13.175
13.2473 13.385
13.2625 13.495
13.2777 13.298
13.2928 13.190
13.3080 13.163
13.3232 13.009
13.3384 13.015
13.3535 13.001
13.3687 13.177
13.3839 13.216
13.3991 12.988
13.4142 12.840
13.4294 12.741
13.4446 12.784
13.4598 12.824
13.4749 13.018
13.4901 12.900
13.5053 12.467
13.5205 12.482
13.5356 12.469
13.5508 12.273
13.5660 12.289
13.5812 12.243
13.5963 12.339
13.6115 12.288
13.6267 12.302
13.6419 12.354
13.6570 12.368
13.6722 12.012
13.6874 11.969
13.7026 12.092
13.7177 11.980
13.7329 12.102
13.7481 12.173
13.7633 12.356
13.7784 12.380
13.7936 12.319
13.8088 12.451
13.8239 12.232
13.8391 12.012
13.8543 12.076
13.8695 12.262
13.8846 12.507
13.8998 12.295
13.9150 11.978
13.9302 11.964
13.9453 12.006
13.9605 12.071
13.9757 11.838
13.9909 11.791
14.0060 11.671
14.0212 11.696
14.0364 11.756
14.0516 11.783
14.0667 11.747
14.0819 11.596
14.0971 11.525
14.1123 11.494
14.1274 11.614
14.1426 11.646
14.1578 11.499
14.1730 11.653
14.1881 11.908
14.2033 11.608
14.2185 11.878
14.2337 11.753
14.2488 11.839
14.2640 11.611
14.2792 11.799
14.2944 11.719
14.3095 12.151
14.3247 12.011
14.3399 12.156
14.3551 12.550
14.3702 12.593
14.3854 12.944
14.4006 12.861
14.4158 12.849
14.4309 13.179
14.4461 13.125
14.4613 12.744
14.4765 12.661
14.4916 12.332
14.5068 12.219
14.5220 11.742
14.5372 11.992
14.5523 11.255
14.5675 11.021
14.5827 10.935
14.5979 10.972
14.6130 11.146
14.6282 11.119
14.6434 10.762
14.6586 10.781
14.6737 10.718
14.6889 11.028
14.7041 10.781
14.7193 10.580
14.7344 10.615
14.7496 10.549
14.7648 10.844
14.7800 10.746
14.7951 10.503
14.8103 10.400
14.8255 10.645
14.8407 10.129
14.8558 10.152
14.8710 10.534
14.8862 10.546
14.9014 10.443
14.9165 10.705
14.9317 10.607
14.9469 10.386
14.9621 10.424
14.9772 10.250
14.9924 10.387
15.0076 10.160
15.0228 10.522
15.0379 10.282
15.0531 10.221
15.0683 10.430
15.0835 10.505
15.0986 9.996
15.1138 10.416
15.1290 10.084
15.1442 10.306
15.1593 10.583
15.1745 10.309
15.1897 10.511
15.2049 10.298
15.2200 10.070
15.2352 10.359
15.2504 10.275
15.2656 10.125
15.2807 10.252
15.2959 10.442
15.3111 10.448
15.3263 10.663
15.3414 10.156
15.3566 10.299
15.3718 10.244
15.3870 10.156
15.4021 10.201
15.4173 10.049
15.4325 10.301
15.4477 10.164
15.4628 10.339
15.4780 10.237
15.4932 10.218
15.5084 10.169
15.5235 10.084
15.5387 10.386
15.5539 10.019
15.5691 9.857
15.5842 9.868
15.5994 10.061
15.6146 9.739
15.6298 9.723
15.6449 10.041
15.6601 9.863
15.6753 9.898
15.6905 9.717
15.7056 9.948
15.7208 9.943
15.7360 9.977
15.7512 9.735
15.7663 9.544
15.7815 9.922
15.7967 9.876
15.8119 9.574
15.8270 9.919
15.8422 9.758
15.8574 9.743
15.8726 9.362
15.8877 9.566
15.9029 9.558
15.9181 9.541
15.9333 9.775
15.9484 9.867
15.9636 9.618
15.9788 9.598
15.9940 9.658
16.0091 9.835
16.0243 9.805
16.0395 9.603
16.0547 9.651
16.0698 9.677
16.0850 9.452
16.1002 9.599
16.1154 9.814
16.1305 9.813
16.1457 9.501
16.1609 9.200
16.1761 9.443
16.1912 9.670
16.2064 9.760
16.2216 9.972
16.2368 9.690
16.2519 9.584
16.2671 9.587
16.2823 10.027
16.2975 10.103
16.3126 9.816
16.3278 9.728
16.3430 9.695
16.3582 9.886
16.3733 9.974
16.3885 9.936
16.4037 9.984
16.4189 9.803
16.4340 9.842
16.4492 9.938
16.4644 9.841
16.4796 10.109
16.4947 9.872
16.5099 9.697
16.5251 9.747
16.5403 9.608
16.5554 9.338
16.5706 9.589
16.5858 9.650
16.6010 9.507
16.6161 9.699
16.6313 9.783
16.6465 9.726
16.6617 9.727
16.6768 9.943
16.6920 10.102
16.7072 9.943
16.7224 9.859
16.7375 9.825
16.7527 9.997
16.7679 10.062
16.7831 10.085
16.7982 10.056
16.8134 10.147
16.8286 9.979
16.8438 9.813
16.8589 9.942
16.8741 9.918
16.8893 9.918
16.9045 9.615
16.9196 9.537
16.9348 9.511
16.9500 9.654
16.9652 9.969
16.9803 9.802
16.9955 9.636
17.0107 9.857
17.0259 9.981
17.0410 10.165
17.0562 10.268
17.0714 10.297
17.0866 10.441
17.1017 10.755
17.1169 10.771
17.1321 10.900
17.1473 11.189
17.1624 11.450
17.1776 12.333
17.1928 13.206
17.2080 14.028
17.2231 14.972
17.2383 15.984
17.2535 17.484
17.2687 18.371
17.2838 18.555
17.2990 18.006
17.3142 17.097
17.3294 16.671
17.3445 16.199
17.3597 16.058
17.3749 15.992
17.3901 15.433
17.4052 14.282
17.4204 13.422
17.4356 12.861
17.4508 12.391
17.4659 12.026
17.4811 11.676
17.4963 11.693
17.5115 11.472
17.5266 11.114
17.5418 10.918
17.5570 10.899
17.5722 10.847
17.5873 10.946
17.6025 11.150
17.6177 11.219
17.6329 11.186
17.6480 11.370
17.6632 11.347
17.6784 11.458
17.6936 11.673
17.7087 11.362
17.7239 11.175
17.7391 11.207
17.7543 11.309
17.7694 11.182
17.7846 11.039
17.7998 11.023
17.8150 10.857
17.8301 10.687
17.8453 10.339
17.8605 10.240
17.8757 10.519
17.8908 10.565
17.9060 10.406
17.9212 10.270
17.9364 10.015
17.9515 9.858
17.9667 10.089
17.9819 10.175
17.9971 9.966
18.0122 10.252
18.0274 10.369
18.0426 10.101
18.0578 10.080
18.0729 10.028
18.0881 10.081
18.1033 9.969
18.1185 10.044
18.1336 10.100
18.1488 10.076
18.1640 9.915
18.1792 9.941
18.1943 10.054
18.2095 9.871
18.2247 9.818
18.2399 9.877
18.2550 9.794
18.2702 9.880
18.2854 10.014
18.3006 9.936
18.3157 9.756
18.3309 9.787
18.3461 9.735
18.3613 9.650
18.3764 9.799
18.3916 9.772
18.4068 9.849
18.4220 9.873
18.4371 9.873
18.4523 9.920
18.4675 9.758
18.4827 9.516
18.4978 9.753
18.5130 10.098
18.5282 9.952
18.5434 9.797
18.5585 9.799
18.5737 9.763
18.5889 9.572
18.6041 9.568
18.6192 9.596
18.6344 9.737
18.6496 10.013
18.6648 9.828
18.6799 9.601
18.6951 9.671
18.7103 9.812
18.7255 9.818
18.7406 9.764
18.7558 9.724
18.7710 9.838
18.7862 9.888
18.8013 9.713
18.8165 9.634
18.8317 9.998
18.8469 9.989
18.8620 9.799
18.8772 9.809
18.8924 10.085
18.9076 10.033
18.9227 9.710
18.9379 9.848
18.9531 10.147
18.9683 10.003
18.9834 9.958
18.9986 10.230
19.0138 10.312
19.0290 10.236
19.0441 10.088
19.0593 10.427
19.0745 10.434
19.0897 10.244
19.1048 10.177
19.1200 10.266
19.1352 10.151
19.1504 10.108
19.1655 10.251
19.1807 10.530
19.1959 10.654
19.2111 10.488
19.2262 10.488
19.2414 10.853
19.2566 11.123
19.2718 10.985
19.2869 11.086
19.3021 11.075
19.3173 10.945
19.3325 10.903
19.3476 10.844
19.3628 10.965
19.3780 11.046
19.3932 10.791
19.4083 10.866
19.4235 11.299
19.4387 11.410
19.4539 11.243
19.4690 11.215
19.4842 11.225
19.4994 11.073
19.5146 11.341
19.5297 11.734
19.5449 11.650
19.5601 11.410
19.5753 11.692
19.5904 11.822
19.6056 11.656
19.6208 11.855
19.6360 11.693
19.6511 11.560
19.6663 11.696
19.6815 11.638
19.6967 11.816
19.7118 11.717
19.7270 11.464
19.7422 11.688
19.7574 11.875
19.7725 11.818
19.7877 11.974
19.8029 12.011
19.8180 12.103
19.8332 12.185
19.8484 12.302
19.8636 12.732
19.8787 12.777
19.8939 12.776
19.9091 13.265
19.9243 13.581
19.9394 13.898
19.9546 14.126
19.9698 14.278
19.9850 14.468
20.0001 14.547
20.0153 14.116
20.0305 13.789
20.0457 13.913
20.0608 13.607
20.0760 13.747
20.0912 13.871
20.1064 13.797
20.1215 13.534
20.1367 13.318
20.1519 13.071
20.1671 12.827
20.1822 12.806
20.1974 12.942
20.2126 12.691
20.2278 12.507
20.2429 12.511
20.2581 12.316
20.2733 11.984
20.2885 12.079
20.3036 12.009
20.3188 11.906
20.3340 11.925
20.3492 11.827
20.3643 12.052
20.3795 11.914
20.3947 11.822
20.4099 11.752
20.4250 11.673
20.4402 11.692
20.4554 11.907
20.4706 11.929
20.4857 11.635
20.5009 11.714
20.5161 11.766
20.5313 11.518
20.5464 10.992
20.5616 11.332
20.5768 11.419
20.5920 11.066
20.6071 11.351
20.6223 10.782
20.6375 10.792
20.6527 10.907
20.6678 10.750
20.6830 10.727
20.6982 10.677
20.7134 10.670
20.7285 10.453
20.7437 10.299
20.7589 10.394
20.7741 10.257
20.7892 10.294
20.8044 10.183
20.8196 10.427
20.8348 10.175
20.8499 9.832
20.8651 10.264
20.8803 10.101
20.8955 9.984
20.9106 10.048
20.9258 10.192
20.9410 10.246
20.9562 10.107
20.9713 9.941
20.9865 10.083
21.0017 10.118
21.0169 10.135
21.0320 10.054
21.0472 10.056
21.0624 10.108
21.0776 10.125
21.0927 9.837
21.1079 9.785
21.1231 9.839
21.1383 9.810
21.1534 9.699
21.1686 9.675
21.1838 10.133
21.1990 9.714
21.2141 9.983
21.2293 9.696
21.2445 9.479
21.2597 9.590
21.2748 9.762
21.2900 9.639
21.3052 9.535
21.3204 9.541
21.3355 9.664
21.3507 9.819
21.3659 9.880
21.3811 9.532
21.3962 9.602
21.4114 9.472
21.4266 9.378
21.4418 9.636
21.4569 9.455
21.4721 9.437
21.4873 9.451
21.5025 9.792
21.5176 9.354
21.5328 9.454
21.5480 9.272
21.5632 9.384
21.5783 9.231
21.5935 9.314
21.6087 9.259
21.6239 9.220
21.6390 9.541
21.6542 9.489
21.6694 9.081
21.6846 9.094
21.6997 9.153
21.7149 9.197
21.7301 9.041
21.7453 9.037
21.7604 9.271
21.7756 9.206
21.7908 8.927
21.8060 8.884
21.8211 8.888
21.8363 9.097
21.8515 9.319
21.8667 9.120
21.8818 9.133
21.8970 9.227
21.9122 9.080
21.9274 9.054
21.9425 9.095
21.9577 9.145
21.9729 9.076
21.9881 8.974
22.0032 8.831
22.0184 8.896
22.0336 8.859
22.0488 8.574
22.0639 8.686
22.0791 8.823
22.0943 8.727
22.1095 8.823
22.1246 8.929
22.1398 8.737
22.1550 8.693
22.1702 8.786
22.1853 8.565
22.2005 8.454
22.2157 8.561
22.2309 8.715
22.2460 8.473
22.2612 8.412
22.2764 8.606
22.2916 8.449
22.3067 8.547
22.3219 8.695
22.3371 8.525
22.3523 8.563
22.3674 8.605
22.3826 8.238
22.3978 8.412
22.4130 8.393
22.4281 8.305
22.4433 8.561
22.4585 8.289
22.4737 8.340
22.4888 8.810
22.5040 8.487
22.5192 8.335
22.5344 8.765
22.5495 8.550
22.5647 8.494
22.5799 8.269
22.5951 8.280
22.6102 8.416
22.6254 8.714
22.6406 8.390
22.6558 8.467
22.6709 8.151
22.6861 8.262
22.7013 8.379
22.7165 7.828
22.7316 6.316
