'Id: "" Comment: "" Operator: "Lab Manager" Anode: "Mo" Scantype: "Still (Eiger2R_500K (1D mode))" TimePerStep: "300" X: "11.8" Y: "9.4" Z: "11.284" 
7.2532 18.677
7.2684 19.036
7.2836 19.003
7.2987 18.621
7.3139 18.837
7.3291 18.535
7.3443 18.594
7.3594 18.852
7.3746 19.448
7.3898 19.010
7.4050 19.321
7.4201 19.452
7.4353 19.398
7.4505 19.469
7.4657 19.543
7.4808 19.643
7.4960 19.607
7.5112 19.338
7.5264 19.664
7.5415 19.405
7.5567 19.768
7.5719 19.561
7.5871 19.807
7.6022 20.114
7.6174 19.785
7.6326 19.995
7.6478 19.869
7.6629 20.115
7.6781 20.638
7.6933 20.262
7.7085 20.217
7.7236 20.336
7.7388 20.188
7.7540 20.329
7.7692 20.567
7.7843 20.479
7.7995 20.437
7.8147 20.606
7.8299 20.365
7.8450 20.042
7.8602 20.307
7.8754 20.677
7.8905 20.696
7.9057 20.540
7.9209 20.610
7.9361 20.897
7.9512 20.983
7.9664 20.879
7.9816 20.775
7.9968 20.778
8.0119 20.598
8.0271 20.936
8.0423 21.364
8.0575 20.873
8.0726 20.762
8.0878 21.256
8.1030 21.165
8.1182 21.150
8.1333 21.145
8.1485 21.320
8.1637 21.257
8.1789 21.524
8.1940 21.192
8.2092 21.548
8.2244 21.669
8.2396 21.518
8.2547 21.681
8.2699 21.429
8.2851 21.319
8.3003 21.555
8.3154 21.836
8.3306 21.949
8.3458 21.691
8.3610 21.733
8.3761 21.253
8.3913 21.505
8.4065 21.617
8.4217 21.303
8.4368 22.003
8.4520 22.078
8.4672 21.922
8.4824 21.656
8.4975 21.517
8.5127 22.502
8.5279 21.801
8.5431 22.235
8.5582 21.614
8.5734 21.938
8.5886 21.879
8.6038 21.869
8.6189 22.235
8.6341 22.151
8.6493 21.805
8.6645 21.514
8.6796 22.015
8.6948 22.430
8.7100 22.700
8.7252 22.843
8.7403 22.206
8.7555 22.003
8.7707 22.293
8.7859 22.445
8.8010 22.671
8.8162 22.282
8.8314 22.738
8.8466 22.791
8.8617 22.458
8.8769 22.511
8.8921 22.350
8.9073 22.631
8.9224 22.071
8.9376 22.535
8.9528 22.750
8.9680 22.518
8.9831 22.431
8.9983 22.399
9.0135 22.289
9.0287 22.354
9.0438 22.997
9.0590 22.508
9.0742 22.732
9.0894 22.680
9.1045 22.729
9.1197 22.431
9.1349 22.612
9.1501 22.520
9.1652 22.730
9.1804 22.717
9.1956 22.605
9.2108 22.551
9.2259 22.724
9.2411 22.763
9.2563 22.829
9.2715 22.740
9.2866 22.613
9.3018 22.838
9.3170 22.797
9.3322 22.488
9.3473 22.951
9.3625 22.989
9.3777 22.767
9.3929 22.766
9.4080 22.853
9.4232 22.794
9.4384 22.853
9.4536 22.813
9.4687 23.228
9.4839 23.340
9.4991 23.234
9.5143 23.102
9.5294 22.944
9.5446 23.102
9.5598 23.287
9.5750 23.233
9.5901 22.938
9.6053 22.910
9.6205 23.211
9.6357 23.445
9.6508 23.541
9.6660 23.468
9.6812 23.429
9.6964 23.530
9.7115 23.778
9.7267 24.175
9.7419 24.312
9.7571 24.099
9.7722 23.916
9.7874 23.913
9.8026 23.988
9.8178 23.945
9.8329 23.772
9.8481 23.205
9.8633 23.059
9.8785 23.173
9.8936 23.015
9.9088 23.187
9.9240 23.293
9.9392 22.977
9.9543 23.011
9.9695 23.073
9.9847 22.847
9.9999 22.750
10.0150 23.036
10.0302 23.312
10.0454 23.267
10.0606 23.331
10.0757 23.395
10.0909 23.078
10.1061 23.086
10.1213 23.292
10.1364 23.380
10.1516 23.695
10.1668 23.551
10.1820 23.126
10.1971 23.018
10.2123 22.710
10.2275 22.678
10.2427 22.828
10.2578 22.689
10.2730 22.864
10.2882 22.759
10.3034 22.655
10.3185 22.573
10.3337 22.863
10.3489 22.700
10.3641 22.647
10.3792 22.836
10.3944 22.673
10.4096 22.487
10.4248 22.409
10.4399 22.343
10.4551 22.389
10.4703 22.496
10.4855 22.450
10.5006 22.363
10.5158 22.536
10.5310 22.329
10.5462 22.578
10.5613 22.714
10.5765 22.462
10.5917 22.226
10.6069 22.421
10.6220 22.518
10.6372 22.360
10.6524 22.727
10.6676 22.536
10.6827 22.415
10.6979 22.693
10.7131 22.726
10.7283 22.282
10.7434 22.317
10.7586 22.191
10.7738 22.391
10.7890 22.630
10.8041 22.657
10.8193 22.366
10.8345 22.435
10.8497 22.288
10.8648 22.334
10.8800 22.323
10.8952 22.146
10.9104 22.124
10.9255 22.438
10.9407 22.486
10.9559 21.989
10.9711 21.981
10.9862 22.267
11.0014 22.065
11.0166 22.129
11.0318 22.238
11.0469 21.941
11.0621 21.846
11.0773 21.708
11.0925 21.668
11.1076 21.903
11.1228 22.137
11.1380 21.960
11.1532 21.951
11.1683 21.803
11.1835 21.660
11.1987 21.424
11.2139 21.415
11.2290 21.643
11.2442 21.819
11.2594 21.842
11.2746 21.727
11.2897 21.623
11.3049 21.738
11.3201 21.748
11.3353 21.467
11.3504 21.383
11.3656 21.384
11.3808 21.407
11.3960 21.125
11.4111 21.173
11.4263 21.187
11.4415 21.183
11.4567 20.975
11.4718 20.915
11.4870 21.005
11.5022 21.209
11.5174 21.182
11.5325 20.841
11.5477 20.625
11.5629 21.073
11.5781 20.800
11.5932 21.005
11.6084 20.537
11.6236 20.911
11.6388 20.687
11.6539 20.703
11.6691 20.650
11.6843 20.634
11.6995 20.489
11.7146 20.511
11.7298 20.582
11.7450 20.373
11.7602 19.832
11.7753 20.276
11.7905 20.282
11.8057 20.111
11.8209 20.036
11.8360 20.310
11.8512 19.884
11.8664 19.755
11.8816 19.596
11.8967 19.376
11.9119 19.584
11.9271 19.738
11.9423 19.655
11.9574 19.444
11.9726 19.236
11.9878 19.274
12.0030 19.449
12.0181 19.358
12.0333 19.405
12.0485 19.510
12.0637 19.067
12.0788 18.819
12.0940 18.606
12.1092 18.771
12.1244 19.034
12.1395 19.004
12.1547 18.394
12.1699 18.192
12.1851 18.058
12.2002 18.094
12.2154 17.930
12.2306 18.014
12.2458 18.093
12.2609 17.762
12.2761 17.651
12.2913 17.532
12.3065 18.027
12.3216 17.991
12.3368 17.671
12.3520 17.602
12.3672 17.754
12.3823 17.373
12.3975 17.354
12.4127 17.223
12.4279 16.854
12.4430 16.724
12.4582 16.900
12.4734 16.895
12.4886 16.582
12.5037 16.629
12.5189 16.682
12.5341 16.765
12.5493 16.706
12.5644 16.378
12.5796 16.328
12.5948 16.416
12.6100 16.332
12.6251 16.145
12.6403 16.005
12.6555 16.048
12.6707 15.731
12.6858 15.781
12.7010 15.906
12.7162 15.478
12.7314 15.347
12.7465 15.548
12.7617 15.371
12.7769 15.074
12.7921 15.272
12.8072 15.350
12.8224 15.271
12.8376 15.243
12.8528 15.004
12.8679 14.889
12.8831 14.786
12.8983 14.690
12.9135 14.535
12.9286 14.571
12.9438 14.603
12.9590 14.589
12.9742 14.383
12.9893 14.426
13.0045 14.467
13.0197 14.179
13.0349 13.942
13.0500 13.869
13.0652 13.822
13.0804 13.497
13.0956 13.646
13.1107 13.802
13.1259 13.526
13.1411 13.561
13.1563 13.736
13.1714 13.606
13.1866 13.459
13.2018 13.636
13.2170 13.552
13.2321 13.203
13.2473 13.095
13.2625 13.121
13.2777 13.075
13.2928 12.899
13.3080 12.957
13.3232 12.988
13.3384 12.969
13.3535 13.056
13.3687 12.737
13.3839 12.679
13.3991 12.852
13.4142 12.865
13.4294 12.970
13.4446 12.896
13.4598 12.780
13.4749 12.681
13.4901 12.299
13.5053 12.473
13.5205 12.563
13.5356 12.214
13.5508 12.287
13.5660 12.503
13.5812 12.396
13.5963 12.339
13.6115 12.362
13.6267 12.151
13.6419 12.096
13.6570 12.056
13.6722 12.211
13.6874 12.053
13.7026 11.928
13.7177 12.037
13.7329 12.096
13.7481 12.032
13.7633 11.974
13.7784 12.163
13.7936 12.217
13.8088 12.291
13.8239 12.408
13.8391 12.549
13.8543 12.296
13.8695 12.383
13.8846 12.199
13.8998 12.089
13.9150 12.325
13.9302 12.226
13.9453 11.918
13.9605 12.148
13.9757 11.918
13.9909 11.944
14.0060 11.872
14.0212 11.636
14.0364 11.544
14.0516 11.435
14.0667 11.422
14.0819 11.550
14.0971 11.683
14.1123 11.817
14.1274 11.877
14.1426 11.995
14.1578 12.127
14.1730 11.662
14.1881 11.603
14.2033 11.603
14.2185 11.825
14.2337 11.642
14.2488 11.391
14.2640 11.686
14.2792 12.038
14.2944 12.113
14.3095 12.170
14.3247 11.930
14.3399 12.422
14.3551 12.569
14.3702 12.881
14.3854 13.405
14.4006 13.288
14.4158 13.089
14.4309 13.068
14.4461 12.738
14.4613 12.335
14.4765 12.392
14.4916 12.194
14.5068 12.164
14.5220 11.508
14.5372 11.406
14.5523 11.317
14.5675 11.019
14.5827 11.210
14.5979 10.905
14.6130 10.901
14.6282 10.795
14.6434 10.805
14.6586 10.774
14.6737 11.053
14.6889 10.688
14.7041 10.545
14.7193 10.313
14.7344 10.527
14.7496 10.581
14.7648 10.715
14.7800 10.729
14.7951 10.230
14.8103 10.218
14.8255 10.189
14.8407 10.507
14.8558 10.302
14.8710 10.422
14.8862 10.271
14.9014 10.541
14.9165 10.948
14.9317 10.874
14.9469 10.836
14.9621 10.546
14.9772 10.226
14.9924 10.419
15.0076 10.093
15.0228 10.237
15.0379 10.365
15.0531 10.358
15.0683 10.273
15.0835 10.164
15.0986 10.004
15.1138 10.028
15.1290 10.249
15.1442 10.116
15.1593 10.367
15.1745 9.960
15.1897 9.728
15.2049 9.768
15.2200 9.977
15.2352 9.754
15.2504 10.246
15.2656 9.915
15.2807 10.045
15.2959 9.744
15.3111 9.669
15.3263 9.861
15.3414 10.020
15.3566 10.383
15.3718 10.394
15.3870 9.947
15.4021 10.142
15.4173 10.162
15.4325 10.128
15.4477 10.484
15.4628 10.199
15.4780 10.235
15.4932 10.519
15.5084 10.222
15.5235 10.367
15.5387 9.957
15.5539 10.148
15.5691 10.079
15.5842 10.064
15.5994 10.215
15.6146 9.732
15.6298 9.723
15.6449 9.893
15.6601 9.749
15.6753 9.691
15.6905 9.499
15.7056 9.883
15.7208 9.709
15.7360 9.213
15.7512 9.590
15.7663 9.533
15.7815 9.455
15.7967 9.488
15.8119 9.642
15.8270 9.792
15.8422 9.786
15.8574 9.790
15.8726 9.711
15.8877 9.505
15.9029 9.481
15.9181 9.645
15.9333 9.137
15.9484 9.341
15.9636 9.695
15.9788 9.546
15.9940 9.473
16.0091 9.516
16.0243 9.675
16.0395 9.722
16.0547 9.753
16.0698 9.501
16.0850 9.223
16.1002 9.587
16.1154 9.720
16.1305 9.897
16.1457 9.593
16.1609 9.748
16.1761 9.675
16.1912 9.724
16.2064 9.843
16.2216 9.861
16.2368 9.738
16.2519 9.813
16.2671 9.823
16.2823 9.558
16.2975 9.661
16.3126 9.848
16.3278 9.644
16.3430 9.774
16.3582 9.502
16.3733 9.888
16.3885 9.887
16.4037 9.851
16.4189 9.956
16.4340 9.891
16.4492 9.735
16.4644 9.650
16.4796 9.855
16.4947 9.868
16.5099 9.631
16.5251 9.601
16.5403 9.755
16.5554 9.822
16.5706 9.644
16.5858 9.367
16.6010 9.567
16.6161 9.624
16.6313 9.798
16.6465 9.977
16.6617 9.943
16.6768 9.906
16.6920 9.790
16.7072 9.754
16.7224 9.805
16.7375 9.760
16.7527 9.930
16.7679 10.023
16.7831 9.983
16.7982 10.067
16.8134 9.878
16.8286 9.717
16.8438 9.944
16.8589 9.978
16.8741 9.831
16.8893 9.835
16.9045 9.692
16.9196 9.779
16.9348 9.944
16.9500 9.848
16.9652 9.943
16.9803 9.954
16.9955 9.874
17.0107 10.071
17.0259 10.139
17.0410 9.891
17.0562 10.017
17.0714 10.089
17.0866 10.151
17.1017 10.408
17.1169 10.596
17.1321 10.858
17.1473 11.290
17.1624 11.682
17.1776 12.245
17.1928 12.996
17.2080 13.765
17.2231 14.833
17.2383 16.207
17.2535 17.513
17.2687 18.366
17.2838 18.468
17.2990 17.848
17.3142 16.905
17.3294 16.268
17.3445 16.082
17.3597 16.277
17.3749 16.282
17.3901 15.457
17.4052 14.416
17.4204 13.454
17.4356 12.548
17.4508 12.274
17.4659 12.127
17.4811 11.883
17.4963 11.716
17.5115 11.360
17.5266 11.147
17.5418 10.886
17.5570 10.736
17.5722 10.782
17.5873 10.887
17.6025 10.909
17.6177 11.078
17.6329 11.304
17.6480 11.462
17.6632 11.428
17.6784 11.341
17.6936 11.469
17.7087 11.252
17.7239 11.325
17.7391 11.188
17.7543 11.140
17.7694 11.079
17.7846 11.058
17.7998 10.927
17.8150 10.775
17.8301 10.633
17.8453 10.374
17.8605 10.315
17.8757 10.370
17.8908 10.337
17.9060 10.404
17.9212 10.337
17.9364 10.182
17.9515 9.957
17.9667 10.150
17.9819 10.384
17.9971 10.228
18.0122 10.289
18.0274 10.258
18.0426 10.150
18.0578 10.138
18.0729 10.086
18.0881 10.049
18.1033 9.990
18.1185 10.015
18.1336 9.908
18.1488 10.018
18.1640 9.956
18.1792 9.946
18.1943 10.036
18.2095 9.977
18.2247 9.839
18.2399 9.606
18.2550 9.571
18.2702 9.762
18.2854 9.880
18.3006 9.756
18.3157 9.831
18.3309 9.842
18.3461 9.793
18.3613 9.756
18.3764 9.558
18.3916 9.629
18.4068 9.727
18.4220 9.951
18.4371 10.042
18.4523 9.911
18.4675 9.923
18.4827 9.792
18.4978 9.746
18.5130 9.787
18.5282 9.490
18.5434 9.546
18.5585 9.688
18.5737 9.680
18.5889 9.735
18.6041 9.835
18.6192 9.673
18.6344 9.693
18.6496 9.691
18.6648 9.613
18.6799 9.617
18.6951 9.756
18.7103 9.977
18.7255 9.830
18.7406 9.860
18.7558 9.680
18.7710 9.746
18.7862 9.976
18.8013 9.868
18.8165 9.818
18.8317 10.057
18.8469 9.836
18.8620 10.012
18.8772 10.045
18.8924 10.059
18.9076 10.146
18.9227 9.887
18.9379 9.958
18.9531 10.238
18.9683 10.092
18.9834 10.176
18.9986 10.351
19.0138 10.265
19.0290 10.032
19.0441 9.909
19.0593 10.157
19.0745 10.371
19.0897 10.389
19.1048 10.542
19.1200 10.394
19.1352 10.292
19.1504 10.484
19.1655 10.610
19.1807 10.492
19.1959 10.536
19.2111 10.715
19.2262 10.820
19.2414 10.963
19.2566 10.923
19.2718 10.932
19.2869 10.981
19.3021 10.919
19.3173 10.850
19.3325 10.942
19.3476 11.166
19.3628 11.064
19.3780 10.929
19.3932 11.158
19.4083 11.255
19.4235 11.070
19.4387 11.160
19.4539 11.223
19.4690 11.377
19.4842 11.291
19.4994 11.134
19.5146 11.378
19.5297 11.458
19.5449 11.302
19.5601 11.471
19.5753 11.689
19.5904 11.640
19.6056 11.532
19.6208 11.565
19.6360 11.485
19.6511 11.602
19.6663 11.740
19.6815 11.526
19.6967 11.513
19.7118 11.822
19.7270 11.896
19.7422 11.812
19.7574 11.806
19.7725 11.874
19.7877 12.036
19.8029 11.994
19.8180 12.024
19.8332 12.271
19.8484 12.424
19.8636 12.403
19.8787 12.510
19.8939 12.816
19.9091 13.193
19.9243 13.514
19.9394 13.787
19.9546 13.861
19.9698 14.239
19.9850 14.419
20.0001 14.311
20.0153 14.099
20.0305 14.042
20.0457 14.193
20.0608 14.080
20.0760 13.856
20.0912 13.835
20.1064 13.908
20.1215 13.651
20.1367 13.315
20.1519 13.204
20.1671 13.123
20.1822 12.954
20.1974 12.878
20.2126 12.533
20.2278 12.479
20.2429 12.630
20.2581 12.587
20.2733 12.246
20.2885 11.997
20.3036 12.088
20.3188 11.923
20.3340 12.008
20.3492 12.099
20.3643 11.837
20.3795 11.736
20.3947 11.825
20.4099 11.833
20.4250 11.747
20.4402 11.724
20.4554 11.860
20.4706 11.955
20.4857 11.817
20.5009 11.823
20.5161 11.785
20.5313 11.755
20.5464 11.429
20.5616 11.528
20.5768 11.525
20.5920 11.206
20.6071 11.341
20.6223 11.115
20.6375 10.894
20.6527 11.033
20.6678 10.893
20.6830 10.760
20.6982 10.726
20.7134 10.558
20.7285 10.672
20.7437 10.470
20.7589 10.266
20.7741 10.407
20.7892 10.429
20.8044 10.294
20.8196 9.806
20.8348 10.079
20.8499 10.098
20.8651 10.402
20.8803 10.133
20.8955 10.109
20.9106 10.174
20.9258 10.351
20.9410 10.115
20.9562 10.005
20.9713 9.980
20.9865 9.505
21.0017 9.972
21.0169 9.843
21.0320 9.875
21.0472 9.929
21.0624 10.201
21.0776 10.198
21.0927 10.204
21.1079 9.801
21.1231 9.887
21.1383 9.978
21.1534 9.609
21.1686 9.667
21.1838 9.704
21.1990 9.658
21.2141 9.748
21.2293 9.981
21.2445 9.801
21.2597 9.483
21.2748 9.479
21.2900 9.712
21.3052 9.563
21.3204 9.605
21.3355 9.562
21.3507 9.769
21.3659 9.636
21.3811 9.795
21.3962 9.596
21.4114 9.526
21.4266 9.337
21.4418 9.374
21.4569 9.550
21.4721 9.434
21.4873 9.336
21.5025 9.435
21.5176 9.337
21.5328 9.530
21.5480 9.190
21.5632 9.256
21.5783 9.249
21.5935 9.315
21.6087 9.437
21.6239 9.262
21.6390 9.177
21.6542 9.071
21.6694 8.949
21.6846 9.283
21.6997 9.231
21.7149 9.229
21.7301 9.179
21.7453 9.048
21.7604 9.359
21.7756 9.106
21.7908 8.906
21.8060 9.121
21.8211 9.218
21.8363 9.138
21.8515 9.044
21.8667 9.052
21.8818 9.220
21.8970 9.132
21.9122 9.023
21.9274 8.919
21.9425 8.881
21.9577 9.149
21.9729 9.241
21.9881 9.050
22.0032 8.938
22.0184 8.738
22.0336 8.814
22.0488 8.806
22.0639 8.703
22.0791 8.803
22.0943 8.744
22.1095 8.646
22.1246 8.677
22.1398 8.575
22.1550 8.574
22.1702 8.434
22.1853 8.496
22.2005 8.578
22.2157 8.615
22.2309 8.664
22.2460 8.854
22.2612 8.852
22.2764 8.657
22.2916 8.396
22.3067 8.447
22.3219 8.541
22.3371 8.680
22.3523 8.442
22.3674 8.360
22.3826 8.357
22.3978 8.463
22.4130 8.552
22.4281 8.634
22.4433 8.467
22.4585 8.571
22.4737 8.537
22.4888 8.194
22.5040 8.255
22.5192 8.615
22.5344 8.397
22.5495 8.505
22.5647 8.460
22.5799 8.739
22.5951 8.028
22.6102 8.571
22.6254 8.413
22.6406 8.627
22.6558 8.361
22.6709 8.224
22.6861 8.288
22.7013 8.089
22.7165 7.914
22.7316 6.395
