'Id: "" Comment: "" Operator: "Lab Manager" Anode: "Mo" Scantype: "Still (Eiger2R_500K (1D mode))" TimePerStep: "300" X: "11.8" Y: "9.4" Z: "11.284" 
7.2532 19.057
7.2684 18.382
7.2836 18.779
7.2987 18.419
7.3139 18.892
7.3291 18.752
7.3443 19.219
7.3594 19.180
7.3746 18.945
7.3898 19.410
7.4050 19.631
7.4201 19.436
7.4353 18.628
7.4505 19.234
7.4657 19.377
7.4808 19.589
7.4960 19.663
7.5112 19.451
7.5264 19.598
7.5415 19.434
7.5567 19.350
7.5719 19.616
7.5871 19.563
7.6022 19.718
7.6174 19.816
7.6326 20.045
7.6478 20.080
7.6629 20.156
7.6781 20.187
7.6933 20.212
7.7085 20.155
7.7236 20.436
7.7388 20.466
7.7540 20.569
7.7692 20.293
7.7843 20.125
7.7995 20.585
7.8147 20.884
7.8299 20.647
7.8450 20.032
7.8602 20.328
7.8754 20.466
7.8905 20.223
7.9057 20.316
7.9209 20.419
7.9361 20.802
7.9512 20.950
7.9664 20.723
7.9816 20.870
7.9968 20.873
8.0119 20.970
8.0271 20.888
8.0423 20.961
8.0575 21.250
8.0726 20.866
8.0878 20.814
8.1030 21.052
8.1182 21.192
8.1333 21.219
8.1485 21.464
8.1637 21.237
8.1789 21.177
8.1940 21.419
8.2092 21.381
8.2244 21.256
8.2396 21.547
8.2547 21.707
8.2699 21.711
8.2851 21.579
8.3003 21.449
8.3154 21.928
8.3306 21.617
8.3458 21.773
8.3610 21.227
8.3761 21.570
8.3913 21.714
8.4065 21.949
8.4217 21.790
8.4368 21.442
8.4520 21.666
8.4672 21.754
8.4824 21.937
8.4975 21.420
8.5127 21.763
8.5279 21.484
8.5431 21.811
8.5582 22.187
8.5734 22.160
8.5886 21.889
8.6038 22.278
8.6189 21.553
8.6341 21.788
8.6493 22.001
8.6645 21.928
8.6796 22.023
8.6948 22.266
8.7100 22.148
8.7252 22.254
8.7403 22.136
8.7555 22.157
8.7707 22.111
8.7859 22.254
8.8010 22.535
8.8162 22.264
8.8314 22.255
8.8466 22.143
8.8617 22.457
8.8769 22.674
8.8921 22.465
8.9073 22.813
8.9224 23.124
8.9376 22.611
8.9528 22.477
8.9680 22.290
8.9831 22.716
8.9983 22.319
9.0135 22.206
9.0287 22.721
9.0438 22.823
9.0590 22.765
9.0742 22.527
9.0894 22.981
9.1045 22.776
9.1197 22.857
9.1349 22.435
9.1501 22.439
9.1652 22.448
9.1804 23.064
9.1956 22.699
9.2108 22.403
9.2259 22.706
9.2411 22.722
9.2563 22.576
9.2715 22.743
9.2866 22.785
9.3018 22.926
9.3170 23.125
9.3322 22.805
9.3473 22.729
9.3625 22.654
9.3777 22.712
9.3929 22.617
9.4080 22.770
9.4232 22.835
9.4384 22.852
9.4536 22.759
9.4687 23.018
9.4839 22.761
9.4991 22.679
9.5143 23.239
9.5294 23.297
9.5446 23.025
9.5598 22.852
9.5750 22.985
9.5901 22.941
9.6053 22.851
9.6205 23.138
9.6357 23.136
9.6508 23.225
9.6660 23.421
9.6812 23.557
9.6964 23.572
9.7115 23.508
9.7267 23.913
9.7419 24.004
9.7571 24.001
9.7722 23.784
9.7874 23.381
9.8026 23.347
9.8178 23.304
9.8329 23.101
9.8481 23.024
9.8633 23.125
9.8785 22.993
9.8936 22.993
9.9088 23.252
9.9240 23.048
9.9392 22.898
9.9543 22.955
9.9695 23.097
9.9847 23.191
9.9999 22.871
10.0150 22.963
10.0302 22.875
10.0454 22.871
10.0606 22.975
10.0757 23.037
10.0909 23.074
10.1061 23.136
10.1213 23.164
10.1364 23.397
10.1516 23.430
10.1668 23.301
10.1820 22.965
10.1971 22.808
10.2123 22.733
10.2275 22.778
10.2427 22.874
10.2578 22.767
10.2730 22.605
10.2882 22.535
10.3034 22.645
10.3185 22.504
10.3337 22.813
10.3489 23.044
10.3641 22.718
10.3792 22.756
10.3944 22.561
10.4096 22.473
10.4248 22.353
10.4399 22.702
10.4551 22.690
10.4703 22.674
10.4855 22.359
10.5006 22.405
10.5158 22.804
10.5310 22.550
10.5462 22.564
10.5613 22.503
10.5765 22.601
10.5917 22.470
10.6069 22.555
10.6220 22.279
10.6372 22.218
10.6524 22.255
10.6676 22.217
10.6827 22.576
10.6979 22.544
10.7131 22.431
10.7283 22.606
10.7434 22.296
10.7586 21.815
10.7738 21.946
10.7890 22.121
10.8041 22.247
10.8193 22.221
10.8345 22.382
10.8497 22.440
10.8648 22.453
10.8800 22.113
10.8952 22.072
10.9104 22.495
10.9255 21.904
10.9407 21.819
10.9559 21.737
10.9711 21.634
10.9862 22.039
11.0014 21.722
11.0166 21.731
11.0318 21.810
11.0469 21.662
11.0621 21.900
11.0773 21.768
11.0925 21.785
11.1076 21.869
11.1228 22.030
11.1380 21.829
11.1532 21.777
11.1683 21.564
11.1835 21.740
11.1987 21.688
11.2139 21.515
11.2290 21.448
11.2442 21.922
11.2594 21.791
11.2746 21.449
11.2897 21.369
11.3049 21.665
11.3201 21.582
11.3353 21.206
11.3504 20.934
11.3656 21.101
11.3808 20.960
11.3960 21.557
11.4111 21.408
11.4263 21.305
11.4415 21.239
11.4567 20.904
11.4718 20.915
11.4870 21.063
11.5022 21.140
11.5174 21.198
11.5325 21.043
11.5477 21.062
11.5629 21.092
11.5781 20.526
11.5932 20.580
11.6084 20.735
11.6236 20.882
11.6388 20.510
11.6539 20.557
11.6691 20.715
11.6843 20.738
11.6995 20.475
11.7146 20.465
11.7298 20.729
11.7450 20.172
11.7602 20.142
11.7753 20.038
11.7905 19.934
11.8057 19.856
11.8209 19.945
11.8360 20.115
11.8512 20.095
11.8664 19.696
11.8816 19.446
11.8967 19.682
11.9119 19.681
11.9271 19.612
11.9423 19.540
11.9574 19.479
11.9726 19.247
11.9878 19.364
12.0030 19.174
12.0181 19.243
12.0333 19.436
12.0485 18.851
12.0637 18.623
12.0788 18.558
12.0940 18.675
12.1092 18.791
12.1244 18.902
12.1395 18.535
12.1547 18.663
12.1699 18.403
12.1851 18.350
12.2002 18.297
12.2154 18.140
12.2306 18.076
12.2458 17.813
12.2609 17.972
12.2761 18.011
12.2913 17.999
12.3065 17.778
12.3216 17.503
12.3368 17.374
12.3520 17.715
12.3672 17.540
12.3823 17.259
12.3975 17.076
12.4127 17.302
12.4279 17.262
12.4430 16.749
12.4582 16.624
12.4734 16.673
12.4886 16.951
12.5037 16.554
12.5189 16.424
12.5341 16.365
12.5493 16.230
12.5644 16.287
12.5796 16.150
12.5948 16.137
12.6100 16.103
12.6251 15.909
12.6403 16.034
12.6555 15.864
12.6707 15.833
12.6858 15.534
12.7010 15.740
12.7162 15.700
12.7314 15.268
12.7465 15.439
12.7617 15.175
12.7769 14.977
12.7921 15.333
12.8072 15.298
12.8224 15.237
12.8376 15.117
12.8528 14.909
12.8679 14.650
12.8831 14.662
12.8983 14.694
12.9135 14.553
12.9286 14.695
12.9438 14.365
12.9590 14.288
12.9742 14.280
12.9893 14.146
13.0045 14.654
13.0197 14.566
13.0349 14.033
13.0500 13.970
13.0652 13.742
13.0804 13.757
13.0956 13.754
13.1107 13.542
13.1259 13.579
13.1411 13.654
13.1563 13.505
13.1714 13.376
13.1866 13.264
13.2018 13.164
13.2170 13.487
13.2321 13.525
13.2473 13.263
13.2625 13.254
13.2777 13.296
13.2928 13.151
13.3080 13.090
13.3232 13.116
13.3384 13.071
13.3535 12.982
13.3687 12.918
13.3839 12.907
13.3991 12.938
13.4142 12.924
13.4294 12.998
13.4446 12.962
13.4598 12.675
13.4749 12.519
13.4901 12.480
13.5053 12.459
13.5205 12.260
13.5356 12.329
13.5508 12.142
13.5660 12.031
13.5812 12.135
13.5963 12.157
13.6115 12.159
13.6267 11.941
13.6419 12.114
13.6570 12.102
13.6722 11.976
13.6874 11.883
13.7026 12.091
13.7177 12.296
13.7329 12.003
13.7481 11.989
13.7633 12.087
13.7784 12.112
13.7936 12.165
13.8088 12.221
13.8239 12.138
13.8391 12.193
13.8543 12.310
13.8695 12.166
13.8846 12.330
13.8998 12.359
13.9150 12.044
13.9302 11.858
13.9453 11.819
13.9605 12.029
13.9757 11.850
13.9909 11.601
14.0060 11.696
14.0212 11.634
14.0364 11.479
14.0516 11.821
14.0667 11.882
14.0819 11.862
14.0971 11.521
14.1123 11.773
14.1274 11.684
14.1426 11.462
14.1578 11.647
14.1730 11.710
14.1881 11.729
14.2033 11.707
14.2185 11.843
14.2337 12.169
14.2488 12.012
14.2640 11.784
14.2792 12.033
14.2944 12.045
14.3095 12.137
14.3247 11.825
14.3399 12.187
14.3551 12.243
14.3702 12.550
14.3854 12.996
14.4006 12.601
14.4158 12.999
14.4309 12.992
14.4461 12.939
14.4613 12.643
14.4765 12.543
14.4916 12.124
14.5068 11.941
14.5220 11.742
14.5372 11.421
14.5523 11.214
14.5675 11.098
14.5827 11.232
14.5979 10.765
14.6130 10.489
14.6282 10.517
14.6434 10.725
14.6586 10.638
14.6737 10.897
14.6889 10.949
14.7041 10.677
14.7193 10.814
14.7344 10.779
14.7496 10.806
14.7648 10.553
14.7800 10.693
14.7951 10.580
14.8103 10.606
14.8255 10.435
14.8407 10.222
14.8558 10.511
14.8710 10.405
14.8862 10.646
14.9014 10.497
14.9165 10.822
14.9317 10.662
14.9469 10.278
14.9621 10.258
14.9772 10.099
14.9924 10.077
15.0076 10.509
15.0228 10.580
15.0379 10.447
15.0531 10.124
15.0683 9.952
15.0835 10.296
15.0986 10.204
15.1138 10.263
15.1290 10.135
15.1442 9.871
15.1593 10.116
15.1745 10.307
15.1897 10.073
15.2049 10.184
15.2200 10.006
15.2352 10.245
15.2504 10.103
15.2656 9.868
15.2807 10.067
15.2959 10.057
15.3111 10.029
15.3263 10.155
15.3414 10.065
15.3566 10.240
15.3718 9.940
15.3870 10.385
15.4021 9.910
15.4173 10.069
15.4325 9.933
15.4477 10.083
15.4628 10.287
15.4780 10.042
15.4932 10.398
15.5084 9.843
15.5235 10.074
15.5387 9.789
15.5539 9.957
15.5691 10.136
15.5842 9.862
15.5994 9.830
15.6146 10.049
15.6298 9.948
15.6449 9.804
15.6601 9.924
15.6753 9.874
15.6905 9.718
15.7056 9.360
15.7208 9.671
15.7360 9.810
15.7512 9.891
15.7663 9.537
15.7815 9.602
15.7967 9.268
15.8119 9.664
15.8270 9.899
15.8422 9.757
15.8574 9.917
15.8726 9.802
15.8877 9.659
15.9029 9.517
15.9181 9.466
15.9333 9.840
15.9484 9.691
15.9636 9.752
15.9788 9.716
15.9940 9.658
16.0091 9.636
16.0243 9.426
16.0395 9.637
16.0547 9.570
16.0698 9.488
16.0850 9.702
16.1002 9.549
16.1154 9.415
16.1305 9.439
16.1457 9.373
16.1609 9.378
16.1761 9.323
16.1912 9.435
16.2064 9.532
16.2216 9.399
16.2368 9.476
16.2519 9.547
16.2671 9.492
16.2823 9.581
16.2975 9.611
16.3126 9.387
16.3278 9.708
16.3430 9.831
16.3582 9.551
16.3733 9.799
16.3885 9.688
16.4037 9.804
16.4189 9.790
16.4340 9.562
16.4492 9.715
16.4644 9.813
16.4796 9.836
16.4947 9.560
16.5099 9.453
16.5251 9.663
16.5403 9.675
16.5554 9.741
16.5706 9.710
16.5858 9.638
16.6010 9.683
16.6161 9.723
16.6313 9.575
16.6465 9.646
16.6617 9.748
16.6768 9.689
16.6920 9.759
16.7072 9.851
16.7224 9.987
16.7375 10.085
16.7527 10.105
16.7679 9.947
16.7831 9.892
16.7982 9.822
16.8134 9.735
16.8286 9.732
16.8438 9.665
16.8589 9.766
16.8741 9.732
16.8893 9.638
16.9045 9.636
16.9196 9.802
16.9348 9.812
16.9500 9.787
16.9652 9.847
16.9803 9.748
16.9955 9.712
17.0107 9.737
17.0259 9.656
17.0410 9.664
17.0562 10.073
17.0714 10.289
17.0866 10.215
17.1017 10.433
17.1169 10.731
17.1321 10.878
17.1473 11.048
17.1624 11.685
17.1776 12.323
17.1928 13.035
17.2080 13.968
17.2231 14.967
17.2383 16.223
17.2535 17.600
17.2687 18.632
17.2838 18.900
17.2990 18.286
17.3142 17.343
17.3294 16.486
17.3445 16.123
17.3597 16.270
17.3749 16.077
17.3901 15.385
17.4052 14.314
17.4204 13.206
17.4356 12.392
17.4508 12.114
17.4659 11.946
17.4811 11.504
17.4963 11.176
17.5115 11.029
17.5266 11.051
17.5418 10.990
17.5570 10.912
17.5722 10.826
17.5873 10.856
17.6025 11.205
17.6177 11.218
17.6329 11.048
17.6480 11.391
17.6632 11.415
17.6784 11.183
17.6936 11.318
17.7087 11.253
17.7239 11.270
17.7391 11.316
17.7543 11.179
17.7694 10.911
17.7846 10.848
17.7998 11.007
17.8150 10.808
17.8301 10.581
17.8453 10.406
17.8605 10.259
17.8757 10.435
17.8908 10.433
17.9060 10.248
17.9212 10.102
17.9364 10.029
17.9515 9.998
17.9667 10.077
17.9819 10.327
17.9971 10.193
18.0122 9.904
18.0274 10.115
18.0426 10.419
18.0578 10.153
18.0729 10.090
18.0881 9.907
18.1033 9.928
18.1185 10.046
18.1336 9.996
18.1488 10.086
18.1640 10.118
18.1792 9.849
18.1943 9.975
18.2095 10.069
18.2247 9.956
18.2399 9.798
18.2550 9.697
18.2702 9.690
18.2854 9.832
18.3006 9.871
18.3157 9.918
18.3309 9.927
18.3461 9.804
18.3613 9.765
18.3764 9.746
18.3916 9.862
18.4068 9.745
18.4220 9.724
18.4371 9.949
18.4523 10.042
18.4675 9.875
18.4827 9.730
18.4978 9.730
18.5130 9.599
18.5282 9.480
18.5434 9.689
18.5585 9.788
18.5737 9.692
18.5889 9.667
18.6041 9.654
18.6192 9.727
18.6344 9.663
18.6496 9.657
18.6648 9.817
18.6799 9.791
18.6951 9.774
18.7103 9.779
18.7255 9.766
18.7406 9.841
18.7558 9.966
18.7710 9.622
18.7862 9.616
18.8013 9.918
18.8165 10.005
18.8317 9.883
18.8469 9.832
18.8620 9.954
18.8772 10.065
18.8924 10.017
18.9076 9.863
18.9227 9.795
18.9379 9.973
18.9531 10.056
18.9683 10.089
18.9834 10.032
18.9986 10.164
19.0138 10.355
19.0290 10.167
19.0441 10.192
19.0593 10.532
19.0745 10.396
19.0897 10.422
19.1048 10.170
19.1200 10.082
19.1352 10.263
19.1504 10.393
19.1655 10.500
19.1807 10.590
19.1959 10.540
19.2111 10.715
19.2262 10.689
19.2414 10.824
19.2566 10.858
19.2718 10.846
19.2869 10.900
19.3021 10.765
19.3173 10.775
19.3325 10.880
19.3476 10.997
19.3628 11.057
19.3780 11.059
19.3932 11.295
19.4083 11.209
19.4235 11.117
19.4387 11.299
19.4539 11.166
19.4690 11.286
19.4842 11.432
19.4994 11.443
19.5146 11.291
19.5297 11.683
19.5449 11.803
19.5601 11.509
19.5753 11.773
19.5904 11.592
19.6056 11.467
19.6208 11.766
19.6360 11.782
19.6511 11.685
19.6663 11.640
19.6815 11.641
19.6967 11.498
19.7118 11.495
19.7270 11.620
19.7422 11.711
19.7574 11.697
19.7725 11.649
19.7877 11.615
19.8029 11.628
19.8180 11.847
19.8332 12.153
19.8484 12.349
19.8636 12.520
19.8787 12.606
19.8939 12.824
19.9091 13.007
19.9243 13.362
19.9394 13.857
19.9546 14.155
19.9698 14.331
19.9850 14.364
20.0001 14.359
20.0153 14.101
20.0305 13.773
20.0457 13.635
20.0608 13.711
20.0760 13.810
20.0912 13.848
20.1064 13.922
20.1215 13.451
20.1367 13.143
20.1519 12.987
20.1671 13.215
20.1822 13.062
20.1974 12.738
20.2126 12.797
20.2278 12.937
20.2429 12.807
20.2581 12.389
20.2733 12.142
20.2885 12.194
20.3036 11.988
20.3188 12.107
20.3340 12.095
20.3492 11.976
20.3643 11.944
20.3795 12.000
20.3947 11.868
20.4099 11.744
20.4250 11.889
20.4402 12.001
20.4554 11.948
20.4706 11.879
20.4857 11.653
20.5009 11.463
20.5161 11.559
20.5313 11.628
20.5464 11.550
20.5616 11.417
20.5768 11.614
20.5920 11.117
20.6071 10.597
20.6223 10.874
20.6375 10.529
20.6527 10.506
20.6678 10.689
20.6830 10.865
20.6982 10.546
20.7134 10.371
20.7285 10.310
20.7437 10.726
20.7589 10.497
20.7741 10.674
20.7892 10.335
20.8044 10.333
20.8196 10.340
20.8348 10.312
20.8499 10.331
20.8651 10.247
20.8803 10.435
20.8955 9.986
20.9106 10.353
20.9258 10.062
20.9410 10.133
20.9562 10.315
20.9713 10.364
20.9865 10.463
21.0017 10.111
21.0169 9.933
21.0320 10.001
21.0472 9.841
21.0624 9.930
21.0776 10.086
21.0927 10.188
21.1079 9.809
21.1231 9.980
21.1383 9.689
21.1534 10.000
21.1686 9.935
21.1838 9.893
21.1990 9.640
21.2141 9.893
21.2293 9.612
21.2445 9.525
21.2597 9.696
21.2748 9.676
21.2900 9.601
21.3052 9.663
21.3204 9.536
21.3355 9.760
21.3507 9.586
21.3659 9.429
21.3811 9.556
21.3962 9.405
21.4114 9.267
21.4266 9.581
21.4418 9.663
21.4569 9.409
21.4721 9.480
21.4873 9.397
21.5025 9.429
21.5176 9.314
21.5328 9.141
21.5480 9.161
21.5632 9.322
21.5783 9.306
21.5935 9.627
21.6087 9.300
21.6239 9.411
21.6390 9.116
21.6542 9.301
21.6694 9.044
21.6846 9.079
21.6997 9.073
21.7149 8.985
21.7301 9.058
21.7453 9.015
21.7604 9.141
21.7756 8.995
21.7908 8.855
21.8060 8.844
21.8211 9.037
21.8363 9.042
21.8515 9.075
21.8667 8.894
21.8818 9.045
21.8970 9.083
21.9122 9.102
21.9274 9.004
21.9425 8.828
21.9577 8.804
21.9729 9.128
21.9881 9.081
22.0032 8.945
22.0184 9.011
22.0336 8.773
22.0488 8.718
22.0639 8.748
22.0791 8.748
22.0943 8.927
22.1095 8.888
22.1246 8.690
22.1398 8.674
22.1550 8.600
22.1702 8.530
22.1853 8.569
22.2005 8.802
22.2157 8.725
22.2309 8.432
22.2460 8.499
22.2612 8.436
22.2764 8.478
22.2916 8.706
22.3067 8.650
22.3219 8.484
22.3371 8.422
22.3523 8.615
22.3674 8.450
22.3826 8.523
22.3978 8.558
22.4130 8.558
22.4281 8.281
22.4433 8.268
22.4585 8.612
22.4737 8.522
22.4888 8.508
22.5040 8.514
22.5192 8.145
22.5344 8.417
22.5495 8.556
22.5647 8.318
22.5799 8.608
22.5951 8.178
22.6102 8.339
22.6254 8.477
22.6406 8.226
22.6558 8.238
22.6709 8.304
22.6861 8.158
22.7013 8.308
22.7165 8.038
22.7316 6.317
