'Id: "" Comment: "" Operator: "Lab Manager" Anode: "Mo" Scantype: "Still (Eiger2R_500K (1D mode))" TimePerStep: "300" X: "11.8" Y: "9.4" Z: "11.284" 
7.2532 18.512
7.2684 18.786
7.2836 18.830
7.2987 18.745
7.3139 19.072
7.3291 19.310
7.3443 18.890
7.3594 19.324
7.3746 19.240
7.3898 19.169
7.4050 19.166
7.4201 19.512
7.4353 19.427
7.4505 19.537
7.4657 19.526
7.4808 19.741
7.4960 19.879
7.5112 19.865
7.5264 20.252
7.5415 19.399
7.5567 19.833
7.5719 19.480
7.5871 19.688
7.6022 19.840
7.6174 20.276
7.6326 20.245
7.6478 19.988
7.6629 20.204
7.6781 20.146
7.6933 20.131
7.7085 20.205
7.7236 20.394
7.7388 20.500
7.7540 20.632
7.7692 20.218
7.7843 20.341
7.7995 20.606
7.8147 20.765
7.8299 20.805
7.8450 20.848
7.8602 20.873
7.8754 20.728
7.8905 20.920
7.9057 21.240
7.9209 21.329
7.9361 21.493
7.9512 21.156
7.9664 20.877
7.9816 21.048
7.9968 21.009
8.0119 20.959
8.0271 21.109
8.0423 21.304
8.0575 20.900
8.0726 21.192
8.0878 21.510
8.1030 21.367
8.1182 21.635
8.1333 21.394
8.1485 21.539
8.1637 21.513
8.1789 21.395
8.1940 21.273
8.2092 21.115
8.2244 21.193
8.2396 21.556
8.2547 21.725
8.2699 21.607
8.2851 21.812
8.3003 21.735
8.3154 21.736
8.3306 22.154
8.3458 22.003
8.3610 21.567
8.3761 21.901
8.3913 21.997
8.4065 22.330
8.4217 22.250
8.4368 22.069
8.4520 22.261
8.4672 21.910
8.4824 22.023
8.4975 22.262
8.5127 22.338
8.5279 22.069
8.5431 21.654
8.5582 22.370
8.5734 22.192
8.5886 22.225
8.6038 22.257
8.6189 22.448
8.6341 22.201
8.6493 22.804
8.6645 22.594
8.6796 22.649
8.6948 22.392
8.7100 22.462
8.7252 22.457
8.7403 22.401
8.7555 22.901
8.7707 22.853
8.7859 22.720
8.8010 22.719
8.8162 22.728
8.8314 22.899
8.8466 22.988
8.8617 22.877
8.8769 22.680
8.8921 22.986
8.9073 22.467
8.9224 22.874
8.9376 22.992
8.9528 22.505
8.9680 22.720
8.9831 22.507
8.9983 22.473
9.0135 22.623
9.0287 22.888
9.0438 22.902
9.0590 23.568
9.0742 23.362
9.0894 22.940
9.1045 22.970
9.1197 23.068
9.1349 23.082
9.1501 22.865
9.1652 22.970
9.1804 23.128
9.1956 23.435
9.2108 23.180
9.2259 22.746
9.2411 22.981
9.2563 23.410
9.2715 23.441
9.2866 22.972
9.3018 22.886
9.3170 23.263
9.3322 23.456
9.3473 22.992
9.3625 22.883
9.3777 22.778
9.3929 22.750
9.4080 22.955
9.4232 23.013
9.4384 23.256
9.4536 23.168
9.4687 23.052
9.4839 23.076
9.4991 23.361
9.5143 23.294
9.5294 22.903
9.5446 23.220
9.5598 23.651
9.5750 23.480
9.5901 23.391
9.6053 23.518
9.6205 23.480
9.6357 23.865
9.6508 24.084
9.6660 23.736
9.6812 23.744
9.6964 23.870
9.7115 23.981
9.7267 24.255
9.7419 24.063
9.7571 23.801
9.7722 24.005
9.7874 24.147
9.8026 23.879
9.8178 23.722
9.8329 23.781
9.8481 23.588
9.8633 23.329
9.8785 23.401
9.8936 23.648
9.9088 23.268
9.9240 23.406
9.9392 23.665
9.9543 23.410
9.9695 23.388
9.9847 23.427
9.9999 23.381
10.0150 23.052
10.0302 23.155
10.0454 23.617
10.0606 23.357
10.0757 23.096
10.0909 23.489
10.1061 23.442
10.1213 23.254
10.1364 23.330
10.1516 23.142
10.1668 23.082
10.1820 23.347
10.1971 23.664
10.2123 23.457
10.2275 23.407
10.2427 23.416
10.2578 23.240
10.2730 23.271
10.2882 23.317
10.3034 23.279
10.3185 23.362
10.3337 23.370
10.3489 23.262
10.3641 23.090
10.3792 23.021
10.3944 23.264
10.4096 23.111
10.4248 22.738
10.4399 23.119
10.4551 23.138
10.4703 22.857
10.4855 22.790
10.5006 22.982
10.5158 22.815
10.5310 22.731
10.5462 22.515
10.5613 22.459
10.5765 22.742
10.5917 22.681
10.6069 22.817
10.6220 22.855
10.6372 22.538
10.6524 22.758
10.6676 22.662
10.6827 22.492
10.6979 22.366
10.7131 22.813
10.7283 22.665
10.7434 22.752
10.7586 22.369
10.7738 21.953
10.7890 22.119
10.8041 22.366
10.8193 22.220
10.8345 22.263
10.8497 22.389
10.8648 22.332
10.8800 21.915
10.8952 22.127
10.9104 22.353
10.9255 22.490
10.9407 22.198
10.9559 21.825
10.9711 21.988
10.9862 22.278
11.0014 22.150
11.0166 22.127
11.0318 22.016
11.0469 22.274
11.0621 22.378
11.0773 22.282
11.0925 22.305
11.1076 22.088
11.1228 22.125
11.1380 22.216
11.1532 21.763
11.1683 21.873
11.1835 21.939
11.1987 21.968
11.2139 21.997
11.2290 21.584
11.2442 21.758
11.2594 22.443
11.2746 21.879
11.2897 21.705
11.3049 21.846
11.3201 21.939
11.3353 21.574
11.3504 21.706
11.3656 21.803
11.3808 21.583
11.3960 21.337
11.4111 21.288
11.4263 21.238
11.4415 21.222
11.4567 20.875
11.4718 20.833
11.4870 21.052
11.5022 21.013
11.5174 21.200
11.5325 21.273
11.5477 20.700
11.5629 20.952
11.5781 21.065
11.5932 20.980
11.6084 20.998
11.6236 20.944
11.6388 20.906
11.6539 21.196
11.6691 20.725
11.6843 20.748
11.6995 20.826
11.7146 20.758
11.7298 20.795
11.7450 20.373
11.7602 20.250
11.7753 20.215
11.7905 20.083
11.8057 20.290
11.8209 20.544
11.8360 20.007
11.8512 19.782
11.8664 19.892
11.8816 20.017
11.8967 20.184
11.9119 20.209
11.9271 19.641
11.9423 19.697
11.9574 19.769
11.9726 19.819
11.9878 19.603
12.0030 19.126
12.0181 19.393
12.0333 19.336
12.0485 19.240
12.0637 19.330
12.0788 19.054
12.0940 19.063
12.1092 18.958
12.1244 19.104
12.1395 19.103
12.1547 18.451
12.1699 18.485
12.1851 18.682
12.2002 18.598
12.2154 18.548
12.2306 18.050
12.2458 17.814
12.2609 17.841
12.2761 18.000
12.2913 17.872
12.3065 17.954
12.3216 17.855
12.3368 17.661
12.3520 17.486
12.3672 17.258
12.3823 17.325
12.3975 17.576
12.4127 17.378
12.4279 17.549
12.4430 17.498
12.4582 17.231
12.4734 17.023
12.4886 16.841
12.5037 16.895
12.5189 16.813
12.5341 16.808
12.5493 16.648
12.5644 16.413
12.5796 16.202
12.5948 16.122
12.6100 16.261
12.6251 16.237
12.6403 16.318
12.6555 16.223
12.6707 16.118
12.6858 15.910
12.7010 15.639
12.7162 15.777
12.7314 15.950
12.7465 15.417
12.7617 15.274
12.7769 15.599
12.7921 15.523
12.8072 15.515
12.8224 15.500
12.8376 15.121
12.8528 15.092
12.8679 15.440
12.8831 15.444
12.8983 14.981
12.9135 14.746
12.9286 14.805
12.9438 15.039
12.9590 14.823
12.9742 14.525
12.9893 14.571
13.0045 14.406
13.0197 14.329
13.0349 14.240
13.0500 14.063
13.0652 14.016
13.0804 14.145
13.0956 14.164
13.1107 13.994
13.1259 13.955
13.1411 13.954
13.1563 13.844
13.1714 13.584
13.1866 13.530
13.2018 13.518
13.2170 13.427
13.2321 13.444
13.2473 13.337
13.2625 13.232
13.2777 13.401
13.2928 13.507
13.3080 13.368
13.3232 13.356
13.3384 13.337
13.3535 13.220
13.3687 13.120
13.3839 13.056
13.3991 13.024
13.4142 13.132
13.4294 13.090
13.4446 12.997
13.4598 12.943
13.4749 12.873
13.4901 12.865
13.5053 12.980
13.5205 12.839
13.5356 12.510
13.5508 12.252
13.5660 12.280
13.5812 12.394
13.5963 12.388
13.6115 12.446
13.6267 12.273
13.6419 12.214
13.6570 12.335
13.6722 12.441
13.6874 12.412
13.7026 12.380
13.7177 12.445
13.7329 12.232
13.7481 11.939
13.7633 12.155
13.7784 12.090
13.7936 12.050
13.8088 12.007
13.8239 12.367
13.8391 12.438
13.8543 12.176
13.8695 12.416
13.8846 12.686
13.8998 12.343
13.9150 11.960
13.9302 11.906
13.9453 11.976
13.9605 11.921
13.9757 11.717
13.9909 11.640
14.0060 11.831
14.0212 11.783
14.0364 11.817
14.0516 11.815
14.0667 11.618
14.0819 11.654
14.0971 11.368
14.1123 11.456
14.1274 11.418
14.1426 11.456
14.1578 11.751
14.1730 11.762
14.1881 11.854
14.2033 11.529
14.2185 11.562
14.2337 11.446
14.2488 11.652
14.2640 11.901
14.2792 11.630
14.2944 11.923
14.3095 11.939
14.3247 12.295
14.3399 12.157
14.3551 12.191
14.3702 12.405
14.3854 12.495
14.4006 12.314
14.4158 12.825
14.4309 12.560
14.4461 12.286
14.4613 11.942
14.4765 11.831
14.4916 12.110
14.5068 11.776
14.5220 11.986
14.5372 11.696
14.5523 11.287
14.5675 11.149
14.5827 11.098
14.5979 11.193
14.6130 10.974
14.6282 10.999
14.6434 11.169
14.6586 11.193
14.6737 11.098
14.6889 11.207
14.7041 10.771
14.7193 10.992
14.7344 11.034
14.7496 10.771
14.7648 11.088
14.7800 10.796
14.7951 10.633
14.8103 10.642
14.8255 10.809
14.8407 10.642
14.8558 10.946
14.8710 10.730
14.8862 10.962
14.9014 10.830
14.9165 11.179
14.9317 11.161
14.9469 10.780
14.9621 10.840
14.9772 10.546
14.9924 10.203
15.0076 10.399
15.0228 10.212
15.0379 10.898
15.0531 10.624
15.0683 10.632
15.0835 10.712
15.0986 10.527
15.1138 10.462
15.1290 10.562
15.1442 10.222
15.1593 10.480
15.1745 10.230
15.1897 10.462
15.2049 10.881
15.2200 10.231
15.2352 10.107
15.2504 10.197
15.2656 10.310
15.2807 10.231
15.2959 10.073
15.3111 10.317
15.3263 10.287
15.3414 10.483
15.3566 10.585
15.3718 10.425
15.3870 10.303
15.4021 10.533
15.4173 10.663
15.4325 10.552
15.4477 10.412
15.4628 10.345
15.4780 10.424
15.4932 10.306
15.5084 10.458
15.5235 10.698
15.5387 10.459
15.5539 10.225
15.5691 10.033
15.5842 10.329
15.5994 9.784
15.6146 10.156
15.6298 10.322
15.6449 10.177
15.6601 10.106
15.6753 10.015
15.6905 9.936
15.7056 10.119
15.7208 10.146
15.7360 9.864
15.7512 9.868
15.7663 9.805
15.7815 9.770
15.7967 9.756
15.8119 9.851
15.8270 9.930
15.8422 9.649
15.8574 9.858
15.8726 9.737
15.8877 9.955
15.9029 9.727
15.9181 9.647
15.9333 9.740
15.9484 9.780
15.9636 9.881
15.9788 9.952
15.9940 10.087
16.0091 10.026
16.0243 9.770
16.0395 9.705
16.0547 9.910
16.0698 9.710
16.0850 9.663
16.1002 9.649
16.1154 9.813
16.1305 9.692
16.1457 9.755
16.1609 9.923
16.1761 9.859
16.1912 9.773
16.2064 9.776
16.2216 9.705
16.2368 9.734
16.2519 9.586
16.2671 10.112
16.2823 10.241
16.2975 10.174
16.3126 9.933
16.3278 10.010
16.3430 9.874
16.3582 10.043
16.3733 10.204
16.3885 10.143
16.4037 10.221
16.4189 10.028
16.4340 10.050
16.4492 10.038
16.4644 9.908
16.4796 9.936
16.4947 9.934
16.5099 9.890
16.5251 9.779
16.5403 9.636
16.5554 9.632
16.5706 9.830
16.5858 9.815
16.6010 9.870
16.6161 9.795
16.6313 9.863
16.6465 10.062
16.6617 9.979
16.6768 9.764
16.6920 9.801
16.7072 10.106
16.7224 10.032
16.7375 10.077
16.7527 10.297
16.7679 10.121
16.7831 10.104
16.7982 10.159
16.8134 9.885
16.8286 9.832
16.8438 9.980
16.8589 10.004
16.8741 10.073
16.8893 9.981
16.9045 9.692
16.9196 9.584
16.9348 9.853
16.9500 9.908
16.9652 9.970
16.9803 10.303
16.9955 10.184
17.0107 10.032
17.0259 9.970
17.0410 10.032
17.0562 10.194
17.0714 10.501
17.0866 10.527
17.1017 10.726
17.1169 10.983
17.1321 11.032
17.1473 11.254
17.1624 11.919
17.1776 12.746
17.1928 13.376
17.2080 14.413
17.2231 15.257
17.2383 16.539
17.2535 17.915
17.2687 18.593
17.2838 18.710
17.2990 18.172
17.3142 17.153
17.3294 16.505
17.3445 16.358
17.3597 16.262
17.3749 16.182
17.3901 15.395
17.4052 14.339
17.4204 13.250
17.4356 12.259
17.4508 11.947
17.4659 11.825
17.4811 11.570
17.4963 11.385
17.5115 11.297
17.5266 11.167
17.5418 11.152
17.5570 11.097
17.5722 11.134
17.5873 11.359
17.6025 11.363
17.6177 11.208
17.6329 10.733
17.6480 10.488
17.6632 10.572
17.6784 10.693
17.6936 10.564
17.7087 10.425
17.7239 10.512
17.7391 10.400
17.7543 10.281
17.7694 10.287
17.7846 10.357
17.7998 10.291
17.8150 10.262
17.8301 10.098
17.8453 10.029
17.8605 10.224
17.8757 10.359
17.8908 10.250
17.9060 10.391
17.9212 10.449
17.9364 10.126
17.9515 10.054
17.9667 10.167
17.9819 10.134
17.9971 10.065
18.0122 10.257
18.0274 10.194
18.0426 10.139
18.0578 10.213
18.0729 10.241
18.0881 10.212
18.1033 10.120
18.1185 10.025
18.1336 10.004
18.1488 9.986
18.1640 9.960
18.1792 9.980
18.1943 10.038
18.2095 10.054
18.2247 10.177
18.2399 10.002
18.2550 9.804
18.2702 9.672
18.2854 9.642
18.3006 9.838
18.3157 9.906
18.3309 9.848
18.3461 9.756
18.3613 9.923
18.3764 9.818
18.3916 9.725
18.4068 9.854
18.4220 10.076
18.4371 10.041
18.4523 9.841
18.4675 9.884
18.4827 9.971
18.4978 10.115
18.5130 9.945
18.5282 9.798
18.5434 9.625
18.5585 9.747
18.5737 9.890
18.5889 9.767
18.6041 9.610
18.6192 9.588
18.6344 9.683
18.6496 9.720
18.6648 9.870
18.6799 9.848
18.6951 9.809
18.7103 9.846
18.7255 9.774
18.7406 9.735
18.7558 9.804
18.7710 9.948
18.7862 10.029
18.8013 9.809
18.8165 9.694
18.8317 9.834
18.8469 9.872
18.8620 9.827
18.8772 9.870
18.8924 9.835
18.9076 9.558
18.9227 9.739
18.9379 10.032
18.9531 10.177
18.9683 10.177
18.9834 10.036
18.9986 10.016
19.0138 9.978
19.0290 10.048
19.0441 10.067
19.0593 10.156
19.0745 10.408
19.0897 10.239
19.1048 10.178
19.1200 10.292
19.1352 10.392
19.1504 10.369
19.1655 10.559
19.1807 10.692
19.1959 10.821
19.2111 10.761
19.2262 10.575
19.2414 10.699
19.2566 10.764
19.2718 10.660
19.2869 10.770
19.3021 10.983
19.3173 11.072
19.3325 11.115
19.3476 11.161
19.3628 11.098
19.3780 10.896
19.3932 10.889
19.4083 11.186
19.4235 11.198
19.4387 11.006
19.4539 11.063
19.4690 11.273
19.4842 11.510
19.4994 11.631
19.5146 11.486
19.5297 11.619
19.5449 11.957
19.5601 11.740
19.5753 11.535
19.5904 11.539
19.6056 11.629
19.6208 11.790
19.6360 11.734
19.6511 11.626
19.6663 11.659
19.6815 11.745
19.6967 11.765
19.7118 11.866
19.7270 11.824
19.7422 11.698
19.7574 11.675
19.7725 11.757
19.7877 11.890
19.8029 11.771
19.8180 12.034
19.8332 12.681
19.8484 12.479
19.8636 12.294
19.8787 12.470
19.8939 12.668
19.9091 13.026
19.9243 13.633
19.9394 13.827
19.9546 13.764
19.9698 14.426
19.9850 14.724
20.0001 14.438
20.0153 14.209
20.0305 14.092
20.0457 13.866
20.0608 13.857
20.0760 13.987
20.0912 13.905
20.1064 13.697
20.1215 13.515
20.1367 13.345
20.1519 12.994
20.1671 12.893
20.1822 12.931
20.1974 12.870
20.2126 12.886
20.2278 12.799
20.2429 12.641
20.2581 12.424
20.2733 12.074
20.2885 11.975
20.3036 11.814
20.3188 11.642
20.3340 11.755
20.3492 11.731
20.3643 11.353
20.3795 11.161
20.3947 11.200
20.4099 11.005
20.4250 11.014
20.4402 11.033
20.4554 10.865
20.4706 10.712
20.4857 10.845
20.5009 10.831
20.5161 10.876
20.5313 10.754
20.5464 10.503
20.5616 10.514
20.5768 10.471
20.5920 10.504
20.6071 10.413
20.6223 10.521
20.6375 10.734
20.6527 10.857
20.6678 10.974
20.6830 10.423
20.6982 10.388
20.7134 10.357
20.7285 10.559
20.7437 10.628
20.7589 10.618
20.7741 10.795
20.7892 10.694
20.8044 10.662
20.8196 10.490
20.8348 9.959
20.8499 10.051
20.8651 9.954
20.8803 9.786
20.8955 10.211
20.9106 10.179
20.9258 10.111
20.9410 10.236
20.9562 10.173
20.9713 10.242
20.9865 9.823
21.0017 9.902
21.0169 10.053
21.0320 9.771
21.0472 9.932
21.0624 9.980
21.0776 10.305
21.0927 9.964
21.1079 10.081
21.1231 9.681
21.1383 9.504
21.1534 9.720
21.1686 9.734
21.1838 9.879
21.1990 9.840
21.2141 9.683
21.2293 9.436
21.2445 9.426
21.2597 9.792
21.2748 9.524
21.2900 9.675
21.3052 9.621
21.3204 9.684
21.3355 9.502
21.3507 9.532
21.3659 9.545
21.3811 9.430
21.3962 9.508
21.4114 9.354
21.4266 9.368
21.4418 9.530
21.4569 9.698
21.4721 9.601
21.4873 9.413
21.5025 9.388
21.5176 9.416
21.5328 9.314
21.5480 9.291
21.5632 9.465
21.5783 9.542
21.5935 9.069
21.6087 9.367
21.6239 9.219
21.6390 9.075
21.6542 9.015
21.6694 9.206
21.6846 9.353
21.6997 9.111
21.7149 9.095
21.7301 9.356
21.7453 9.216
21.7604 9.037
21.7756 9.027
21.7908 8.876
21.8060 8.975
21.8211 9.180
21.8363 9.218
21.8515 9.242
21.8667 9.082
21.8818 9.025
21.8970 9.131
21.9122 9.120
21.9274 9.134
21.9425 9.129
21.9577 9.086
21.9729 9.185
21.9881 9.121
22.0032 8.975
22.0184 8.972
22.0336 8.936
22.0488 9.062
22.0639 9.006
22.0791 8.828
22.0943 8.761
22.1095 8.690
22.1246 8.694
22.1398 8.793
22.1550 8.794
22.1702 8.868
22.1853 9.032
22.2005 8.756
22.2157 8.419
22.2309 8.594
22.2460 8.645
22.2612 8.658
22.2764 8.661
22.2916 8.582
22.3067 8.426
22.3219 8.803
22.3371 8.891
22.3523 8.597
22.3674 8.666
22.3826 8.587
22.3978 8.615
22.4130 8.503
22.4281 8.385
22.4433 8.326
22.4585 8.610
22.4737 8.531
22.4888 8.497
22.5040 8.517
22.5192 8.478
22.5344 8.686
22.5495 8.511
22.5647 8.607
22.5799 8.528
22.5951 8.666
22.6102 8.314
22.6254 8.772
22.6406 8.349
22.6558 8.496
22.6709 8.753
22.6861 8.426
22.7013 8.128
22.7165 7.945
22.7316 6.616
