'Id: "" Comment: "" Operator: "Lab Manager" Anode: "Mo" Scantype: "Still (Eiger2R_500K (1D mode))" TimePerStep: "300" X: "11.8" Y: "9.4" Z: "11.284" 
7.2532 18.799
7.2684 18.854
7.2836 18.580
7.2987 18.823
7.3139 19.036
7.3291 19.167
7.3443 19.238
7.3594 19.141
7.3746 19.220
7.3898 19.145
7.4050 19.203
7.4201 18.922
7.4353 19.746
7.4505 19.853
7.4657 19.619
7.4808 19.330
7.4960 19.827
7.5112 19.959
7.5264 19.819
7.5415 19.576
7.5567 19.648
7.5719 19.916
7.5871 19.666
7.6022 19.616
7.6174 19.994
7.6326 20.487
7.6478 20.656
7.6629 20.365
7.6781 20.247
7.6933 20.203
7.7085 20.152
7.7236 20.317
7.7388 20.273
7.7540 20.616
7.7692 20.593
7.7843 20.219
7.7995 20.314
7.8147 20.593
7.8299 20.666
7.8450 20.618
7.8602 20.580
7.8754 20.866
7.8905 20.954
7.9057 20.905
7.9209 20.610
7.9361 21.009
7.9512 21.624
7.9664 21.127
7.9816 21.482
7.9968 21.563
8.0119 20.969
8.0271 20.986
8.0423 21.114
8.0575 21.236
8.0726 21.282
8.0878 21.412
8.1030 21.384
8.1182 21.524
8.1333 21.144
8.1485 21.018
8.1637 21.407
8.1789 21.486
8.1940 21.814
8.2092 21.759
8.2244 21.636
8.2396 21.648
8.2547 21.692
8.2699 21.727
8.2851 21.858
8.3003 21.552
8.3154 21.514
8.3306 22.024
8.3458 21.606
8.3610 21.725
8.3761 22.163
8.3913 22.002
8.4065 22.212
8.4217 21.732
8.4368 22.259
8.4520 21.860
8.4672 22.243
8.4824 22.251
8.4975 22.528
8.5127 22.122
8.5279 22.002
8.5431 21.785
8.5582 22.194
8.5734 22.032
8.5886 22.395
8.6038 21.888
8.6189 22.668
8.6341 22.195
8.6493 22.387
8.6645 22.640
8.6796 22.290
8.6948 22.810
8.7100 22.416
8.7252 22.612
8.7403 22.369
8.7555 22.503
8.7707 22.933
8.7859 22.415
8.8010 22.626
8.8162 22.267
8.8314 22.619
8.8466 22.396
8.8617 22.825
8.8769 22.791
8.8921 22.981
8.9073 22.692
8.9224 23.046
8.9376 22.821
8.9528 22.630
8.9680 22.584
8.9831 22.678
8.9983 22.851
9.0135 22.644
9.0287 23.007
9.0438 23.345
9.0590 22.898
9.0742 22.561
9.0894 22.765
9.1045 23.077
9.1197 23.077
9.1349 23.110
9.1501 23.201
9.1652 23.384
9.1804 23.036
9.1956 22.845
9.2108 23.146
9.2259 23.105
9.2411 23.121
9.2563 23.058
9.2715 23.121
9.2866 23.258
9.3018 23.109
9.3170 23.209
9.3322 23.228
9.3473 22.915
9.3625 22.914
9.3777 23.091
9.3929 22.966
9.4080 23.027
9.4232 23.431
9.4384 23.573
9.4536 23.542
9.4687 23.286
9.4839 23.351
9.4991 23.252
9.5143 23.151
9.5294 23.332
9.5446 23.220
9.5598 22.991
9.5750 22.963
9.5901 23.227
9.6053 23.545
9.6205 23.401
9.6357 23.207
9.6508 23.281
9.6660 23.597
9.6812 23.506
9.6964 23.587
9.7115 24.204
9.7267 24.296
9.7419 23.936
9.7571 24.244
9.7722 24.378
9.7874 23.991
9.8026 23.893
9.8178 23.886
9.8329 23.871
9.8481 23.598
9.8633 23.344
9.8785 23.387
9.8936 23.142
9.9088 23.148
9.9240 23.394
9.9392 23.379
9.9543 23.233
9.9695 23.080
9.9847 23.228
9.9999 23.421
10.0150 23.440
10.0302 23.668
10.0454 23.603
10.0606 23.534
10.0757 23.420
10.0909 23.442
10.1061 23.515
10.1213 23.509
10.1364 23.486
10.1516 23.546
10.1668 23.411
10.1820 23.185
10.1971 23.761
10.2123 24.034
10.2275 23.651
10.2427 23.407
10.2578 23.508
10.2730 23.536
10.2882 23.354
10.3034 23.346
10.3185 23.491
10.3337 23.196
10.3489 22.880
10.3641 23.035
10.3792 22.721
10.3944 22.780
10.4096 22.992
10.4248 22.968
10.4399 22.706
10.4551 22.413
10.4703 22.519
10.4855 22.661
10.5006 22.969
10.5158 22.774
10.5310 22.959
10.5462 22.924
10.5613 22.819
10.5765 22.798
10.5917 22.767
10.6069 23.043
10.6220 23.192
10.6372 23.229
10.6524 22.974
10.6676 22.802
10.6827 22.850
10.6979 22.722
10.7131 22.455
10.7283 22.708
10.7434 22.858
10.7586 22.581
10.7738 22.514
10.7890 22.502
10.8041 22.441
10.8193 22.155
10.8345 22.190
10.8497 22.127
10.8648 22.321
10.8800 22.363
10.8952 22.278
10.9104 21.802
10.9255 21.781
10.9407 22.034
10.9559 22.469
10.9711 22.411
10.9862 22.336
11.0014 22.192
11.0166 22.429
11.0318 22.505
11.0469 22.233
11.0621 22.172
11.0773 22.124
11.0925 22.114
11.1076 21.329
11.1228 21.736
11.1380 22.000
11.1532 21.751
11.1683 21.418
11.1835 21.765
11.1987 21.772
11.2139 21.784
11.2290 22.313
11.2442 22.056
11.2594 22.223
11.2746 22.186
11.2897 21.657
11.3049 21.701
11.3201 21.796
11.3353 21.565
11.3504 21.518
11.3656 21.572
11.3808 21.150
11.3960 21.221
11.4111 21.134
11.4263 21.418
11.4415 21.415
11.4567 21.204
11.4718 21.144
11.4870 21.040
11.5022 21.198
11.5174 21.371
11.5325 21.322
11.5477 21.199
11.5629 21.053
11.5781 20.931
11.5932 20.545
11.6084 20.552
11.6236 20.774
11.6388 20.927
11.6539 21.016
11.6691 20.739
11.6843 20.366
11.6995 20.555
11.7146 20.521
11.7298 20.557
11.7450 20.419
11.7602 20.101
11.7753 20.204
11.7905 20.389
11.8057 20.143
11.8209 20.034
11.8360 20.205
11.8512 20.127
11.8664 19.733
11.8816 19.687
11.8967 19.867
11.9119 19.482
11.9271 19.550
11.9423 19.676
11.9574 19.649
11.9726 19.435
11.9878 19.282
12.0030 19.236
12.0181 19.028
12.0333 19.286
12.0485 19.202
12.0637 19.319
12.0788 19.381
12.0940 18.987
12.1092 18.609
12.1244 18.689
12.1395 18.525
12.1547 18.461
12.1699 18.456
12.1851 18.419
12.2002 18.369
12.2154 18.234
12.2306 18.172
12.2458 18.259
12.2609 18.280
12.2761 18.123
12.2913 17.874
12.3065 17.859
12.3216 17.694
12.3368 17.627
12.3520 17.715
12.3672 17.585
12.3823 17.328
12.3975 17.088
12.4127 17.099
12.4279 17.361
12.4430 17.393
12.4582 17.236
12.4734 17.080
12.4886 16.918
12.5037 16.761
12.5189 16.580
12.5341 16.655
12.5493 16.679
12.5644 16.613
12.5796 16.310
12.5948 16.271
12.6100 16.422
12.6251 16.568
12.6403 16.008
12.6555 15.896
12.6707 15.833
12.6858 15.757
12.7010 15.915
12.7162 15.703
12.7314 15.610
12.7465 15.505
12.7617 15.660
12.7769 15.698
12.7921 15.545
12.8072 15.386
12.8224 15.360
12.8376 15.314
12.8528 15.155
12.8679 14.767
12.8831 14.708
12.8983 14.726
12.9135 14.616
12.9286 14.874
12.9438 14.938
12.9590 14.839
12.9742 14.759
12.9893 14.492
13.0045 14.322
13.0197 14.431
13.0349 14.460
13.0500 14.225
13.0652 14.287
13.0804 14.241
13.0956 14.106
13.1107 14.114
13.1259 13.944
13.1411 13.854
13.1563 13.746
13.1714 13.790
13.1866 13.831
13.2018 13.689
13.2170 13.611
13.2321 13.403
13.2473 13.209
13.2625 13.386
13.2777 13.613
13.2928 13.398
13.3080 13.283
13.3232 13.359
13.3384 13.178
13.3535 13.030
13.3687 12.936
13.3839 13.078
13.3991 13.112
13.4142 13.053
13.4294 13.185
13.4446 12.999
13.4598 13.006
13.4749 13.020
13.4901 12.780
13.5053 12.690
13.5205 12.686
13.5356 12.486
13.5508 12.440
13.5660 12.378
13.5812 12.427
13.5963 12.534
13.6115 12.467
13.6267 12.375
13.6419 12.482
13.6570 12.139
13.6722 12.031
13.6874 12.074
13.7026 12.193
13.7177 12.119
13.7329 12.206
13.7481 12.072
13.7633 11.968
13.7784 12.098
13.7936 12.431
13.8088 12.443
13.8239 12.332
13.8391 12.167
13.8543 12.426
13.8695 12.577
13.8846 12.235
13.8998 12.470
13.9150 12.604
13.9302 12.598
13.9453 12.556
13.9605 12.145
13.9757 11.841
13.9909 11.597
14.0060 12.005
14.0212 11.777
14.0364 11.531
14.0516 11.665
14.0667 11.709
14.0819 11.609
14.0971 11.767
14.1123 11.721
14.1274 11.666
14.1426 11.839
14.1578 11.574
14.1730 11.672
14.1881 11.530
14.2033 11.489
14.2185 11.631
14.2337 11.691
14.2488 11.769
14.2640 11.682
14.2792 11.715
14.2944 11.838
14.3095 12.283
14.3247 12.236
14.3399 12.362
14.3551 12.593
14.3702 12.743
14.3854 12.960
14.4006 12.829
14.4158 12.677
14.4309 12.607
14.4461 12.570
14.4613 12.094
14.4765 11.753
14.4916 11.805
14.5068 11.474
14.5220 11.451
14.5372 11.235
14.5523 11.001
14.5675 11.148
14.5827 10.868
14.5979 11.108
14.6130 10.987
14.6282 11.123
14.6434 11.082
14.6586 10.956
14.6737 10.735
14.6889 10.971
14.7041 10.721
14.7193 11.066
14.7344 10.801
14.7496 10.833
14.7648 11.009
14.7800 10.455
14.7951 10.757
14.8103 10.699
14.8255 10.698
14.8407 10.539
14.8558 10.510
14.8710 10.630
14.8862 10.560
14.9014 10.510
14.9165 10.740
14.9317 10.786
14.9469 10.700
14.9621 10.535
14.9772 10.496
14.9924 10.305
15.0076 10.743
15.0228 10.824
15.0379 10.674
15.0531 10.455
15.0683 10.377
15.0835 10.527
15.0986 10.406
15.1138 10.695
15.1290 10.340
15.1442 10.574
15.1593 10.372
15.1745 10.374
15.1897 10.635
15.2049 10.494
15.2200 10.369
15.2352 10.414
15.2504 10.150
15.2656 10.485
15.2807 10.380
15.2959 10.177
15.3111 10.440
15.3263 10.261
15.3414 10.487
15.3566 10.238
15.3718 10.398
15.3870 10.302
15.4021 10.434
15.4173 10.253
15.4325 10.658
15.4477 10.774
15.4628 9.962
15.4780 10.187
15.4932 10.554
15.5084 10.276
15.5235 10.129
15.5387 10.597
15.5539 10.195
15.5691 10.301
15.5842 10.119
15.5994 10.054
15.6146 9.973
15.6298 10.143
15.6449 10.042
15.6601 10.137
15.6753 10.228
15.6905 9.994
15.7056 9.777
15.7208 9.904
15.7360 9.817
15.7512 9.502
15.7663 9.703
15.7815 9.869
15.7967 9.964
15.8119 10.077
15.8270 9.898
15.8422 9.979
15.8574 9.675
15.8726 9.759
15.8877 9.782
15.9029 9.616
15.9181 9.923
15.9333 10.049
15.9484 9.590
15.9636 9.682
15.9788 9.682
15.9940 10.075
16.0091 9.983
16.0243 9.983
16.0395 9.841
16.0547 9.754
16.0698 9.695
16.0850 9.764
16.1002 9.837
16.1154 9.783
16.1305 9.668
16.1457 9.886
16.1609 9.846
16.1761 9.915
16.1912 9.581
16.2064 9.663
16.2216 9.827
16.2368 9.932
16.2519 9.717
16.2671 10.012
16.2823 10.319
16.2975 10.323
16.3126 10.053
16.3278 9.944
16.3430 10.156
16.3582 9.860
16.3733 9.904
16.3885 10.120
16.4037 10.052
16.4189 9.966
16.4340 9.666
16.4492 9.829
16.4644 10.120
16.4796 9.919
16.4947 9.829
16.5099 9.695
16.5251 9.974
16.5403 10.186
16.5554 9.851
16.5706 9.607
16.5858 9.682
16.6010 9.966
16.6161 9.816
16.6313 9.845
16.6465 10.032
16.6617 10.159
16.6768 10.044
16.6920 10.018
16.7072 10.061
16.7224 10.164
16.7375 10.164
16.7527 10.414
16.7679 10.165
16.7831 9.994
16.7982 10.061
16.8134 9.846
16.8286 9.795
16.8438 9.880
16.8589 9.923
16.8741 9.894
16.8893 9.835
16.9045 9.896
16.9196 9.943
16.9348 9.881
16.9500 9.968
16.9652 10.080
16.9803 10.198
16.9955 10.170
17.0107 9.981
17.0259 10.046
17.0410 10.046
17.0562 10.053
17.0714 10.179
17.0866 10.448
17.1017 10.793
17.1169 10.724
17.1321 10.665
17.1473 11.151
17.1624 11.780
17.1776 12.288
17.1928 13.132
17.2080 14.096
17.2231 14.947
17.2383 16.257
17.2535 17.899
17.2687 18.938
17.2838 18.833
17.2990 18.328
17.3142 17.383
17.3294 16.181
17.3445 16.115
17.3597 16.299
17.3749 16.044
17.3901 15.484
17.4052 14.569
17.4204 13.515
17.4356 12.617
17.4508 12.200
17.4659 11.888
17.4811 11.480
17.4963 11.258
17.5115 11.317
17.5266 11.334
17.5418 11.244
17.5570 11.259
17.5722 11.224
17.5873 11.164
17.6025 11.186
17.6177 11.017
17.6329 10.860
17.6480 10.739
17.6632 10.575
17.6784 10.615
17.6936 10.684
17.7087 10.569
17.7239 10.732
17.7391 10.563
17.7543 10.230
17.7694 10.076
17.7846 9.999
17.7998 10.054
17.8150 10.221
17.8301 10.278
17.8453 10.108
17.8605 10.082
17.8757 10.120
17.8908 10.357
17.9060 10.571
17.9212 10.407
17.9364 10.235
17.9515 10.160
17.9667 10.147
17.9819 10.305
17.9971 10.388
18.0122 10.536
18.0274 10.395
18.0426 10.327
18.0578 10.140
18.0729 10.023
18.0881 10.069
18.1033 10.151
18.1185 9.983
18.1336 10.228
18.1488 10.224
18.1640 10.088
18.1792 10.093
18.1943 9.947
18.2095 9.819
18.2247 9.917
18.2399 9.956
18.2550 9.901
18.2702 9.615
18.2854 9.683
18.3006 9.975
18.3157 9.922
18.3309 9.733
18.3461 9.735
18.3613 9.773
18.3764 9.761
18.3916 9.779
18.4068 9.675
18.4220 9.587
18.4371 9.985
18.4523 9.898
18.4675 9.647
18.4827 9.532
18.4978 9.628
18.5130 9.772
18.5282 9.805
18.5434 9.771
18.5585 9.692
18.5737 9.768
18.5889 9.764
18.6041 9.641
18.6192 9.738
18.6344 9.803
18.6496 9.843
18.6648 9.887
18.6799 9.708
18.6951 9.661
18.7103 9.617
18.7255 9.824
18.7406 9.770
18.7558 9.763
18.7710 10.004
18.7862 9.950
18.8013 9.734
18.8165 9.563
18.8317 9.908
18.8469 9.961
18.8620 9.958
18.8772 9.924
18.8924 9.855
18.9076 9.820
18.9227 10.177
18.9379 10.162
18.9531 10.038
18.9683 9.974
18.9834 10.016
18.9986 10.210
19.0138 10.189
19.0290 10.124
19.0441 10.098
19.0593 10.186
19.0745 10.381
19.0897 10.509
19.1048 10.290
19.1200 10.393
19.1352 10.522
19.1504 10.416
19.1655 10.408
19.1807 10.665
19.1959 10.640
19.2111 10.567
19.2262 10.874
19.2414 10.671
19.2566 10.726
19.2718 10.994
19.2869 11.003
19.3021 10.769
19.3173 10.754
19.3325 11.079
19.3476 11.143
19.3628 11.151
19.3780 11.357
19.3932 11.219
19.4083 11.062
19.4235 11.233
19.4387 11.346
19.4539 11.357
19.4690 11.410
19.4842 11.454
19.4994 11.546
19.5146 11.573
19.5297 11.488
19.5449 11.413
19.5601 11.548
19.5753 11.641
19.5904 11.694
19.6056 11.652
19.6208 11.432
19.6360 11.486
19.6511 11.654
19.6663 11.682
19.6815 11.628
19.6967 11.553
19.7118 11.712
19.7270 11.835
19.7422 11.820
19.7574 11.654
19.7725 11.599
19.7877 11.912
19.8029 11.976
19.8180 11.940
19.8332 12.037
19.8484 12.104
19.8636 12.217
19.8787 12.407
19.8939 12.818
19.9091 13.213
19.9243 13.441
19.9394 13.742
19.9546 14.056
19.9698 14.296
19.9850 14.488
20.0001 14.402
20.0153 14.251
20.0305 13.970
20.0457 13.816
20.0608 13.935
20.0760 13.798
20.0912 13.597
20.1064 13.481
20.1215 13.393
20.1367 13.227
20.1519 13.054
20.1671 13.081
20.1822 13.012
20.1974 12.790
20.2126 12.673
20.2278 12.450
20.2429 12.374
20.2581 12.186
20.2733 12.054
20.2885 12.138
20.3036 12.011
20.3188 11.934
20.3340 11.733
20.3492 11.927
20.3643 11.681
20.3795 11.473
20.3947 10.927
20.4099 10.987
20.4250 10.963
20.4402 10.841
20.4554 10.780
20.4706 10.840
20.4857 10.862
20.5009 10.678
20.5161 10.602
20.5313 10.638
20.5464 10.741
20.5616 10.807
20.5768 10.540
20.5920 10.550
20.6071 10.531
20.6223 10.617
20.6375 10.881
20.6527 10.884
20.6678 10.716
20.6830 10.615
20.6982 10.767
20.7134 10.648
20.7285 10.558
20.7437 10.329
20.7589 10.362
20.7741 10.376
20.7892 10.239
20.8044 10.293
20.8196 10.414
20.8348 9.927
20.8499 10.053
20.8651 10.333
20.8803 10.212
20.8955 10.258
20.9106 9.997
20.9258 10.101
20.9410 10.162
20.9562 9.790
20.9713 10.263
20.9865 10.319
21.0017 10.074
21.0169 10.049
21.0320 9.803
21.0472 9.875
21.0624 9.678
21.0776 9.898
21.0927 9.906
21.1079 10.266
21.1231 9.779
21.1383 9.747
21.1534 9.776
21.1686 9.643
21.1838 9.847
21.1990 9.855
21.2141 9.990
21.2293 9.814
21.2445 9.483
21.2597 9.498
21.2748 9.541
21.2900 9.567
21.3052 9.490
21.3204 9.576
21.3355 9.723
21.3507 9.543
21.3659 9.723
21.3811 9.450
21.3962 9.504
21.4114 9.419
21.4266 9.385
21.4418 9.387
21.4569 9.258
21.4721 9.326
21.4873 9.416
21.5025 9.311
21.5176 9.138
21.5328 9.672
21.5480 9.229
21.5632 9.057
21.5783 9.294
21.5935 9.123
21.6087 9.137
21.6239 9.130
21.6390 9.184
21.6542 8.922
21.6694 9.275
21.6846 9.111
21.6997 9.131
21.7149 9.173
21.7301 9.260
21.7453 9.119
21.7604 8.978
21.7756 8.848
21.7908 9.083
21.8060 9.295
21.8211 9.181
21.8363 9.181
21.8515 9.107
21.8667 8.948
21.8818 8.981
21.8970 9.132
21.9122 9.036
21.9274 8.830
21.9425 8.966
21.9577 9.170
21.9729 8.991
21.9881 8.757
22.0032 8.776
22.0184 8.847
22.0336 8.979
22.0488 8.756
22.0639 8.553
22.0791 8.639
22.0943 8.692
22.1095 8.610
22.1246 8.712
22.1398 8.719
22.1550 8.696
22.1702 8.646
22.1853 8.693
22.2005 8.881
22.2157 8.870
22.2309 8.737
22.2460 8.723
22.2612 8.810
22.2764 8.586
22.2916 8.419
22.3067 8.511
22.3219 8.656
22.3371 8.809
22.3523 8.646
22.3674 8.840
22.3826 8.474
22.3978 8.269
22.4130 8.586
22.4281 8.598
22.4433 8.456
22.4585 8.531
22.4737 8.552
22.4888 8.590
22.5040 8.302
22.5192 8.437
22.5344 8.237
22.5495 8.620
22.5647 9.105
22.5799 8.797
22.5951 8.550
22.6102 8.329
22.6254 8.389
22.6406 8.494
22.6558 8.707
22.6709 8.196
22.6861 8.347
22.7013 8.405
22.7165 7.907
22.7316 6.576
