'Id: "" Comment: "" Operator: "Lab Manager" Anode: "Mo" Scantype: "Still (Eiger2R_500K (1D mode))" TimePerStep: "300" X: "11.8" Y: "9.4" Z: "11.284" 
7.2532 18.338
7.2684 18.929
7.2836 18.881
7.2987 18.790
7.3139 19.172
7.3291 18.452
7.3443 18.925
7.3594 19.077
7.3746 19.115
7.3898 19.672
7.4050 19.297
7.4201 19.339
7.4353 19.429
7.4505 19.912
7.4657 19.479
7.4808 19.724
7.4960 19.868
7.5112 19.959
7.5264 20.185
7.5415 19.668
7.5567 19.626
7.5719 19.697
7.5871 19.832
7.6022 19.955
7.6174 20.052
7.6326 19.678
7.6478 19.856
7.6629 20.029
7.6781 20.244
7.6933 20.180
7.7085 20.366
7.7236 20.287
7.7388 20.315
7.7540 20.581
7.7692 20.364
7.7843 20.272
7.7995 20.443
7.8147 20.671
7.8299 20.802
7.8450 20.367
7.8602 20.606
7.8754 20.692
7.8905 20.587
7.9057 20.659
7.9209 20.739
7.9361 20.679
7.9512 20.339
7.9664 20.638
7.9816 20.909
7.9968 20.671
8.0119 20.865
8.0271 20.894
8.0423 21.400
8.0575 21.373
8.0726 21.152
8.0878 21.071
8.1030 21.091
8.1182 21.421
8.1333 21.392
8.1485 21.078
8.1637 21.307
8.1789 21.468
8.1940 21.186
8.2092 20.938
8.2244 21.402
8.2396 21.509
8.2547 21.388
8.2699 21.675
8.2851 21.525
8.3003 21.645
8.3154 21.755
8.3306 21.804
8.3458 21.933
8.3610 21.399
8.3761 21.585
8.3913 21.639
8.4065 21.090
8.4217 22.172
8.4368 22.232
8.4520 21.613
8.4672 21.508
8.4824 22.132
8.4975 21.699
8.5127 21.702
8.5279 21.896
8.5431 22.556
8.5582 21.937
8.5734 21.929
8.5886 22.393
8.6038 22.283
8.6189 22.132
8.6341 21.440
8.6493 22.282
8.6645 22.402
8.6796 21.835
8.6948 21.841
8.7100 21.726
8.7252 22.220
8.7403 22.453
8.7555 21.898
8.7707 22.469
8.7859 22.230
8.8010 22.124
8.8162 22.535
8.8314 22.431
8.8466 22.268
8.8617 22.698
8.8769 22.698
8.8921 22.345
8.9073 22.120
8.9224 22.546
8.9376 22.250
8.9528 22.293
8.9680 22.292
8.9831 22.273
8.9983 22.319
9.0135 22.258
9.0287 22.204
9.0438 22.785
9.0590 22.489
9.0742 22.642
9.0894 22.525
9.1045 22.711
9.1197 22.557
9.1349 22.598
9.1501 22.869
9.1652 22.866
9.1804 22.697
9.1956 22.559
9.2108 22.561
9.2259 22.469
9.2411 22.644
9.2563 22.645
9.2715 22.612
9.2866 22.768
9.3018 22.989
9.3170 22.904
9.3322 23.168
9.3473 23.030
9.3625 22.759
9.3777 22.791
9.3929 22.886
9.4080 22.856
9.4232 23.301
9.4384 22.916
9.4536 22.904
9.4687 22.985
9.4839 22.898
9.4991 23.072
9.5143 23.427
9.5294 23.211
9.5446 22.969
9.5598 23.268
9.5750 23.000
9.5901 23.049
9.6053 23.191
9.6205 23.371
9.6357 23.379
9.6508 23.092
9.6660 23.414
9.6812 23.293
9.6964 23.071
9.7115 23.372
9.7267 23.614
9.7419 23.894
9.7571 24.170
9.7722 24.083
9.7874 23.860
9.8026 23.524
9.8178 23.353
9.8329 23.404
9.8481 23.224
9.8633 22.701
9.8785 22.783
9.8936 23.133
9.9088 23.141
9.9240 23.283
9.9392 23.309
9.9543 23.157
9.9695 23.059
9.9847 23.114
9.9999 23.414
10.0150 23.356
10.0302 23.063
10.0454 23.080
10.0606 23.309
10.0757 23.387
10.0909 23.475
10.1061 23.268
10.1213 23.193
10.1364 23.278
10.1516 23.277
10.1668 23.403
10.1820 23.286
10.1971 23.120
10.2123 22.816
10.2275 22.589
10.2427 22.542
10.2578 22.698
10.2730 22.776
10.2882 22.882
10.3034 23.028
10.3185 22.666
10.3337 22.491
10.3489 22.372
10.3641 22.422
10.3792 22.620
10.3944 22.340
10.4096 22.628
10.4248 22.515
10.4399 22.374
10.4551 22.550
10.4703 22.532
10.4855 22.413
10.5006 22.434
10.5158 22.560
10.5310 22.573
10.5462 22.485
10.5613 22.266
10.5765 22.113
10.5917 22.115
10.6069 22.187
10.6220 22.154
10.6372 22.490
10.6524 22.472
10.6676 22.235
10.6827 22.117
10.6979 22.101
10.7131 22.253
10.7283 22.090
10.7434 21.912
10.7586 22.105
10.7738 22.558
10.7890 22.042
10.8041 21.972
10.8193 22.197
10.8345 22.365
10.8497 21.899
10.8648 22.156
10.8800 22.178
10.8952 22.074
10.9104 21.997
10.9255 21.764
10.9407 21.963
10.9559 22.046
10.9711 22.053
10.9862 22.101
11.0014 22.262
11.0166 22.294
11.0318 22.219
11.0469 21.690
11.0621 21.811
11.0773 21.547
11.0925 21.655
11.1076 21.313
11.1228 21.606
11.1380 22.186
11.1532 21.928
11.1683 21.805
11.1835 21.758
11.1987 21.627
11.2139 21.613
11.2290 21.586
11.2442 21.580
11.2594 21.436
11.2746 21.292
11.2897 21.208
11.3049 21.227
11.3201 21.264
11.3353 21.778
11.3504 21.570
11.3656 21.302
11.3808 21.329
11.3960 21.312
11.4111 21.064
11.4263 21.219
11.4415 21.143
11.4567 20.668
11.4718 20.709
11.4870 20.952
11.5022 20.983
11.5174 21.082
11.5325 21.109
11.5477 20.871
11.5629 20.954
11.5781 20.757
11.5932 20.879
11.6084 21.035
11.6236 21.079
11.6388 20.386
11.6539 20.466
11.6691 20.649
11.6843 20.089
11.6995 20.340
11.7146 20.733
11.7298 20.642
11.7450 20.285
11.7602 20.190
11.7753 20.421
11.7905 20.247
11.8057 20.061
11.8209 19.827
11.8360 19.873
11.8512 19.655
11.8664 19.690
11.8816 19.808
11.8967 19.809
11.9119 19.817
11.9271 19.653
11.9423 19.622
11.9574 19.451
11.9726 19.340
11.9878 19.689
12.0030 19.588
12.0181 19.285
12.0333 19.065
12.0485 19.129
12.0637 18.922
12.0788 18.784
12.0940 18.530
12.1092 18.674
12.1244 18.762
12.1395 18.378
12.1547 17.993
12.1699 18.193
12.1851 18.377
12.2002 18.209
12.2154 18.047
12.2306 18.023
12.2458 17.995
12.2609 18.177
12.2761 18.122
12.2913 17.903
12.3065 17.666
12.3216 17.914
12.3368 17.348
12.3520 17.479
12.3672 17.406
12.3823 17.014
12.3975 17.075
12.4127 17.120
12.4279 16.835
12.4430 16.768
12.4582 16.939
12.4734 16.910
12.4886 16.437
12.5037 16.575
12.5189 16.780
12.5341 16.626
12.5493 16.342
12.5644 16.138
12.5796 16.207
12.5948 16.102
12.6100 16.208
12.6251 16.171
12.6403 15.702
12.6555 15.470
12.6707 15.658
12.6858 15.612
12.7010 15.516
12.7162 15.736
12.7314 15.632
12.7465 15.420
12.7617 15.344
12.7769 15.533
12.7921 15.610
12.8072 15.314
12.8224 15.034
12.8376 14.989
12.8528 15.034
12.8679 14.913
12.8831 14.942
12.8983 14.938
12.9135 14.738
12.9286 14.495
12.9438 14.531
12.9590 14.461
12.9742 14.309
12.9893 14.466
13.0045 14.434
13.0197 14.309
13.0349 14.205
13.0500 14.096
13.0652 13.922
13.0804 13.729
13.0956 13.785
13.1107 13.819
13.1259 13.777
13.1411 13.741
13.1563 13.540
13.1714 13.451
13.1866 13.510
13.2018 13.442
13.2170 13.164
13.2321 13.115
13.2473 13.196
13.2625 13.255
13.2777 13.285
13.2928 13.161
13.3080 13.210
13.3232 13.162
13.3384 13.211
13.3535 13.278
13.3687 13.257
13.3839 13.150
13.3991 13.055
13.4142 12.903
13.4294 12.600
13.4446 12.541
13.4598 12.544
13.4749 12.582
13.4901 12.598
13.5053 12.531
13.5205 12.443
13.5356 12.235
13.5508 12.037
13.5660 12.121
13.5812 12.181
13.5963 12.172
13.6115 12.105
13.6267 12.212
13.6419 12.353
13.6570 12.422
13.6722 12.204
13.6874 12.110
13.7026 12.081
13.7177 12.107
13.7329 11.984
13.7481 12.276
13.7633 12.248
13.7784 12.102
13.7936 12.023
13.8088 11.884
13.8239 12.189
13.8391 12.211
13.8543 12.233
13.8695 12.078
13.8846 12.223
13.8998 12.492
13.9150 12.335
13.9302 12.080
13.9453 11.954
13.9605 11.720
13.9757 11.654
13.9909 11.605
14.0060 11.700
14.0212 11.833
14.0364 11.774
14.0516 11.650
14.0667 11.518
14.0819 11.559
14.0971 11.770
14.1123 11.701
14.1274 11.565
14.1426 11.800
14.1578 11.836
14.1730 11.348
14.1881 11.664
14.2033 12.093
14.2185 11.767
14.2337 11.800
14.2488 11.797
14.2640 11.881
14.2792 11.812
14.2944 11.678
14.3095 11.754
14.3247 12.084
14.3399 12.226
14.3551 12.290
14.3702 12.874
14.3854 13.065
14.4006 13.120
14.4158 13.024
14.4309 13.039
14.4461 12.978
14.4613 12.481
14.4765 11.966
14.4916 12.044
14.5068 12.134
14.5220 11.763
14.5372 11.752
14.5523 11.575
14.5675 11.043
14.5827 11.053
14.5979 11.006
14.6130 11.106
14.6282 10.811
14.6434 10.659
14.6586 10.883
14.6737 10.517
14.6889 10.639
14.7041 10.741
14.7193 10.782
14.7344 10.533
14.7496 10.427
14.7648 10.754
14.7800 10.627
14.7951 10.725
14.8103 10.665
14.8255 10.445
14.8407 10.487
14.8558 10.596
14.8710 10.196
14.8862 10.324
14.9014 10.328
14.9165 11.058
14.9317 10.690
14.9469 10.556
14.9621 10.563
14.9772 10.129
14.9924 10.112
15.0076 10.321
15.0228 10.362
15.0379 10.341
15.0531 10.288
15.0683 10.141
15.0835 10.217
15.0986 10.191
15.1138 10.296
15.1290 10.230
15.1442 10.306
15.1593 9.586
15.1745 10.234
15.1897 10.205
15.2049 10.071
15.2200 9.938
15.2352 10.271
15.2504 10.078
15.2656 10.218
15.2807 9.939
15.2959 10.104
15.3111 9.843
15.3263 10.026
15.3414 10.134
15.3566 10.154
15.3718 10.558
15.3870 9.671
15.4021 10.012
15.4173 10.137
15.4325 9.971
15.4477 10.432
15.4628 10.383
15.4780 10.271
15.4932 9.892
15.5084 9.976
15.5235 10.316
15.5387 10.133
15.5539 10.238
15.5691 9.849
15.5842 9.658
15.5994 9.778
15.6146 9.923
15.6298 9.897
15.6449 9.757
15.6601 9.825
15.6753 9.674
15.6905 9.423
15.7056 9.695
15.7208 9.698
15.7360 9.512
15.7512 9.488
15.7663 9.638
15.7815 9.716
15.7967 9.576
15.8119 9.680
15.8270 9.799
15.8422 9.716
15.8574 9.604
15.8726 9.834
15.8877 9.584
15.9029 9.306
15.9181 9.463
15.9333 9.717
15.9484 9.591
15.9636 9.481
15.9788 9.409
15.9940 9.674
16.0091 9.614
16.0243 9.609
16.0395 9.737
16.0547 9.515
16.0698 9.581
16.0850 9.684
16.1002 9.642
16.1154 9.772
16.1305 9.466
16.1457 9.561
16.1609 9.623
16.1761 9.670
16.1912 9.460
16.2064 9.839
16.2216 9.918
16.2368 9.635
16.2519 9.501
16.2671 9.594
16.2823 9.551
16.2975 9.692
16.3126 9.899
16.3278 9.695
16.3430 9.552
16.3582 9.936
16.3733 9.718
16.3885 9.711
16.4037 9.727
16.4189 9.788
16.4340 9.672
16.4492 9.577
16.4644 9.463
16.4796 9.568
16.4947 9.566
16.5099 9.520
16.5251 9.536
16.5403 9.729
16.5554 9.621
16.5706 9.761
16.5858 9.814
16.6010 9.634
16.6161 9.581
16.6313 9.735
16.6465 9.807
16.6617 9.689
16.6768 9.667
16.6920 9.763
16.7072 9.902
16.7224 9.924
16.7375 10.132
16.7527 10.075
16.7679 9.712
16.7831 9.851
16.7982 9.915
16.8134 10.008
16.8286 9.745
16.8438 9.592
16.8589 9.740
16.8741 9.814
16.8893 9.949
16.9045 9.915
16.9196 9.810
16.9348 9.826
16.9500 9.940
16.9652 9.885
16.9803 9.747
16.9955 9.813
17.0107 10.272
17.0259 10.071
17.0410 9.870
17.0562 10.046
17.0714 10.120
17.0866 10.186
17.1017 10.462
17.1169 10.763
17.1321 10.984
17.1473 11.378
17.1624 11.829
17.1776 12.182
17.1928 13.001
17.2080 13.856
17.2231 14.929
17.2383 16.283
17.2535 17.446
17.2687 18.391
17.2838 18.535
17.2990 17.764
17.3142 16.789
17.3294 16.056
17.3445 15.640
17.3597 15.875
17.3749 15.952
17.3901 15.387
17.4052 14.564
17.4204 13.536
17.4356 12.730
17.4508 12.174
17.4659 11.921
17.4811 11.676
17.4963 11.472
17.5115 11.330
17.5266 10.986
17.5418 11.004
17.5570 11.096
17.5722 10.909
17.5873 10.854
17.6025 10.942
17.6177 11.064
17.6329 11.281
17.6480 11.454
17.6632 11.660
17.6784 11.665
17.6936 11.769
17.7087 11.741
17.7239 11.310
17.7391 11.054
17.7543 10.877
17.7694 10.799
17.7846 10.893
17.7998 10.847
17.8150 10.676
17.8301 10.452
17.8453 10.216
17.8605 10.176
17.8757 10.245
17.8908 10.107
17.9060 10.170
17.9212 10.201
17.9364 10.081
17.9515 10.135
17.9667 10.260
17.9819 10.315
17.9971 10.182
18.0122 10.003
18.0274 10.116
18.0426 10.264
18.0578 10.258
18.0729 9.977
18.0881 9.846
18.1033 9.934
18.1185 9.795
18.1336 10.037
18.1488 9.917
18.1640 9.850
18.1792 9.733
18.1943 9.780
18.2095 9.789
18.2247 9.924
18.2399 9.840
18.2550 9.906
18.2702 9.837
18.2854 9.726
18.3006 9.894
18.3157 9.932
18.3309 9.691
18.3461 9.712
18.3613 9.798
18.3764 9.901
18.3916 9.822
18.4068 9.745
18.4220 9.740
18.4371 9.831
18.4523 9.724
18.4675 9.691
18.4827 9.739
18.4978 9.890
18.5130 9.984
18.5282 9.962
18.5434 9.854
18.5585 9.640
18.5737 9.723
18.5889 9.700
18.6041 9.469
18.6192 9.544
18.6344 9.642
18.6496 9.777
18.6648 9.647
18.6799 9.624
18.6951 9.682
18.7103 9.571
18.7255 9.417
18.7406 9.669
18.7558 9.839
18.7710 9.872
18.7862 9.948
18.8013 9.974
18.8165 9.755
18.8317 9.884
18.8469 9.835
18.8620 9.828
18.8772 9.954
18.8924 9.965
18.9076 9.949
18.9227 9.671
18.9379 9.802
18.9531 9.963
18.9683 9.951
18.9834 9.975
18.9986 10.071
19.0138 10.035
19.0290 9.987
19.0441 10.046
19.0593 10.155
19.0745 10.274
19.0897 10.235
19.1048 10.301
19.1200 10.356
19.1352 10.252
19.1504 10.314
19.1655 10.336
19.1807 10.448
19.1959 10.628
19.2111 10.689
19.2262 10.662
19.2414 10.540
19.2566 10.737
19.2718 10.930
19.2869 10.940
19.3021 10.895
19.3173 10.719
19.3325 10.840
19.3476 11.284
19.3628 11.293
19.3780 11.248
19.3932 11.336
19.4083 11.254
19.4235 11.178
19.4387 11.337
19.4539 11.384
19.4690 11.302
19.4842 11.211
19.4994 11.048
19.5146 11.102
19.5297 11.466
19.5449 11.760
19.5601 11.794
19.5753 12.016
19.5904 12.011
19.6056 11.688
19.6208 11.614
19.6360 11.610
19.6511 11.713
19.6663 11.706
19.6815 11.776
19.6967 11.964
19.7118 11.827
19.7270 11.690
19.7422 11.642
19.7574 11.779
19.7725 11.737
19.7877 11.728
19.8029 11.850
19.8180 11.873
19.8332 12.008
19.8484 12.213
19.8636 12.336
19.8787 12.485
19.8939 12.846
19.9091 12.991
19.9243 13.088
19.9394 13.484
19.9546 13.910
19.9698 14.293
19.9850 14.702
20.0001 14.534
20.0153 13.983
20.0305 13.843
20.0457 13.616
20.0608 13.448
20.0760 13.398
20.0912 13.631
20.1064 13.661
20.1215 13.501
20.1367 13.442
20.1519 13.047
20.1671 13.020
20.1822 13.120
20.1974 12.912
20.2126 12.831
20.2278 12.644
20.2429 12.363
20.2581 12.346
20.2733 12.277
20.2885 12.127
20.3036 11.774
20.3188 11.898
20.3340 12.029
20.3492 12.054
20.3643 11.905
20.3795 11.947
20.3947 11.743
20.4099 11.701
20.4250 12.067
20.4402 11.680
20.4554 11.684
20.4706 12.044
20.4857 11.897
20.5009 11.986
20.5161 11.820
20.5313 11.542
20.5464 11.653
20.5616 11.508
20.5768 11.206
20.5920 11.123
20.6071 10.815
20.6223 10.986
20.6375 10.728
20.6527 10.481
20.6678 10.526
20.6830 10.429
20.6982 10.377
20.7134 10.243
20.7285 10.140
20.7437 10.420
20.7589 10.586
20.7741 10.224
20.7892 10.188
20.8044 10.390
20.8196 10.211
20.8348 10.131
20.8499 10.095
20.8651 10.164
20.8803 10.105
20.8955 9.976
20.9106 10.331
20.9258 10.022
20.9410 9.998
20.9562 10.013
20.9713 10.153
20.9865 9.862
21.0017 10.147
21.0169 10.249
21.0320 10.060
21.0472 10.110
21.0624 10.000
21.0776 10.000
21.0927 10.129
21.1079 9.694
21.1231 9.747
21.1383 9.940
21.1534 9.773
21.1686 9.695
21.1838 9.677
21.1990 9.745
21.2141 9.893
21.2293 9.644
21.2445 9.500
21.2597 9.265
21.2748 9.725
21.2900 9.531
21.3052 9.559
21.3204 9.302
21.3355 9.381
21.3507 9.425
21.3659 9.358
21.3811 9.478
21.3962 9.501
21.4114 9.353
21.4266 9.458
21.4418 9.471
21.4569 9.225
21.4721 9.413
21.4873 9.140
21.5025 9.282
21.5176 9.659
21.5328 9.465
21.5480 9.557
21.5632 9.393
21.5783 9.301
21.5935 8.984
21.6087 9.106
21.6239 9.142
21.6390 9.044
21.6542 8.894
21.6694 9.082
21.6846 9.369
21.6997 9.202
21.7149 9.134
21.7301 9.108
21.7453 8.870
21.7604 9.037
21.7756 9.095
21.7908 9.157
21.8060 9.015
21.8211 9.095
21.8363 9.193
21.8515 8.823
21.8667 8.896
21.8818 8.936
21.8970 8.746
21.9122 8.841
21.9274 8.915
21.9425 8.709
21.9577 8.730
21.9729 8.786
21.9881 8.883
22.0032 8.905
22.0184 8.774
22.0336 8.770
22.0488 8.702
22.0639 8.625
22.0791 8.711
22.0943 8.936
22.1095 8.914
22.1246 8.660
22.1398 8.656
22.1550 8.622
22.1702 8.584
22.1853 8.507
22.2005 8.367
22.2157 8.334
22.2309 8.432
22.2460 8.263
22.2612 8.392
22.2764 8.422
22.2916 8.538
22.3067 8.446
22.3219 8.376
22.3371 8.519
22.3523 8.459
22.3674 8.399
22.3826 8.475
22.3978 8.471
22.4130 8.447
22.4281 8.594
22.4433 8.661
22.4585 8.443
22.4737 8.146
22.4888 8.305
22.5040 8.513
22.5192 8.328
22.5344 8.458
22.5495 8.456
22.5647 8.361
22.5799 8.310
22.5951 8.506
22.6102 8.430
22.6254 8.155
22.6406 8.597
22.6558 8.375
22.6709 8.355
22.6861 8.520
22.7013 7.890
22.7165 7.717
22.7316 6.332
