'Id: "" Comment: "" Operator: "Lab Manager" Anode: "Mo" Scantype: "Still (Eiger2R_500K (1D mode))" TimePerStep: "300" X: "11.8" Y: "9.4" Z: "11.284" 
7.2532 18.848
7.2684 19.240
7.2836 18.997
7.2987 19.058
7.3139 19.190
7.3291 19.154
7.3443 19.167
7.3594 19.335
7.3746 19.306
7.3898 19.783
7.4050 19.386
7.4201 19.328
7.4353 19.169
7.4505 19.800
7.4657 19.410
7.4808 19.955
7.4960 20.052
7.5112 19.701
7.5264 19.357
7.5415 19.970
7.5567 19.634
7.5719 19.756
7.5871 20.036
7.6022 20.140
7.6174 20.211
7.6326 20.093
7.6478 20.264
7.6629 20.249
7.6781 20.149
7.6933 20.243
7.7085 20.232
7.7236 20.410
7.7388 20.645
7.7540 20.259
7.7692 20.246
7.7843 20.312
7.7995 20.364
7.8147 20.536
7.8299 20.765
7.8450 20.844
7.8602 21.093
7.8754 21.101
7.8905 20.789
7.9057 20.617
7.9209 20.626
7.9361 20.969
7.9512 20.851
7.9664 21.035
7.9816 21.281
7.9968 21.344
8.0119 21.234
8.0271 21.095
8.0423 21.207
8.0575 21.074
8.0726 21.239
8.0878 21.446
8.1030 21.346
8.1182 21.496
8.1333 21.713
8.1485 21.644
8.1637 21.282
8.1789 21.183
8.1940 21.674
8.2092 21.853
8.2244 21.565
8.2396 21.882
8.2547 21.704
8.2699 21.580
8.2851 22.043
8.3003 21.890
8.3154 21.908
8.3306 21.473
8.3458 21.928
8.3610 21.851
8.3761 21.930
8.3913 21.614
8.4065 21.915
8.4217 21.343
8.4368 21.927
8.4520 21.675
8.4672 22.112
8.4824 22.042
8.4975 22.452
8.5127 21.847
8.5279 22.310
8.5431 22.507
8.5582 22.309
8.5734 22.484
8.5886 22.121
8.6038 22.112
8.6189 21.789
8.6341 22.297
8.6493 22.751
8.6645 22.322
8.6796 22.490
8.6948 22.136
8.7100 22.416
8.7252 22.431
8.7403 23.058
8.7555 22.336
8.7707 22.033
8.7859 22.130
8.8010 22.349
8.8162 22.278
8.8314 22.184
8.8466 22.081
8.8617 22.256
8.8769 23.184
8.8921 22.471
8.9073 22.864
8.9224 23.023
8.9376 22.361
8.9528 22.880
8.9680 22.577
8.9831 23.107
8.9983 22.936
9.0135 22.759
9.0287 22.611
9.0438 22.990
9.0590 22.924
9.0742 22.824
9.0894 22.889
9.1045 23.292
9.1197 22.831
9.1349 22.892
9.1501 23.215
9.1652 23.040
9.1804 22.766
9.1956 23.097
9.2108 23.236
9.2259 23.066
9.2411 23.138
9.2563 22.972
9.2715 23.070
9.2866 23.134
9.3018 23.183
9.3170 23.003
9.3322 23.214
9.3473 22.929
9.3625 23.053
9.3777 23.423
9.3929 23.361
9.4080 23.347
9.4232 23.270
9.4384 22.942
9.4536 23.148
9.4687 23.237
9.4839 22.997
9.4991 23.357
9.5143 23.216
9.5294 23.167
9.5446 23.247
9.5598 23.232
9.5750 23.451
9.5901 23.546
9.6053 23.482
9.6205 23.439
9.6357 23.302
9.6508 23.192
9.6660 23.431
9.6812 23.749
9.6964 23.778
9.7115 23.935
9.7267 24.097
9.7419 24.372
9.7571 24.335
9.7722 23.859
9.7874 23.774
9.8026 23.999
9.8178 24.058
9.8329 23.784
9.8481 23.673
9.8633 23.535
9.8785 23.505
9.8936 23.744
9.9088 23.742
9.9240 23.882
9.9392 23.683
9.9543 23.483
9.9695 23.688
9.9847 23.687
9.9999 23.270
10.0150 23.177
10.0302 23.193
10.0454 23.021
10.0606 22.951
10.0757 23.166
10.0909 22.922
10.1061 23.019
10.1213 23.033
10.1364 23.120
10.1516 23.128
10.1668 23.401
10.1820 23.678
10.1971 23.424
10.2123 23.216
10.2275 23.065
10.2427 23.072
10.2578 23.230
10.2730 23.260
10.2882 23.141
10.3034 22.989
10.3185 23.018
10.3337 23.374
10.3489 23.249
10.3641 22.632
10.3792 22.996
10.3944 22.942
10.4096 22.872
10.4248 23.423
10.4399 23.303
10.4551 22.780
10.4703 23.050
10.4855 22.819
10.5006 22.474
10.5158 22.533
10.5310 22.567
10.5462 22.851
10.5613 22.410
10.5765 22.612
10.5917 22.631
10.6069 22.674
10.6220 22.684
10.6372 22.280
10.6524 22.578
10.6676 22.535
10.6827 22.308
10.6979 22.433
10.7131 22.608
10.7283 22.471
10.7434 22.182
10.7586 22.135
10.7738 21.958
10.7890 22.327
10.8041 22.829
10.8193 22.629
10.8345 22.426
10.8497 22.753
10.8648 22.226
10.8800 22.082
10.8952 22.105
10.9104 21.964
10.9255 21.967
10.9407 22.207
10.9559 22.115
10.9711 22.142
10.9862 22.326
11.0014 22.325
11.0166 21.870
11.0318 21.802
11.0469 21.781
11.0621 21.968
11.0773 21.835
11.0925 22.137
11.1076 22.143
11.1228 22.228
11.1380 22.058
11.1532 21.645
11.1683 21.814
11.1835 22.064
11.1987 22.207
11.2139 21.721
11.2290 21.478
11.2442 21.572
11.2594 21.666
11.2746 21.527
11.2897 21.201
11.3049 21.625
11.3201 21.482
11.3353 21.427
11.3504 21.291
11.3656 21.293
11.3808 21.404
11.3960 21.566
11.4111 21.774
11.4263 21.483
11.4415 21.465
11.4567 21.293
11.4718 21.339
11.4870 21.466
11.5022 21.445
11.5174 21.239
11.5325 21.296
11.5477 21.267
11.5629 21.036
11.5781 21.122
11.5932 21.011
11.6084 20.823
11.6236 21.131
11.6388 20.870
11.6539 20.718
11.6691 20.760
11.6843 20.446
11.6995 20.208
11.7146 20.137
11.7298 20.251
11.7450 20.518
11.7602 20.553
11.7753 20.241
11.7905 20.235
11.8057 20.126
11.8209 20.182
11.8360 19.883
11.8512 19.811
11.8664 20.017
11.8816 19.541
11.8967 19.755
11.9119 19.712
11.9271 19.857
11.9423 19.515
11.9574 19.116
11.9726 19.110
11.9878 18.819
12.0030 19.010
12.0181 19.222
12.0333 19.080
12.0485 19.218
12.0637 19.220
12.0788 18.931
12.0940 18.757
12.1092 18.429
12.1244 18.371
12.1395 18.320
12.1547 18.499
12.1699 18.727
12.1851 18.842
12.2002 18.503
12.2154 18.249
12.2306 17.913
12.2458 17.988
12.2609 17.843
12.2761 17.827
12.2913 17.764
12.3065 17.825
12.3216 17.889
12.3368 17.751
12.3520 17.228
12.3672 16.996
12.3823 17.459
12.3975 17.548
12.4127 17.490
12.4279 17.359
12.4430 17.146
12.4582 16.954
12.4734 16.800
12.4886 16.660
12.5037 16.492
12.5189 16.580
12.5341 16.888
12.5493 16.692
12.5644 16.114
12.5796 16.227
12.5948 16.497
12.6100 16.228
12.6251 16.164
12.6403 16.217
12.6555 16.218
12.6707 15.849
12.6858 15.859
12.7010 15.962
12.7162 15.940
12.7314 15.774
12.7465 15.444
12.7617 15.212
12.7769 15.160
12.7921 15.224
12.8072 15.203
12.8224 15.033
12.8376 15.089
12.8528 14.972
12.8679 14.620
12.8831 14.489
12.8983 14.862
12.9135 14.947
12.9286 14.565
12.9438 14.521
12.9590 14.427
12.9742 14.407
12.9893 14.336
13.0045 14.364
13.0197 14.260
13.0349 14.051
13.0500 14.092
13.0652 13.895
13.0804 13.852
13.0956 13.951
13.1107 14.033
13.1259 14.016
13.1411 13.776
13.1563 13.537
13.1714 13.613
13.1866 13.685
13.2018 13.543
13.2170 13.752
13.2321 13.736
13.2473 13.418
13.2625 13.424
13.2777 13.358
13.2928 13.420
13.3080 13.451
13.3232 13.154
13.3384 13.167
13.3535 13.095
13.3687 12.919
13.3839 12.928
13.3991 13.197
13.4142 13.324
13.4294 12.939
13.4446 12.909
13.4598 12.930
13.4749 12.925
13.4901 12.882
13.5053 12.554
13.5205 12.548
13.5356 12.478
13.5508 12.503
13.5660 12.676
13.5812 12.478
13.5963 12.133
13.6115 11.991
13.6267 12.200
13.6419 12.429
13.6570 12.026
13.6722 12.021
13.6874 12.263
13.7026 12.032
13.7177 12.049
13.7329 12.054
13.7481 12.019
13.7633 11.997
13.7784 12.284
13.7936 12.170
13.8088 11.962
13.8239 12.170
13.8391 12.300
13.8543 12.209
13.8695 12.061
13.8846 12.404
13.8998 12.685
13.9150 12.329
13.9302 12.034
13.9453 11.970
13.9605 11.654
13.9757 11.518
13.9909 11.706
14.0060 11.630
14.0212 11.614
14.0364 11.599
14.0516 11.597
14.0667 11.606
14.0819 11.485
14.0971 11.557
14.1123 11.484
14.1274 11.268
14.1426 11.663
14.1578 11.418
14.1730 11.423
14.1881 11.325
14.2033 11.159
14.2185 11.344
14.2337 11.472
14.2488 11.397
14.2640 11.570
14.2792 11.767
14.2944 11.940
14.3095 12.016
14.3247 11.851
14.3399 11.788
14.3551 11.816
14.3702 12.053
14.3854 12.535
14.4006 12.480
14.4158 12.950
14.4309 12.771
14.4461 12.742
14.4613 12.633
14.4765 12.040
14.4916 12.428
14.5068 12.045
14.5220 12.222
14.5372 11.816
14.5523 11.466
14.5675 11.424
14.5827 11.209
14.5979 11.427
14.6130 10.953
14.6282 11.274
14.6434 11.277
14.6586 11.378
14.6737 11.326
14.6889 11.189
14.7041 10.983
14.7193 10.886
14.7344 11.013
14.7496 11.099
14.7648 11.305
14.7800 11.047
14.7951 10.884
14.8103 11.039
14.8255 11.356
14.8407 11.030
14.8558 11.164
14.8710 10.947
14.8862 11.284
14.9014 11.033
14.9165 10.926
14.9317 10.981
14.9469 10.361
14.9621 10.688
14.9772 10.459
14.9924 10.659
15.0076 10.271
15.0228 10.595
15.0379 10.283
15.0531 10.261
15.0683 10.579
15.0835 10.230
15.0986 10.603
15.1138 10.407
15.1290 10.365
15.1442 10.424
15.1593 10.495
15.1745 10.782
15.1897 10.105
15.2049 10.289
15.2200 10.245
15.2352 10.169
15.2504 10.438
15.2656 10.401
15.2807 10.425
15.2959 10.203
15.3111 10.315
15.3263 10.294
15.3414 10.475
15.3566 10.295
15.3718 10.404
15.3870 10.461
15.4021 10.498
15.4173 10.265
15.4325 10.311
15.4477 10.286
15.4628 10.259
15.4780 10.226
15.4932 10.335
15.5084 10.069
15.5235 10.303
15.5387 10.245
15.5539 10.077
15.5691 9.928
15.5842 10.115
15.5994 10.234
15.6146 10.172
15.6298 10.354
15.6449 10.042
15.6601 10.155
15.6753 10.137
15.6905 9.794
15.7056 9.608
15.7208 10.050
15.7360 10.028
15.7512 9.844
15.7663 9.887
15.7815 10.098
15.7967 9.872
15.8119 10.221
15.8270 10.034
15.8422 9.876
15.8574 9.886
15.8726 9.775
15.8877 9.805
15.9029 9.746
15.9181 9.749
15.9333 9.938
15.9484 9.900
15.9636 9.588
15.9788 9.749
15.9940 10.027
16.0091 9.897
16.0243 9.945
16.0395 9.939
16.0547 9.629
16.0698 9.798
16.0850 9.723
16.1002 9.502
16.1154 9.691
16.1305 9.716
16.1457 9.858
16.1609 9.695
16.1761 9.825
16.1912 9.747
16.2064 9.707
16.2216 9.881
16.2368 10.169
16.2519 10.088
16.2671 9.838
16.2823 9.700
16.2975 9.683
16.3126 9.815
16.3278 10.080
16.3430 10.115
16.3582 9.880
16.3733 9.741
16.3885 9.826
16.4037 9.890
16.4189 9.929
16.4340 9.833
16.4492 9.840
16.4644 10.038
16.4796 9.949
16.4947 9.984
16.5099 9.883
16.5251 9.894
16.5403 9.715
16.5554 9.837
16.5706 9.709
16.5858 9.678
16.6010 9.825
16.6161 10.023
16.6313 10.120
16.6465 9.998
16.6617 9.768
16.6768 9.980
16.6920 10.204
16.7072 10.273
16.7224 10.035
16.7375 9.970
16.7527 9.937
16.7679 10.255
16.7831 10.397
16.7982 10.089
16.8134 9.803
16.8286 9.823
16.8438 9.920
16.8589 9.941
16.8741 9.976
16.8893 9.939
16.9045 9.853
16.9196 9.856
16.9348 9.911
16.9500 10.024
16.9652 9.966
16.9803 10.098
16.9955 10.208
17.0107 9.982
17.0259 10.254
17.0410 10.548
17.0562 10.490
17.0714 10.611
17.0866 10.722
17.1017 10.886
17.1169 10.856
17.1321 11.224
17.1473 11.653
17.1624 11.826
17.1776 12.433
17.1928 13.249
17.2080 14.186
17.2231 15.266
17.2383 16.222
17.2535 17.371
17.2687 18.411
17.2838 18.508
17.2990 18.010
17.3142 17.354
17.3294 16.608
17.3445 16.070
17.3597 16.100
17.3749 15.861
17.3901 15.009
17.4052 14.131
17.4204 13.276
17.4356 12.548
17.4508 11.918
17.4659 11.505
17.4811 11.326
17.4963 11.269
17.5115 11.108
17.5266 10.853
17.5418 10.627
17.5570 10.366
17.5722 10.323
17.5873 10.372
17.6025 10.388
17.6177 10.518
17.6329 10.419
17.6480 10.104
17.6632 10.224
17.6784 10.410
17.6936 10.204
17.7087 10.252
17.7239 10.420
17.7391 10.439
17.7543 10.450
17.7694 10.379
17.7846 10.478
17.7998 10.723
17.8150 11.008
17.8301 11.123
17.8453 10.983
17.8605 10.982
17.8757 11.022
17.8908 10.968
17.9060 11.246
17.9212 11.375
17.9364 10.890
17.9515 10.574
17.9667 10.494
17.9819 10.631
17.9971 10.698
18.0122 10.657
18.0274 10.516
18.0426 10.325
18.0578 10.289
18.0729 9.983
18.0881 9.820
18.1033 10.089
18.1185 10.272
18.1336 10.077
18.1488 10.092
18.1640 10.076
18.1792 10.185
18.1943 10.102
18.2095 9.954
18.2247 9.868
18.2399 10.006
18.2550 10.045
18.2702 9.965
18.2854 9.734
18.3006 9.870
18.3157 9.928
18.3309 9.964
18.3461 9.639
18.3613 9.775
18.3764 9.773
18.3916 9.707
18.4068 9.815
18.4220 10.017
18.4371 10.078
18.4523 9.984
18.4675 9.964
18.4827 9.703
18.4978 9.600
18.5130 9.776
18.5282 9.765
18.5434 9.706
18.5585 9.779
18.5737 9.787
18.5889 9.818
18.6041 9.998
18.6192 9.842
18.6344 9.620
18.6496 9.706
18.6648 9.716
18.6799 9.586
18.6951 9.539
18.7103 9.639
18.7255 9.624
18.7406 9.631
18.7558 9.651
18.7710 9.723
18.7862 9.869
18.8013 9.926
18.8165 9.794
18.8317 9.832
18.8469 9.846
18.8620 9.817
18.8772 9.835
18.8924 9.912
18.9076 9.738
18.9227 9.856
18.9379 10.143
18.9531 9.972
18.9683 9.894
18.9834 10.120
18.9986 9.950
19.0138 10.127
19.0290 10.171
19.0441 10.155
19.0593 10.042
19.0745 10.147
19.0897 10.392
19.1048 10.132
19.1200 10.183
19.1352 10.471
19.1504 10.439
19.1655 10.644
19.1807 10.666
19.1959 10.329
19.2111 10.360
19.2262 10.549
19.2414 10.881
19.2566 10.933
19.2718 10.705
19.2869 10.744
19.3021 11.106
19.3173 11.090
19.3325 11.022
19.3476 11.031
19.3628 11.189
19.3780 11.298
19.3932 11.258
19.4083 11.259
19.4235 11.440
19.4387 11.321
19.4539 11.296
19.4690 11.364
19.4842 11.062
19.4994 11.147
19.5146 11.427
19.5297 11.418
19.5449 11.343
19.5601 11.481
19.5753 11.656
19.5904 11.601
19.6056 11.652
19.6208 11.798
19.6360 11.858
19.6511 11.754
19.6663 11.635
19.6815 11.740
19.6967 11.609
19.7118 11.690
19.7270 11.797
19.7422 11.537
19.7574 11.632
19.7725 11.611
19.7877 11.677
19.8029 12.059
19.8180 12.230
19.8332 12.321
19.8484 12.410
19.8636 12.465
19.8787 12.721
19.8939 12.871
19.9091 12.831
19.9243 13.167
19.9394 13.970
19.9546 14.660
19.9698 14.675
19.9850 14.489
20.0001 14.662
20.0153 14.408
20.0305 13.836
20.0457 13.579
20.0608 13.938
20.0760 13.927
20.0912 13.798
20.1064 13.713
20.1215 13.451
20.1367 13.254
20.1519 13.040
20.1671 12.809
20.1822 12.555
20.1974 12.615
20.2126 12.630
20.2278 12.556
20.2429 12.438
20.2581 12.385
20.2733 12.322
20.2885 11.853
20.3036 11.752
20.3188 11.657
20.3340 11.564
20.3492 11.472
20.3643 11.396
20.3795 11.142
20.3947 11.097
20.4099 11.080
20.4250 10.795
20.4402 10.604
20.4554 10.561
20.4706 10.647
20.4857 10.542
20.5009 10.684
20.5161 10.682
20.5313 10.560
20.5464 10.734
20.5616 10.850
20.5768 10.600
20.5920 10.668
20.6071 10.512
20.6223 10.334
20.6375 10.737
20.6527 10.601
20.6678 10.569
20.6830 10.901
20.6982 10.472
20.7134 10.409
20.7285 10.587
20.7437 10.384
20.7589 10.371
20.7741 10.431
20.7892 10.328
20.8044 10.465
20.8196 10.259
20.8348 10.334
20.8499 10.272
20.8651 10.399
20.8803 10.345
20.8955 10.083
20.9106 10.637
20.9258 10.371
20.9410 10.511
20.9562 10.339
20.9713 10.467
20.9865 10.362
21.0017 10.347
21.0169 10.137
21.0320 10.501
21.0472 10.337
21.0624 10.260
21.0776 10.215
21.0927 10.236
21.1079 10.194
21.1231 10.105
21.1383 10.079
21.1534 9.690
21.1686 9.843
21.1838 9.654
21.1990 9.910
21.2141 9.701
21.2293 9.667
21.2445 9.401
21.2597 9.639
21.2748 9.385
21.2900 9.451
21.3052 9.482
21.3204 9.221
21.3355 9.294
21.3507 9.586
21.3659 9.902
21.3811 9.343
21.3962 9.221
21.4114 9.330
21.4266 9.732
21.4418 9.306
21.4569 9.267
21.4721 9.318
21.4873 9.246
21.5025 9.263
21.5176 9.375
21.5328 9.295
21.5480 9.184
21.5632 9.324
21.5783 9.142
21.5935 9.231
21.6087 9.353
21.6239 9.171
21.6390 9.226
21.6542 9.327
21.6694 9.255
21.6846 9.067
21.6997 9.150
21.7149 9.134
21.7301 8.955
21.7453 9.105
21.7604 9.198
21.7756 9.096
21.7908 8.862
21.8060 8.840
21.8211 9.045
21.8363 8.968
21.8515 8.999
21.8667 9.080
21.8818 9.210
21.8970 9.335
21.9122 9.126
21.9274 8.898
21.9425 8.984
21.9577 8.989
21.9729 8.938
21.9881 8.878
22.0032 8.762
22.0184 8.707
22.0336 8.726
22.0488 8.540
22.0639 8.588
22.0791 8.913
22.0943 8.762
22.1095 8.582
22.1246 8.855
22.1398 8.775
22.1550 8.460
22.1702 8.528
22.1853 8.667
22.2005 8.698
22.2157 8.786
22.2309 8.516
22.2460 8.292
22.2612 8.596
22.2764 8.977
22.2916 8.736
22.3067 8.493
22.3219 8.493
22.3371 8.556
22.3523 8.457
22.3674 8.562
22.3826 8.592
22.3978 8.632
22.4130 8.185
22.4281 8.522
22.4433 8.642
22.4585 8.516
22.4737 8.527
22.4888 8.623
22.5040 8.578
22.5192 8.328
22.5344 8.495
22.5495 8.615
22.5647 8.576
22.5799 8.488
22.5951 8.619
22.6102 8.717
22.6254 8.503
22.6406 8.584
22.6558 8.495
22.6709 8.413
22.6861 8.317
22.7013 8.225
22.7165 7.988
22.7316 6.626
