'Id: "" Comment: "" Operator: "Lab Manager" Anode: "Mo" Scantype: "Still (Eiger2R_500K (1D mode))" TimePerStep: "300" X: "11.8" Y: "9.4" Z: "11.284" 
7.2532 18.911
7.2684 18.396
7.2836 18.899
7.2987 18.920
7.3139 18.827
7.3291 19.052
7.3443 19.020
7.3594 19.069
7.3746 18.878
7.3898 18.962
7.4050 18.997
7.4201 19.332
7.4353 19.361
7.4505 19.307
7.4657 19.502
7.4808 19.583
7.4960 19.704
7.5112 19.680
7.5264 19.964
7.5415 19.785
7.5567 19.500
7.5719 19.792
7.5871 19.676
7.6022 19.440
7.6174 19.676
7.6326 20.087
7.6478 19.735
7.6629 19.715
7.6781 19.998
7.6933 20.283
7.7085 20.194
7.7236 20.376
7.7388 20.092
7.7540 20.101
7.7692 20.395
7.7843 20.597
7.7995 20.820
7.8147 20.846
7.8299 20.647
7.8450 20.668
7.8602 20.682
7.8754 20.502
7.8905 20.506
7.9057 20.655
7.9209 20.860
7.9361 20.772
7.9512 20.533
7.9664 20.789
7.9816 21.090
7.9968 21.232
8.0119 21.056
8.0271 20.968
8.0423 20.895
8.0575 21.136
8.0726 21.464
8.0878 21.540
8.1030 20.988
8.1182 21.428
8.1333 21.411
8.1485 21.215
8.1637 21.383
8.1789 21.519
8.1940 21.620
8.2092 21.550
8.2244 21.435
8.2396 21.796
8.2547 21.713
8.2699 21.678
8.2851 21.459
8.3003 21.130
8.3154 21.791
8.3306 21.983
8.3458 22.014
8.3610 21.929
8.3761 21.802
8.3913 22.034
8.4065 22.238
8.4217 21.878
8.4368 22.039
8.4520 21.950
8.4672 22.401
8.4824 21.971
8.4975 22.267
8.5127 21.860
8.5279 21.971
8.5431 22.145
8.5582 21.844
8.5734 22.625
8.5886 22.197
8.6038 22.398
8.6189 22.493
8.6341 22.276
8.6493 22.125
8.6645 22.246
8.6796 22.296
8.6948 21.853
8.7100 22.730
8.7252 22.138
8.7403 22.760
8.7555 22.222
8.7707 22.778
8.7859 22.277
8.8010 22.297
8.8162 22.265
8.8314 22.654
8.8466 22.471
8.8617 22.205
8.8769 22.318
8.8921 22.231
8.9073 22.795
8.9224 22.540
8.9376 22.621
8.9528 22.529
8.9680 22.785
8.9831 22.480
8.9983 22.710
9.0135 22.904
9.0287 22.725
9.0438 22.659
9.0590 22.890
9.0742 22.522
9.0894 22.971
9.1045 23.005
9.1197 22.559
9.1349 23.141
9.1501 23.202
9.1652 22.614
9.1804 22.550
9.1956 23.089
9.2108 22.984
9.2259 22.862
9.2411 23.029
9.2563 23.035
9.2715 22.883
9.2866 22.960
9.3018 23.072
9.3170 23.090
9.3322 23.380
9.3473 23.164
9.3625 23.100
9.3777 22.961
9.3929 22.956
9.4080 22.994
9.4232 22.744
9.4384 22.746
9.4536 22.951
9.4687 22.954
9.4839 22.871
9.4991 22.999
9.5143 23.151
9.5294 22.951
9.5446 22.891
9.5598 23.205
9.5750 23.208
9.5901 23.436
9.6053 23.724
9.6205 23.343
9.6357 23.395
9.6508 23.391
9.6660 23.293
9.6812 23.399
9.6964 23.722
9.7115 24.101
9.7267 24.423
9.7419 24.623
9.7571 24.108
9.7722 23.393
9.7874 23.603
9.8026 23.474
9.8178 23.425
9.8329 23.801
9.8481 23.535
9.8633 23.386
9.8785 23.308
9.8936 23.201
9.9088 23.367
9.9240 23.450
9.9392 23.071
9.9543 22.966
9.9695 23.338
9.9847 23.679
9.9999 23.684
10.0150 23.531
10.0302 23.398
10.0454 23.345
10.0606 23.296
10.0757 23.314
10.0909 23.281
10.1061 23.250
10.1213 23.410
10.1364 23.394
10.1516 23.070
10.1668 23.329
10.1820 23.641
10.1971 23.768
10.2123 23.420
10.2275 23.123
10.2427 22.956
10.2578 22.884
10.2730 23.032
10.2882 23.030
10.3034 22.548
10.3185 22.573
10.3337 22.696
10.3489 22.782
10.3641 22.837
10.3792 22.631
10.3944 23.073
10.4096 22.517
10.4248 22.479
10.4399 22.695
10.4551 22.589
10.4703 22.584
10.4855 22.678
10.5006 22.563
10.5158 22.622
10.5310 22.872
10.5462 22.785
10.5613 22.896
10.5765 22.700
10.5917 22.298
10.6069 22.463
10.6220 22.804
10.6372 22.683
10.6524 22.574
10.6676 23.046
10.6827 22.710
10.6979 22.514
10.7131 22.616
10.7283 22.196
10.7434 22.367
10.7586 22.533
10.7738 22.383
10.7890 22.450
10.8041 22.407
10.8193 22.427
10.8345 21.969
10.8497 21.963
10.8648 22.497
10.8800 22.254
10.8952 21.931
10.9104 22.143
10.9255 22.389
10.9407 22.347
10.9559 22.357
10.9711 21.982
10.9862 21.836
11.0014 22.163
11.0166 22.057
11.0318 22.074
11.0469 22.011
11.0621 21.996
11.0773 21.938
11.0925 21.809
11.1076 21.677
11.1228 21.843
11.1380 22.165
11.1532 21.752
11.1683 21.511
11.1835 21.583
11.1987 21.502
11.2139 21.414
11.2290 21.660
11.2442 21.532
11.2594 21.702
11.2746 21.359
11.2897 21.112
11.3049 21.556
11.3201 21.491
11.3353 21.318
11.3504 21.863
11.3656 21.782
11.3808 21.653
11.3960 21.396
11.4111 21.133
11.4263 21.284
11.4415 21.015
11.4567 21.224
11.4718 21.432
11.4870 21.136
11.5022 20.953
11.5174 21.006
11.5325 21.048
11.5477 21.177
11.5629 20.999
11.5781 20.612
11.5932 20.754
11.6084 20.821
11.6236 20.815
11.6388 20.719
11.6539 20.343
11.6691 20.417
11.6843 20.759
11.6995 20.454
11.7146 20.195
11.7298 20.566
11.7450 20.592
11.7602 20.342
11.7753 20.448
11.7905 20.353
11.8057 20.306
11.8209 20.371
11.8360 20.123
11.8512 19.920
11.8664 19.808
11.8816 19.625
11.8967 19.422
11.9119 19.446
11.9271 19.878
11.9423 19.733
11.9574 19.339
11.9726 19.171
11.9878 19.165
12.0030 19.131
12.0181 18.959
12.0333 18.899
12.0485 19.160
12.0637 19.165
12.0788 18.770
12.0940 18.892
12.1092 18.883
12.1244 18.677
12.1395 18.755
12.1547 18.726
12.1699 18.477
12.1851 18.222
12.2002 18.245
12.2154 18.120
12.2306 18.013
12.2458 18.107
12.2609 18.068
12.2761 17.996
12.2913 17.546
12.3065 17.499
12.3216 17.595
12.3368 17.358
12.3520 17.524
12.3672 17.509
12.3823 17.239
12.3975 17.387
12.4127 17.392
12.4279 17.005
12.4430 16.781
12.4582 16.833
12.4734 16.792
12.4886 16.657
12.5037 16.862
12.5189 16.819
12.5341 16.672
12.5493 16.416
12.5644 16.423
12.5796 16.574
12.5948 16.131
12.6100 15.603
12.6251 15.764
12.6403 15.804
12.6555 15.817
12.6707 16.069
12.6858 15.932
12.7010 15.883
12.7162 15.605
12.7314 15.720
12.7465 15.793
12.7617 15.233
12.7769 15.062
12.7921 15.178
12.8072 15.248
12.8224 15.034
12.8376 14.961
12.8528 14.862
12.8679 14.704
12.8831 14.867
12.8983 14.776
12.9135 14.649
12.9286 14.744
12.9438 14.638
12.9590 14.341
12.9742 14.268
12.9893 14.349
13.0045 14.055
13.0197 13.913
13.0349 14.295
13.0500 14.364
13.0652 14.045
13.0804 14.009
13.0956 13.833
13.1107 13.838
13.1259 13.857
13.1411 13.529
13.1563 13.594
13.1714 13.785
13.1866 13.679
13.2018 13.274
13.2170 13.095
13.2321 13.236
13.2473 13.163
13.2625 13.237
13.2777 13.338
13.2928 13.397
13.3080 13.360
13.3232 12.885
13.3384 12.696
13.3535 12.811
13.3687 13.084
13.3839 13.092
13.3991 12.999
13.4142 12.987
13.4294 12.983
13.4446 12.986
13.4598 12.779
13.4749 12.714
13.4901 12.691
13.5053 12.710
13.5205 12.751
13.5356 12.670
13.5508 12.557
13.5660 12.575
13.5812 12.363
13.5963 12.190
13.6115 12.401
13.6267 12.414
13.6419 12.294
13.6570 12.047
13.6722 12.095
13.6874 12.230
13.7026 12.230
13.7177 12.175
13.7329 12.190
13.7481 11.995
13.7633 12.191
13.7784 12.227
13.7936 12.329
13.8088 12.119
13.8239 12.103
13.8391 12.918
13.8543 12.583
13.8695 12.090
13.8846 12.326
13.8998 12.120
13.9150 11.976
13.9302 12.074
13.9453 12.234
13.9605 12.031
13.9757 11.882
13.9909 11.864
14.0060 11.754
14.0212 11.505
14.0364 11.306
14.0516 11.388
14.0667 11.486
14.0819 11.489
14.0971 11.595
14.1123 11.782
14.1274 11.590
14.1426 11.404
14.1578 11.514
14.1730 11.734
14.1881 11.699
14.2033 11.723
14.2185 11.684
14.2337 11.935
14.2488 12.173
14.2640 12.039
14.2792 11.835
14.2944 11.896
14.3095 12.466
14.3247 12.621
14.3399 12.501
14.3551 12.642
14.3702 12.543
14.3854 12.931
14.4006 12.879
14.4158 13.546
14.4309 13.227
14.4461 12.860
14.4613 12.515
14.4765 12.435
14.4916 12.388
14.5068 12.375
14.5220 11.900
14.5372 11.690
14.5523 11.223
14.5675 11.086
14.5827 11.148
14.5979 11.159
14.6130 11.103
14.6282 10.908
14.6434 10.888
14.6586 10.935
14.6737 10.813
14.6889 10.772
14.7041 10.972
14.7193 10.771
14.7344 10.654
14.7496 10.826
14.7648 10.522
14.7800 10.496
14.7951 10.754
14.8103 10.495
14.8255 10.471
14.8407 10.753
14.8558 10.733
14.8710 10.256
14.8862 10.302
14.9014 10.264
14.9165 10.745
14.9317 10.633
14.9469 10.510
14.9621 10.527
14.9772 10.406
14.9924 10.253
15.0076 10.117
15.0228 10.427
15.0379 10.476
15.0531 10.355
15.0683 10.710
15.0835 10.554
15.0986 10.168
15.1138 10.296
15.1290 10.153
15.1442 10.279
15.1593 10.183
15.1745 10.189
15.1897 10.106
15.2049 10.320
15.2200 10.075
15.2352 10.468
15.2504 10.386
15.2656 9.843
15.2807 10.028
15.2959 10.177
15.3111 10.295
15.3263 10.130
15.3414 10.303
15.3566 10.243
15.3718 10.200
15.3870 9.896
15.4021 10.297
15.4173 10.524
15.4325 10.097
15.4477 10.504
15.4628 10.293
15.4780 10.200
15.4932 10.222
15.5084 10.219
15.5235 10.130
15.5387 10.359
15.5539 10.063
15.5691 10.037
15.5842 9.830
15.5994 10.029
15.6146 10.182
15.6298 10.094
15.6449 9.717
15.6601 9.769
15.6753 9.515
15.6905 9.791
15.7056 9.968
15.7208 10.105
15.7360 9.728
15.7512 9.479
15.7663 9.740
15.7815 9.726
15.7967 9.709
15.8119 9.641
15.8270 9.846
15.8422 10.003
15.8574 9.568
15.8726 9.685
15.8877 9.827
15.9029 9.675
15.9181 9.790
15.9333 9.634
15.9484 9.831
15.9636 9.437
15.9788 9.774
15.9940 9.529
16.0091 9.502
16.0243 9.808
16.0395 9.779
16.0547 9.666
16.0698 9.503
16.0850 9.663
16.1002 9.585
16.1154 9.588
16.1305 9.676
16.1457 9.800
16.1609 9.666
16.1761 9.780
16.1912 9.878
16.2064 9.780
16.2216 9.809
16.2368 9.972
16.2519 9.873
16.2671 9.994
16.2823 9.823
16.2975 9.732
16.3126 9.794
16.3278 9.615
16.3430 9.787
16.3582 9.745
16.3733 9.727
16.3885 9.711
16.4037 9.921
16.4189 10.044
16.4340 9.749
16.4492 9.629
16.4644 9.546
16.4796 9.643
16.4947 9.728
16.5099 9.909
16.5251 9.783
16.5403 9.681
16.5554 9.478
16.5706 9.415
16.5858 9.730
16.6010 9.656
16.6161 9.635
16.6313 9.966
16.6465 9.968
16.6617 9.743
16.6768 9.803
16.6920 9.929
16.7072 9.983
16.7224 9.977
16.7375 10.010
16.7527 9.917
16.7679 10.017
16.7831 9.949
16.7982 10.021
16.8134 9.896
16.8286 9.681
16.8438 9.760
16.8589 9.992
16.8741 9.790
16.8893 9.507
16.9045 9.564
16.9196 9.928
16.9348 9.988
16.9500 9.869
16.9652 9.642
16.9803 9.771
16.9955 10.153
17.0107 10.091
17.0259 10.046
17.0410 9.994
17.0562 10.063
17.0714 10.339
17.0866 10.318
17.1017 10.420
17.1169 10.621
17.1321 11.044
17.1473 11.305
17.1624 11.547
17.1776 12.220
17.1928 13.129
17.2080 14.297
17.2231 15.246
17.2383 16.171
17.2535 17.679
17.2687 18.817
17.2838 18.631
17.2990 17.747
17.3142 16.938
17.3294 16.331
17.3445 16.117
17.3597 16.195
17.3749 15.947
17.3901 15.375
17.4052 14.370
17.4204 13.339
17.4356 12.850
17.4508 12.385
17.4659 11.942
17.4811 11.642
17.4963 11.515
17.5115 11.414
17.5266 11.102
17.5418 10.969
17.5570 10.932
17.5722 11.033
17.5873 11.140
17.6025 11.012
17.6177 11.184
17.6329 11.265
17.6480 11.107
17.6632 11.203
17.6784 11.514
17.6936 11.524
17.7087 11.472
17.7239 11.479
17.7391 11.497
17.7543 11.459
17.7694 11.047
17.7846 10.978
17.7998 10.993
17.8150 10.840
17.8301 10.563
17.8453 10.356
17.8605 10.320
17.8757 10.285
17.8908 10.341
17.9060 10.360
17.9212 10.392
17.9364 10.435
17.9515 10.319
17.9667 10.447
17.9819 10.341
17.9971 10.208
18.0122 10.295
18.0274 10.200
18.0426 10.155
18.0578 10.004
18.0729 9.941
18.0881 9.980
18.1033 10.278
18.1185 10.257
18.1336 9.998
18.1488 9.940
18.1640 9.828
18.1792 9.917
18.1943 10.102
18.2095 10.144
18.2247 10.008
18.2399 9.883
18.2550 9.824
18.2702 9.824
18.2854 9.759
18.3006 9.765
18.3157 9.981
18.3309 9.947
18.3461 9.789
18.3613 9.732
18.3764 9.943
18.3916 10.068
18.4068 9.979
18.4220 9.954
18.4371 9.783
18.4523 9.697
18.4675 9.586
18.4827 9.775
18.4978 9.779
18.5130 9.649
18.5282 9.928
18.5434 9.994
18.5585 9.881
18.5737 9.803
18.5889 9.920
18.6041 10.017
18.6192 9.774
18.6344 9.678
18.6496 9.615
18.6648 9.516
18.6799 9.719
18.6951 9.809
18.7103 9.722
18.7255 9.603
18.7406 9.743
18.7558 9.950
18.7710 10.050
18.7862 9.794
18.8013 9.750
18.8165 9.764
18.8317 9.848
18.8469 10.116
18.8620 10.122
18.8772 10.082
18.8924 10.011
18.9076 9.914
18.9227 9.783
18.9379 9.768
18.9531 9.858
18.9683 9.991
18.9834 10.052
18.9986 9.984
19.0138 10.156
19.0290 10.173
19.0441 10.198
19.0593 10.419
19.0745 10.110
19.0897 10.156
19.1048 10.443
19.1200 10.408
19.1352 10.312
19.1504 10.129
19.1655 10.220
19.1807 10.424
19.1959 10.526
19.2111 10.479
19.2262 10.586
19.2414 10.885
19.2566 10.822
19.2718 10.943
19.2869 10.935
19.3021 10.700
19.3173 10.839
19.3325 11.138
19.3476 10.890
19.3628 10.867
19.3780 11.288
19.3932 11.415
19.4083 11.221
19.4235 11.155
19.4387 11.280
19.4539 11.582
19.4690 11.607
19.4842 11.542
19.4994 11.573
19.5146 11.524
19.5297 11.542
19.5449 11.323
19.5601 11.205
19.5753 11.522
19.5904 11.545
19.6056 11.471
19.6208 11.560
19.6360 11.626
19.6511 11.526
19.6663 11.609
19.6815 11.628
19.6967 11.725
19.7118 11.760
19.7270 11.666
19.7422 11.760
19.7574 11.843
19.7725 11.981
19.7877 12.014
19.8029 11.848
19.8180 11.937
19.8332 12.178
19.8484 12.481
19.8636 12.392
19.8787 12.374
19.8939 12.758
19.9091 12.988
19.9243 13.347
19.9394 13.840
19.9546 14.071
19.9698 14.342
19.9850 14.550
20.0001 14.333
20.0153 14.082
20.0305 13.907
20.0457 13.673
20.0608 13.736
20.0760 14.015
20.0912 13.859
20.1064 13.640
20.1215 13.605
20.1367 13.253
20.1519 12.711
20.1671 12.789
20.1822 12.924
20.1974 12.689
20.2126 12.679
20.2278 12.715
20.2429 12.601
20.2581 12.493
20.2733 12.097
20.2885 11.964
20.3036 11.888
20.3188 11.963
20.3340 11.885
20.3492 12.340
20.3643 12.212
20.3795 11.756
20.3947 11.999
20.4099 11.931
20.4250 11.819
20.4402 11.848
20.4554 12.004
20.4706 11.790
20.4857 11.685
20.5009 11.678
20.5161 11.510
20.5313 11.512
20.5464 11.465
20.5616 11.387
20.5768 11.096
20.5920 11.180
20.6071 11.176
20.6223 11.028
20.6375 11.157
20.6527 10.749
20.6678 10.483
20.6830 10.400
20.6982 10.655
20.7134 10.551
20.7285 10.291
20.7437 10.324
20.7589 10.523
20.7741 10.193
20.7892 10.220
20.8044 10.246
20.8196 10.417
20.8348 10.473
20.8499 10.450
20.8651 10.465
20.8803 10.306
20.8955 10.014
20.9106 10.009
20.9258 10.256
20.9410 10.283
20.9562 10.276
20.9713 10.161
20.9865 10.086
21.0017 10.092
21.0169 9.956
21.0320 9.876
21.0472 10.106
21.0624 9.815
21.0776 9.822
21.0927 9.913
21.1079 9.767
21.1231 9.529
21.1383 9.802
21.1534 10.052
21.1686 9.611
21.1838 10.149
21.1990 9.897
21.2141 9.775
21.2293 9.929
21.2445 9.670
21.2597 9.729
21.2748 9.550
21.2900 9.809
21.3052 9.549
21.3204 9.562
21.3355 9.641
21.3507 9.457
21.3659 9.470
21.3811 9.681
21.3962 9.477
21.4114 9.685
21.4266 9.645
21.4418 9.392
21.4569 9.374
21.4721 9.402
21.4873 9.265
21.5025 9.244
21.5176 9.387
21.5328 9.331
21.5480 9.135
21.5632 9.080
21.5783 9.370
21.5935 9.332
21.6087 9.258
21.6239 9.476
21.6390 9.339
21.6542 9.202
21.6694 9.175
21.6846 9.399
21.6997 9.151
21.7149 9.110
21.7301 8.858
21.7453 8.984
21.7604 9.193
21.7756 9.169
21.7908 9.107
21.8060 9.079
21.8211 9.067
21.8363 8.958
21.8515 9.015
21.8667 9.085
21.8818 8.926
21.8970 9.096
21.9122 9.113
21.9274 9.068
21.9425 9.124
21.9577 8.993
21.9729 8.797
21.9881 8.998
22.0032 9.064
22.0184 8.951
22.0336 8.940
22.0488 8.616
22.0639 8.703
22.0791 8.860
22.0943 8.580
22.1095 8.571
22.1246 8.663
22.1398 8.647
22.1550 8.614
22.1702 8.669
22.1853 8.582
22.2005 8.566
22.2157 8.665
22.2309 8.719
22.2460 8.561
22.2612 8.502
22.2764 8.538
22.2916 8.484
22.3067 8.483
22.3219 8.425
22.3371 8.541
22.3523 8.488
22.3674 8.766
22.3826 8.567
22.3978 8.328
22.4130 8.290
22.4281 8.376
22.4433 8.498
22.4585 8.687
22.4737 8.642
22.4888 8.561
22.5040 8.453
22.5192 8.430
22.5344 8.351
22.5495 8.543
22.5647 8.466
22.5799 8.640
22.5951 8.723
22.6102 8.143
22.6254 8.439
22.6406 8.341
22.6558 8.348
22.6709 8.372
22.6861 8.415
22.7013 8.302
22.7165 8.075
22.7316 6.405
