'Id: "" Comment: "" Operator: "Lab Manager" Anode: "Mo" Scantype: "Still (Eiger2R_500K (1D mode))" TimePerStep: "300" X: "11.8" Y: "9.4" Z: "11.284" 
7.2532 18.525
7.2684 19.103
7.2836 19.258
7.2987 19.122
7.3139 18.928
7.3291 19.109
7.3443 19.622
7.3594 19.427
7.3746 19.732
7.3898 19.592
7.4050 19.619
7.4201 19.801
7.4353 19.816
7.4505 19.491
7.4657 19.751
7.4808 19.427
7.4960 19.300
7.5112 19.915
7.5264 19.822
7.5415 19.522
7.5567 19.779
7.5719 19.919
7.5871 20.336
7.6022 20.143
7.6174 20.158
7.6326 20.074
7.6478 20.192
7.6629 20.258
7.6781 20.037
7.6933 20.015
7.7085 20.366
7.7236 20.340
7.7388 20.351
7.7540 20.385
7.7692 20.608
7.7843 20.460
7.7995 20.600
7.8147 20.589
7.8299 20.654
7.8450 20.816
7.8602 20.764
7.8754 20.663
7.8905 20.712
7.9057 20.860
7.9209 21.204
7.9361 21.028
7.9512 21.031
7.9664 20.963
7.9816 21.179
7.9968 21.194
8.0119 21.264
8.0271 21.241
8.0423 21.131
8.0575 21.390
8.0726 21.418
8.0878 21.537
8.1030 21.656
8.1182 21.470
8.1333 21.441
8.1485 21.733
8.1637 22.259
8.1789 22.089
8.1940 21.942
8.2092 21.881
8.2244 21.959
8.2396 21.689
8.2547 22.116
8.2699 21.790
8.2851 21.738
8.3003 21.835
8.3154 21.972
8.3306 21.816
8.3458 21.642
8.3610 21.666
8.3761 21.783
8.3913 21.682
8.4065 21.735
8.4217 22.012
8.4368 21.422
8.4520 21.860
8.4672 22.158
8.4824 22.109
8.4975 21.822
8.5127 22.168
8.5279 22.339
8.5431 22.147
8.5582 22.097
8.5734 21.886
8.5886 22.118
8.6038 22.001
8.6189 22.412
8.6341 22.076
8.6493 22.326
8.6645 22.319
8.6796 22.620
8.6948 22.052
8.7100 22.737
8.7252 22.433
8.7403 22.107
8.7555 22.693
8.7707 22.671
8.7859 22.277
8.8010 22.375
8.8162 22.559
8.8314 22.151
8.8466 22.575
8.8617 23.163
8.8769 22.870
8.8921 22.521
8.9073 22.471
8.9224 22.803
8.9376 22.947
8.9528 22.840
8.9680 22.521
8.9831 22.471
8.9983 22.594
9.0135 22.325
9.0287 22.686
9.0438 22.825
9.0590 22.574
9.0742 22.612
9.0894 22.595
9.1045 22.884
9.1197 22.641
9.1349 22.772
9.1501 22.989
9.1652 23.052
9.1804 22.989
9.1956 22.997
9.2108 23.047
9.2259 23.019
9.2411 22.956
9.2563 22.883
9.2715 22.881
9.2866 23.054
9.3018 23.058
9.3170 23.477
9.3322 23.520
9.3473 23.329
9.3625 22.978
9.3777 23.274
9.3929 23.188
9.4080 22.783
9.4232 22.777
9.4384 22.876
9.4536 23.221
9.4687 23.393
9.4839 23.176
9.4991 22.956
9.5143 23.079
9.5294 23.174
9.5446 23.203
9.5598 23.050
9.5750 23.048
9.5901 23.081
9.6053 23.267
9.6205 23.218
9.6357 23.523
9.6508 23.602
9.6660 23.550
9.6812 23.884
9.6964 23.936
9.7115 24.056
9.7267 24.133
9.7419 24.268
9.7571 24.031
9.7722 23.834
9.7874 24.145
9.8026 24.084
9.8178 23.970
9.8329 23.787
9.8481 23.644
9.8633 23.793
9.8785 24.022
9.8936 24.475
9.9088 24.379
9.9240 24.197
9.9392 24.240
9.9543 23.950
9.9695 23.795
9.9847 23.899
9.9999 23.773
10.0150 23.876
10.0302 23.918
10.0454 23.721
10.0606 23.428
10.0757 23.176
10.0909 23.385
10.1061 23.299
10.1213 23.503
10.1364 23.791
10.1516 23.864
10.1668 23.784
10.1820 23.758
10.1971 23.917
10.2123 23.849
10.2275 23.673
10.2427 23.647
10.2578 23.801
10.2730 24.320
10.2882 24.027
10.3034 23.243
10.3185 23.652
10.3337 23.859
10.3489 23.285
10.3641 22.801
10.3792 22.732
10.3944 23.463
10.4096 23.486
10.4248 23.116
10.4399 23.126
10.4551 22.917
10.4703 23.189
10.4855 22.863
10.5006 22.838
10.5158 22.903
10.5310 22.727
10.5462 22.231
10.5613 22.660
10.5765 22.427
10.5917 22.765
10.6069 23.062
10.6220 22.630
10.6372 22.640
10.6524 22.773
10.6676 22.771
10.6827 22.763
10.6979 22.710
10.7131 22.829
10.7283 22.184
10.7434 22.360
10.7586 22.457
10.7738 22.235
10.7890 22.454
10.8041 22.421
10.8193 22.352
10.8345 22.559
10.8497 22.153
10.8648 22.070
10.8800 22.108
10.8952 22.354
10.9104 22.307
10.9255 22.178
10.9407 22.188
10.9559 21.988
10.9711 22.222
10.9862 22.245
11.0014 22.361
11.0166 22.187
11.0318 22.530
11.0469 22.252
11.0621 22.286
11.0773 21.956
11.0925 21.618
11.1076 21.707
11.1228 21.811
11.1380 21.439
11.1532 21.941
11.1683 21.927
11.1835 22.072
11.1987 21.638
11.2139 21.644
11.2290 21.769
11.2442 21.737
11.2594 21.711
11.2746 21.849
11.2897 21.438
11.3049 21.801
11.3201 21.761
11.3353 21.547
11.3504 21.706
11.3656 21.687
11.3808 21.373
11.3960 21.139
11.4111 21.164
11.4263 21.212
11.4415 20.975
11.4567 21.173
11.4718 21.420
11.4870 21.202
11.5022 21.257
11.5174 20.955
11.5325 21.198
11.5477 21.534
11.5629 21.497
11.5781 21.200
11.5932 20.901
11.6084 20.876
11.6236 20.884
11.6388 20.603
11.6539 20.821
11.6691 20.705
11.6843 20.763
11.6995 20.737
11.7146 20.497
11.7298 20.474
11.7450 20.155
11.7602 20.310
11.7753 20.522
11.7905 20.284
11.8057 20.239
11.8209 20.155
11.8360 20.144
11.8512 19.960
11.8664 19.808
11.8816 20.027
11.8967 19.869
11.9119 19.631
11.9271 19.329
11.9423 19.127
11.9574 19.260
11.9726 19.052
11.9878 19.230
12.0030 19.129
12.0181 19.063
12.0333 19.097
12.0485 18.816
12.0637 18.572
12.0788 18.920
12.0940 18.941
12.1092 19.023
12.1244 18.951
12.1395 18.920
12.1547 18.438
12.1699 18.173
12.1851 18.217
12.2002 18.248
12.2154 18.104
12.2306 18.077
12.2458 17.721
12.2609 17.889
12.2761 17.714
12.2913 17.517
12.3065 17.526
12.3216 17.589
12.3368 17.676
12.3520 17.682
12.3672 17.524
12.3823 17.529
12.3975 17.181
12.4127 17.163
12.4279 17.462
12.4430 17.233
12.4582 16.937
12.4734 16.783
12.4886 16.769
12.5037 16.489
12.5189 16.525
12.5341 16.652
12.5493 16.346
12.5644 16.174
12.5796 16.148
12.5948 15.934
12.6100 15.750
12.6251 15.790
12.6403 15.766
12.6555 15.505
12.6707 15.424
12.6858 15.311
12.7010 15.534
12.7162 15.809
12.7314 15.706
12.7465 15.459
12.7617 15.344
12.7769 15.381
12.7921 15.278
12.8072 15.270
12.8224 15.162
12.8376 14.778
12.8528 14.819
12.8679 14.855
12.8831 15.002
12.8983 14.715
12.9135 14.373
12.9286 14.394
12.9438 14.366
12.9590 14.512
12.9742 14.555
12.9893 14.308
13.0045 14.167
13.0197 13.968
13.0349 14.039
13.0500 13.901
13.0652 13.799
13.0804 14.052
13.0956 13.868
13.1107 13.823
13.1259 13.691
13.1411 13.767
13.1563 13.712
13.1714 13.421
13.1866 13.469
13.2018 13.434
13.2170 13.369
13.2321 13.304
13.2473 13.427
13.2625 13.356
13.2777 13.159
13.2928 13.189
13.3080 13.133
13.3232 13.090
13.3384 13.179
13.3535 13.029
13.3687 13.011
13.3839 13.116
13.3991 13.079
13.4142 13.095
13.4294 12.919
13.4446 12.705
13.4598 12.557
13.4749 12.355
13.4901 12.342
13.5053 12.358
13.5205 12.255
13.5356 12.232
13.5508 12.165
13.5660 12.050
13.5812 12.110
13.5963 12.098
13.6115 11.972
13.6267 12.039
13.6419 12.357
13.6570 12.206
13.6722 11.847
13.6874 11.882
13.7026 11.770
13.7177 11.897
13.7329 11.951
13.7481 11.980
13.7633 12.072
13.7784 11.948
13.7936 11.883
13.8088 12.131
13.8239 12.201
13.8391 12.211
13.8543 12.296
13.8695 12.353
13.8846 12.066
13.8998 12.089
13.9150 12.215
13.9302 11.958
13.9453 11.780
13.9605 11.980
13.9757 11.777
13.9909 11.519
14.0060 11.438
14.0212 11.375
14.0364 11.500
14.0516 11.561
14.0667 11.534
14.0819 11.301
14.0971 11.317
14.1123 11.268
14.1274 11.127
14.1426 11.341
14.1578 11.642
14.1730 11.519
14.1881 11.310
14.2033 11.040
14.2185 11.001
14.2337 10.911
14.2488 11.443
14.2640 11.542
14.2792 11.795
14.2944 12.023
14.3095 11.913
14.3247 11.829
14.3399 12.026
14.3551 12.301
14.3702 12.541
14.3854 12.703
14.4006 13.038
14.4158 13.254
14.4309 13.040
14.4461 13.397
14.4613 13.321
14.4765 13.351
14.4916 13.466
14.5068 13.453
14.5220 13.056
14.5372 13.186
14.5523 12.861
14.5675 13.199
14.5827 13.099
14.5979 12.476
14.6130 12.165
14.6282 11.983
14.6434 12.151
14.6586 11.855
14.6737 11.387
14.6889 11.664
14.7041 11.564
14.7193 11.672
14.7344 11.560
14.7496 11.290
14.7648 11.357
14.7800 11.281
14.7951 11.489
14.8103 11.448
14.8255 10.822
14.8407 10.983
14.8558 10.782
14.8710 11.209
14.8862 11.042
14.9014 11.356
14.9165 11.230
14.9317 11.066
14.9469 10.626
14.9621 10.731
14.9772 10.529
14.9924 10.521
15.0076 10.741
15.0228 10.552
15.0379 10.833
15.0531 10.524
15.0683 10.663
15.0835 10.381
15.0986 10.183
15.1138 10.623
15.1290 10.305
15.1442 10.618
15.1593 10.457
15.1745 10.090
15.1897 10.640
15.2049 10.627
15.2200 11.032
15.2352 10.465
15.2504 10.482
15.2656 10.583
15.2807 10.494
15.2959 10.621
15.3111 10.352
15.3263 10.629
15.3414 10.465
15.3566 10.356
15.3718 10.754
15.3870 10.174
15.4021 10.802
15.4173 10.710
15.4325 10.566
15.4477 10.394
15.4628 10.408
15.4780 10.367
15.4932 10.254
15.5084 10.186
15.5235 10.169
15.5387 10.472
15.5539 10.229
15.5691 10.416
15.5842 10.331
15.5994 10.164
15.6146 10.038
15.6298 9.870
15.6449 9.853
15.6601 9.982
15.6753 10.211
15.6905 10.148
15.7056 9.654
15.7208 10.001
15.7360 10.012
15.7512 10.037
15.7663 9.865
15.7815 9.881
15.7967 9.886
15.8119 9.766
15.8270 10.100
15.8422 10.035
15.8574 10.033
15.8726 9.529
15.8877 9.477
15.9029 9.860
15.9181 9.755
15.9333 9.916
15.9484 9.551
15.9636 9.578
15.9788 9.658
15.9940 9.816
16.0091 9.744
16.0243 10.068
16.0395 9.658
16.0547 9.743
16.0698 9.670
16.0850 9.664
16.1002 9.585
16.1154 9.656
16.1305 9.527
16.1457 9.724
16.1609 9.503
16.1761 9.702
16.1912 9.571
16.2064 9.738
16.2216 9.813
16.2368 9.936
16.2519 9.872
16.2671 9.978
16.2823 10.080
16.2975 10.306
16.3126 10.064
16.3278 10.040
16.3430 10.002
16.3582 10.145
16.3733 10.214
16.3885 10.368
16.4037 10.413
16.4189 10.341
16.4340 10.188
16.4492 9.933
16.4644 9.936
16.4796 9.953
16.4947 9.962
16.5099 10.210
16.5251 10.003
16.5403 9.940
16.5554 9.904
16.5706 9.826
16.5858 9.698
16.6010 9.700
16.6161 9.878
16.6313 10.047
16.6465 10.006
16.6617 9.907
16.6768 9.960
16.6920 10.118
16.7072 9.991
16.7224 10.145
16.7375 10.156
16.7527 9.982
16.7679 10.083
16.7831 10.291
16.7982 10.026
16.8134 9.787
16.8286 9.789
16.8438 9.969
16.8589 10.014
16.8741 9.928
16.8893 9.798
16.9045 9.829
16.9196 9.824
16.9348 9.861
16.9500 9.981
16.9652 9.843
16.9803 9.778
16.9955 9.696
17.0107 9.765
17.0259 10.011
17.0410 10.156
17.0562 10.099
17.0714 10.256
17.0866 10.613
17.1017 10.550
17.1169 10.575
17.1321 11.188
17.1473 11.633
17.1624 11.685
17.1776 12.275
17.1928 13.131
17.2080 13.989
17.2231 15.062
17.2383 16.179
17.2535 17.598
17.2687 18.769
17.2838 18.852
17.2990 18.054
17.3142 16.906
17.3294 16.303
17.3445 16.049
17.3597 15.671
17.3749 15.571
17.3901 15.266
17.4052 14.440
17.4204 13.347
17.4356 12.300
17.4508 11.786
17.4659 11.593
17.4811 11.221
17.4963 11.030
17.5115 10.930
17.5266 10.720
17.5418 10.740
17.5570 10.493
17.5722 10.320
17.5873 10.479
17.6025 10.617
17.6177 10.689
17.6329 10.330
17.6480 10.167
17.6632 10.300
17.6784 10.032
17.6936 10.022
17.7087 10.238
17.7239 10.275
17.7391 10.588
17.7543 10.740
17.7694 10.821
17.7846 11.008
17.7998 11.443
17.8150 11.847
17.8301 12.251
17.8453 12.263
17.8605 12.099
17.8757 12.251
17.8908 12.442
17.9060 12.485
17.9212 12.192
17.9364 11.952
17.9515 11.719
17.9667 11.457
17.9819 11.382
17.9971 11.221
18.0122 11.029
18.0274 10.991
18.0426 10.868
18.0578 10.691
18.0729 10.331
18.0881 10.125
18.1033 10.171
18.1185 10.056
18.1336 10.052
18.1488 10.102
18.1640 10.122
18.1792 10.125
18.1943 10.030
18.2095 10.074
18.2247 9.895
18.2399 10.083
18.2550 9.976
18.2702 9.792
18.2854 9.950
18.3006 10.090
18.3157 9.880
18.3309 9.938
18.3461 9.882
18.3613 9.890
18.3764 9.760
18.3916 9.731
18.4068 9.852
18.4220 9.874
18.4371 9.926
18.4523 9.934
18.4675 9.878
18.4827 9.820
18.4978 9.848
18.5130 9.994
18.5282 9.838
18.5434 9.940
18.5585 9.996
18.5737 9.877
18.5889 10.009
18.6041 9.906
18.6192 9.816
18.6344 9.722
18.6496 9.774
18.6648 9.755
18.6799 10.028
18.6951 9.984
18.7103 9.948
18.7255 9.877
18.7406 9.690
18.7558 9.772
18.7710 9.717
18.7862 9.718
18.8013 9.952
18.8165 9.667
18.8317 9.638
18.8469 9.970
18.8620 10.013
18.8772 10.024
18.8924 9.985
18.9076 9.922
18.9227 9.881
18.9379 9.981
18.9531 10.036
18.9683 10.016
18.9834 9.997
18.9986 10.095
19.0138 10.105
19.0290 10.132
19.0441 10.344
19.0593 10.416
19.0745 10.351
19.0897 10.384
19.1048 10.387
19.1200 10.404
19.1352 10.193
19.1504 10.449
19.1655 10.427
19.1807 10.412
19.1959 10.556
19.2111 10.644
19.2262 10.706
19.2414 10.788
19.2566 10.927
19.2718 10.953
19.2869 10.896
19.3021 10.950
19.3173 10.973
19.3325 11.000
19.3476 11.035
19.3628 11.019
19.3780 11.011
19.3932 11.202
19.4083 11.482
19.4235 11.267
19.4387 11.132
19.4539 11.366
19.4690 11.350
19.4842 11.431
19.4994 11.757
19.5146 11.682
19.5297 11.482
19.5449 11.442
19.5601 11.464
19.5753 11.739
19.5904 11.733
19.6056 11.624
19.6208 11.837
19.6360 11.768
19.6511 11.564
19.6663 11.643
19.6815 11.676
19.6967 11.767
19.7118 11.653
19.7270 11.622
19.7422 11.731
19.7574 11.706
19.7725 11.568
19.7877 11.589
19.8029 11.708
19.8180 11.638
19.8332 11.851
19.8484 12.124
19.8636 12.151
19.8787 12.457
19.8939 12.830
19.9091 12.837
19.9243 13.358
19.9394 13.856
19.9546 13.953
19.9698 14.191
19.9850 14.469
20.0001 14.458
20.0153 14.219
20.0305 14.055
20.0457 13.903
20.0608 13.831
20.0760 13.774
20.0912 13.557
20.1064 13.383
20.1215 13.686
20.1367 13.523
20.1519 13.136
20.1671 12.972
20.1822 12.606
20.1974 12.548
20.2126 12.503
20.2278 12.586
20.2429 12.454
20.2581 12.200
20.2733 11.792
20.2885 11.414
20.3036 11.490
20.3188 11.603
20.3340 11.439
20.3492 11.450
20.3643 11.526
20.3795 11.199
20.3947 11.245
20.4099 11.300
20.4250 11.011
20.4402 10.693
20.4554 10.688
20.4706 10.903
20.4857 10.688
20.5009 10.624
20.5161 10.733
20.5313 10.789
20.5464 10.941
20.5616 10.941
20.5768 10.986
20.5920 10.766
20.6071 10.769
20.6223 10.843
20.6375 10.737
20.6527 10.831
20.6678 10.776
20.6830 10.775
20.6982 10.632
20.7134 10.694
20.7285 10.882
20.7437 10.804
20.7589 10.487
20.7741 10.404
20.7892 10.483
20.8044 10.181
20.8196 10.513
20.8348 10.828
20.8499 10.438
20.8651 10.722
20.8803 10.677
20.8955 10.464
20.9106 10.475
20.9258 10.562
20.9410 10.772
20.9562 10.603
20.9713 10.556
20.9865 10.797
21.0017 10.760
21.0169 10.599
21.0320 10.277
21.0472 10.178
21.0624 10.486
21.0776 10.232
21.0927 10.297
21.1079 10.152
21.1231 9.843
21.1383 9.903
21.1534 10.325
21.1686 10.406
21.1838 10.024
21.1990 9.788
21.2141 10.250
21.2293 9.851
21.2445 9.894
21.2597 9.513
21.2748 9.514
21.2900 9.525
21.3052 9.427
21.3204 9.573
21.3355 9.766
21.3507 9.473
21.3659 9.622
21.3811 9.524
21.3962 9.444
21.4114 9.192
21.4266 8.951
21.4418 9.436
21.4569 9.510
21.4721 9.723
21.4873 9.118
21.5025 9.393
21.5176 9.522
21.5328 9.541
21.5480 9.351
21.5632 9.265
21.5783 9.252
21.5935 9.363
21.6087 9.245
21.6239 9.237
21.6390 9.313
21.6542 8.922
21.6694 9.045
21.6846 9.169
21.6997 9.113
21.7149 9.185
21.7301 8.902
21.7453 9.074
21.7604 8.799
21.7756 8.824
21.7908 9.044
21.8060 9.078
21.8211 8.991
21.8363 8.897
21.8515 8.830
21.8667 8.971
21.8818 8.902
21.8970 8.921
21.9122 8.854
21.9274 8.764
21.9425 8.917
21.9577 8.693
21.9729 8.752
21.9881 8.927
22.0032 8.863
22.0184 8.655
22.0336 8.777
22.0488 8.725
22.0639 8.826
22.0791 8.908
22.0943 8.665
22.1095 8.608
22.1246 8.667
22.1398 8.654
22.1550 8.677
22.1702 8.671
22.1853 8.578
22.2005 8.627
22.2157 8.514
22.2309 8.673
22.2460 8.633
22.2612 8.431
22.2764 8.427
22.2916 8.424
22.3067 8.521
22.3219 8.534
22.3371 8.599
22.3523 8.527
22.3674 8.534
22.3826 8.632
22.3978 8.548
22.4130 8.423
22.4281 8.541
22.4433 8.601
22.4585 8.161
22.4737 8.346
22.4888 8.283
22.5040 8.697
22.5192 8.421
22.5344 8.463
22.5495 8.625
22.5647 8.436
22.5799 8.662
22.5951 8.547
22.6102 8.306
22.6254 8.635
22.6406 8.626
22.6558 8.397
22.6709 8.091
22.6861 8.472
22.7013 8.254
22.7165 8.256
22.7316 6.331
