'Id: "" Comment: "" Operator: "Lab Manager" Anode: "Mo" Scantype: "Still (Eiger2R_500K (1D mode))" TimePerStep: "300" X: "11.8" Y: "9.4" Z: "11.284" 
7.2532 19.073
7.2684 18.553
7.2836 18.532
7.2987 18.700
7.3139 18.895
7.3291 18.549
7.3443 18.786
7.3594 19.094
7.3746 19.234
7.3898 19.275
7.4050 19.424
7.4201 19.220
7.4353 19.133
7.4505 19.226
7.4657 19.594
7.4808 19.729
7.4960 19.455
7.5112 19.568
7.5264 19.858
7.5415 19.761
7.5567 19.795
7.5719 19.864
7.5871 19.894
7.6022 19.968
7.6174 19.907
7.6326 19.877
7.6478 19.778
7.6629 20.113
7.6781 20.374
7.6933 20.324
7.7085 19.997
7.7236 19.900
7.7388 20.133
7.7540 20.233
7.7692 19.986
7.7843 20.164
7.7995 20.408
7.8147 20.370
7.8299 20.226
7.8450 20.341
7.8602 20.642
7.8754 20.699
7.8905 20.539
7.9057 20.456
7.9209 20.594
7.9361 20.803
7.9512 20.509
7.9664 20.582
7.9816 20.914
7.9968 21.096
8.0119 20.819
8.0271 20.933
8.0423 21.191
8.0575 21.039
8.0726 20.883
8.0878 21.033
8.1030 20.978
8.1182 21.205
8.1333 21.157
8.1485 21.089
8.1637 21.193
8.1789 21.533
8.1940 21.531
8.2092 21.555
8.2244 21.254
8.2396 21.440
8.2547 21.542
8.2699 21.471
8.2851 21.579
8.3003 21.229
8.3154 20.988
8.3306 21.744
8.3458 22.086
8.3610 22.114
8.3761 21.402
8.3913 21.727
8.4065 21.915
8.4217 21.715
8.4368 21.916
8.4520 21.635
8.4672 21.847
8.4824 22.366
8.4975 22.438
8.5127 21.537
8.5279 22.079
8.5431 22.041
8.5582 21.969
8.5734 21.822
8.5886 22.165
8.6038 22.918
8.6189 22.049
8.6341 22.058
8.6493 22.135
8.6645 22.138
8.6796 21.841
8.6948 22.237
8.7100 21.793
8.7252 22.357
8.7403 22.129
8.7555 22.044
8.7707 21.680
8.7859 22.417
8.8010 22.479
8.8162 23.006
8.8314 22.549
8.8466 22.670
8.8617 22.511
8.8769 22.529
8.8921 22.543
8.9073 22.358
8.9224 22.890
8.9376 22.356
8.9528 22.599
8.9680 22.518
8.9831 22.424
8.9983 22.455
9.0135 22.693
9.0287 22.429
9.0438 22.472
9.0590 22.386
9.0742 22.624
9.0894 22.945
9.1045 22.843
9.1197 22.816
9.1349 22.834
9.1501 22.846
9.1652 22.592
9.1804 22.639
9.1956 22.601
9.2108 22.866
9.2259 22.528
9.2411 23.038
9.2563 22.503
9.2715 22.582
9.2866 23.064
9.3018 23.102
9.3170 22.805
9.3322 22.642
9.3473 22.620
9.3625 22.774
9.3777 22.938
9.3929 23.044
9.4080 22.795
9.4232 22.826
9.4384 23.140
9.4536 23.213
9.4687 23.006
9.4839 23.027
9.4991 23.246
9.5143 23.290
9.5294 23.100
9.5446 22.999
9.5598 22.942
9.5750 23.099
9.5901 23.126
9.6053 23.082
9.6205 23.200
9.6357 23.273
9.6508 23.527
9.6660 23.653
9.6812 23.401
9.6964 23.669
9.7115 23.536
9.7267 23.572
9.7419 23.679
9.7571 23.811
9.7722 23.867
9.7874 23.894
9.8026 23.775
9.8178 23.621
9.8329 23.579
9.8481 23.178
9.8633 23.208
9.8785 23.322
9.8936 23.111
9.9088 22.991
9.9240 23.225
9.9392 23.513
9.9543 23.249
9.9695 23.071
9.9847 22.842
9.9999 23.023
10.0150 23.134
10.0302 23.034
10.0454 23.446
10.0606 23.458
10.0757 23.124
10.0909 23.018
10.1061 22.946
10.1213 23.174
10.1364 23.194
10.1516 23.390
10.1668 23.445
10.1820 23.348
10.1971 23.398
10.2123 23.329
10.2275 22.801
10.2427 22.559
10.2578 22.854
10.2730 22.844
10.2882 22.781
10.3034 22.695
10.3185 22.473
10.3337 22.826
10.3489 22.743
10.3641 22.385
10.3792 22.524
10.3944 22.634
10.4096 22.670
10.4248 22.626
10.4399 22.757
10.4551 22.959
10.4703 22.686
10.4855 22.514
10.5006 22.261
10.5158 22.630
10.5310 22.649
10.5462 22.398
10.5613 22.437
10.5765 22.233
10.5917 22.076
10.6069 22.424
10.6220 22.328
10.6372 22.340
10.6524 22.414
10.6676 22.390
10.6827 22.430
10.6979 22.370
10.7131 22.219
10.7283 22.311
10.7434 22.198
10.7586 22.588
10.7738 22.283
10.7890 22.114
10.8041 22.072
10.8193 21.994
10.8345 21.983
10.8497 22.495
10.8648 22.207
10.8800 22.024
10.8952 22.362
10.9104 22.029
10.9255 22.195
10.9407 22.241
10.9559 22.097
10.9711 22.107
10.9862 22.372
11.0014 22.263
11.0166 22.080
11.0318 22.047
11.0469 21.868
11.0621 21.865
11.0773 21.493
11.0925 21.787
11.1076 21.641
11.1228 21.307
11.1380 21.712
11.1532 21.628
11.1683 21.680
11.1835 22.045
11.1987 21.445
11.2139 21.615
11.2290 21.419
11.2442 21.275
11.2594 21.473
11.2746 21.402
11.2897 21.389
11.3049 21.346
11.3201 21.307
11.3353 21.513
11.3504 21.484
11.3656 21.184
11.3808 21.236
11.3960 21.077
11.4111 21.095
11.4263 21.096
11.4415 21.133
11.4567 21.218
11.4718 21.253
11.4870 20.917
11.5022 21.124
11.5174 21.048
11.5325 21.333
11.5477 21.122
11.5629 20.998
11.5781 20.594
11.5932 21.006
11.6084 20.985
11.6236 20.498
11.6388 20.536
11.6539 20.925
11.6691 20.910
11.6843 20.655
11.6995 20.500
11.7146 20.552
11.7298 20.640
11.7450 20.253
11.7602 20.278
11.7753 20.256
11.7905 20.158
11.8057 20.101
11.8209 19.757
11.8360 19.950
11.8512 20.106
11.8664 19.697
11.8816 19.896
11.8967 19.843
11.9119 19.672
11.9271 19.454
11.9423 19.207
11.9574 19.335
11.9726 19.271
11.9878 18.974
12.0030 19.090
12.0181 19.279
12.0333 19.054
12.0485 18.692
12.0637 18.963
12.0788 18.953
12.0940 18.701
12.1092 18.530
12.1244 18.419
12.1395 18.551
12.1547 18.619
12.1699 18.417
12.1851 18.381
12.2002 18.189
12.2154 18.212
12.2306 17.907
12.2458 17.754
12.2609 17.861
12.2761 17.762
12.2913 17.984
12.3065 17.867
12.3216 17.493
12.3368 17.472
12.3520 17.452
12.3672 17.606
12.3823 17.882
12.3975 17.450
12.4127 17.130
12.4279 17.256
12.4430 17.149
12.4582 16.927
12.4734 16.811
12.4886 16.694
12.5037 16.556
12.5189 16.545
12.5341 16.480
12.5493 16.128
12.5644 15.898
12.5796 15.916
12.5948 15.932
12.6100 15.998
12.6251 16.123
12.6403 16.251
12.6555 16.127
12.6707 15.737
12.6858 15.633
12.7010 15.289
12.7162 15.021
12.7314 15.393
12.7465 15.411
12.7617 15.288
12.7769 15.253
12.7921 15.152
12.8072 15.103
12.8224 15.010
12.8376 15.083
12.8528 15.155
12.8679 15.025
12.8831 14.870
12.8983 14.678
12.9135 14.436
12.9286 14.649
12.9438 14.504
12.9590 14.329
12.9742 14.636
12.9893 14.383
13.0045 14.191
13.0197 14.319
13.0349 14.244
13.0500 14.242
13.0652 14.241
13.0804 13.901
13.0956 13.604
13.1107 13.824
13.1259 14.059
13.1411 13.984
13.1563 13.673
13.1714 13.512
13.1866 13.422
13.2018 13.199
13.2170 13.395
13.2321 13.580
13.2473 13.344
13.2625 13.172
13.2777 13.260
13.2928 13.238
13.3080 13.181
13.3232 13.263
13.3384 12.996
13.3535 12.847
13.3687 13.020
13.3839 12.993
13.3991 12.956
13.4142 13.003
13.4294 13.087
13.4446 13.046
13.4598 12.859
13.4749 12.702
13.4901 12.684
13.5053 12.612
13.5205 12.600
13.5356 12.484
13.5508 12.390
13.5660 12.439
13.5812 12.595
13.5963 12.510
13.6115 12.025
13.6267 12.131
13.6419 12.358
13.6570 12.385
13.6722 12.331
13.6874 12.053
13.7026 11.824
13.7177 11.969
13.7329 11.966
13.7481 12.048
13.7633 12.085
13.7784 11.941
13.7936 12.118
13.8088 12.358
13.8239 11.992
13.8391 12.152
13.8543 12.389
13.8695 12.454
13.8846 12.378
13.8998 12.177
13.9150 12.371
13.9302 12.169
13.9453 12.008
13.9605 11.836
13.9757 11.615
13.9909 11.489
14.0060 11.521
14.0212 11.685
14.0364 11.911
14.0516 11.363
14.0667 11.743
14.0819 11.486
14.0971 11.346
14.1123 11.864
14.1274 11.918
14.1426 11.843
14.1578 11.830
14.1730 11.822
14.1881 11.572
14.2033 11.691
14.2185 11.815
14.2337 11.695
14.2488 11.795
14.2640 11.717
14.2792 11.746
14.2944 11.845
14.3095 11.644
14.3247 12.169
14.3399 12.569
14.3551 12.759
14.3702 12.707
14.3854 13.060
14.4006 13.055
14.4158 13.074
14.4309 13.047
14.4461 12.766
14.4613 12.541
14.4765 12.426
14.4916 12.133
14.5068 11.887
14.5220 11.697
14.5372 11.799
14.5523 11.169
14.5675 11.170
14.5827 11.047
14.5979 11.030
14.6130 10.840
14.6282 10.756
14.6434 10.669
14.6586 10.965
14.6737 10.835
14.6889 10.795
14.7041 10.691
14.7193 10.466
14.7344 10.401
14.7496 10.529
14.7648 10.681
14.7800 10.433
14.7951 10.597
14.8103 10.543
14.8255 10.390
14.8407 10.540
14.8558 10.625
14.8710 10.376
14.8862 10.307
14.9014 10.700
14.9165 10.682
14.9317 10.413
14.9469 10.435
14.9621 10.333
14.9772 10.159
14.9924 10.486
15.0076 10.406
15.0228 10.493
15.0379 10.513
15.0531 10.415
15.0683 10.579
15.0835 10.201
15.0986 10.053
15.1138 10.106
15.1290 10.242
15.1442 10.320
15.1593 10.382
15.1745 9.799
15.1897 10.159
15.2049 9.954
15.2200 9.699
15.2352 10.106
15.2504 9.666
15.2656 10.010
15.2807 10.264
15.2959 9.790
15.3111 10.239
15.3263 9.915
15.3414 10.486
15.3566 10.061
15.3718 10.174
15.3870 9.888
15.4021 10.269
15.4173 10.112
15.4325 10.273
15.4477 10.311
15.4628 10.573
15.4780 10.095
15.4932 9.948
15.5084 9.643
15.5235 10.035
15.5387 10.172
15.5539 10.057
15.5691 10.285
15.5842 9.986
15.5994 9.867
15.6146 9.761
15.6298 9.917
15.6449 9.753
15.6601 9.714
15.6753 9.690
15.6905 9.617
15.7056 10.007
15.7208 9.868
15.7360 9.929
15.7512 9.695
15.7663 9.443
15.7815 9.669
15.7967 10.041
15.8119 10.035
15.8270 9.755
15.8422 9.494
15.8574 9.491
15.8726 9.669
15.8877 9.853
15.9029 9.690
15.9181 9.467
15.9333 9.496
15.9484 9.585
15.9636 9.718
15.9788 9.678
15.9940 9.614
16.0091 9.649
16.0243 9.638
16.0395 9.543
16.0547 9.614
16.0698 9.669
16.0850 9.345
16.1002 9.496
16.1154 9.479
16.1305 9.639
16.1457 9.536
16.1609 9.469
16.1761 9.514
16.1912 9.729
16.2064 9.683
16.2216 9.617
16.2368 9.748
16.2519 9.660
16.2671 9.705
16.2823 9.818
16.2975 9.681
16.3126 9.501
16.3278 9.663
16.3430 9.525
16.3582 9.877
16.3733 9.884
16.3885 9.639
16.4037 9.990
16.4189 10.026
16.4340 9.872
16.4492 9.758
16.4644 9.659
16.4796 9.476
16.4947 9.802
16.5099 9.922
16.5251 9.771
16.5403 9.721
16.5554 9.787
16.5706 9.841
16.5858 9.607
16.6010 9.547
16.6161 9.832
16.6313 9.620
16.6465 9.512
16.6617 9.547
16.6768 9.807
16.6920 9.837
16.7072 9.795
16.7224 9.895
16.7375 9.947
16.7527 9.825
16.7679 9.522
16.7831 9.711
16.7982 10.038
16.8134 10.160
16.8286 10.142
16.8438 9.957
16.8589 10.030
16.8741 10.026
16.8893 9.827
16.9045 9.828
16.9196 9.905
16.9348 9.926
16.9500 9.937
16.9652 9.909
16.9803 9.887
16.9955 9.820
17.0107 9.878
17.0259 9.808
17.0410 9.825
17.0562 9.989
17.0714 10.222
17.0866 10.417
17.1017 10.604
17.1169 10.653
17.1321 10.834
17.1473 11.376
17.1624 11.963
17.1776 12.293
17.1928 13.083
17.2080 13.994
17.2231 14.902
17.2383 16.406
17.2535 17.861
17.2687 18.729
17.2838 18.588
17.2990 17.717
17.3142 16.792
17.3294 16.249
17.3445 16.100
17.3597 15.994
17.3749 15.936
17.3901 15.534
17.4052 14.446
17.4204 13.502
17.4356 12.800
17.4508 12.279
17.4659 12.138
17.4811 11.764
17.4963 11.508
17.5115 11.296
17.5266 11.002
17.5418 11.107
17.5570 11.222
17.5722 11.106
17.5873 11.021
17.6025 11.188
17.6177 11.246
17.6329 11.134
17.6480 11.271
17.6632 11.532
17.6784 11.444
17.6936 11.439
17.7087 11.534
17.7239 11.162
17.7391 11.029
17.7543 11.059
17.7694 10.926
17.7846 10.844
17.7998 10.903
17.8150 10.709
17.8301 10.381
17.8453 10.403
17.8605 10.423
17.8757 10.445
17.8908 10.549
17.9060 10.415
17.9212 10.192
17.9364 9.959
17.9515 10.069
17.9667 10.091
17.9819 10.118
17.9971 10.297
18.0122 10.329
18.0274 10.140
18.0426 9.976
18.0578 10.240
18.0729 10.225
18.0881 10.129
18.1033 10.164
18.1185 9.938
18.1336 9.838
18.1488 10.000
18.1640 10.079
18.1792 9.954
18.1943 9.892
18.2095 9.870
18.2247 10.025
18.2399 9.965
18.2550 9.963
18.2702 10.057
18.2854 10.109
18.3006 10.007
18.3157 9.874
18.3309 9.725
18.3461 9.829
18.3613 9.805
18.3764 9.789
18.3916 9.821
18.4068 9.783
18.4220 9.860
18.4371 9.954
18.4523 9.861
18.4675 9.672
18.4827 9.795
18.4978 9.786
18.5130 9.612
18.5282 9.696
18.5434 9.641
18.5585 9.856
18.5737 9.843
18.5889 9.716
18.6041 9.644
18.6192 9.724
18.6344 10.001
18.6496 9.750
18.6648 9.860
18.6799 9.843
18.6951 9.718
18.7103 9.664
18.7255 9.902
18.7406 9.770
18.7558 9.973
18.7710 9.926
18.7862 9.899
18.8013 9.913
18.8165 9.733
18.8317 9.980
18.8469 10.137
18.8620 10.096
18.8772 9.958
18.8924 9.951
18.9076 10.005
18.9227 10.077
18.9379 9.969
18.9531 10.046
18.9683 10.178
18.9834 10.182
18.9986 10.213
19.0138 10.020
19.0290 10.121
19.0441 10.233
19.0593 10.339
19.0745 10.321
19.0897 10.344
19.1048 10.333
19.1200 10.312
19.1352 10.438
19.1504 10.365
19.1655 10.481
19.1807 10.528
19.1959 10.448
19.2111 10.639
19.2262 10.881
19.2414 10.915
19.2566 10.884
19.2718 10.868
19.2869 10.747
19.3021 10.900
19.3173 11.086
19.3325 11.040
19.3476 10.991
19.3628 11.048
19.3780 10.950
19.3932 11.017
19.4083 11.421
19.4235 11.244
19.4387 11.267
19.4539 11.239
19.4690 11.286
19.4842 11.371
19.4994 11.345
19.5146 11.349
19.5297 11.405
19.5449 11.630
19.5601 11.405
19.5753 11.383
19.5904 11.655
19.6056 11.907
19.6208 11.795
19.6360 11.593
19.6511 11.624
19.6663 11.640
19.6815 11.699
19.6967 11.778
19.7118 11.846
19.7270 11.742
19.7422 11.742
19.7574 11.835
19.7725 11.773
19.7877 11.708
19.8029 11.707
19.8180 11.852
19.8332 12.098
19.8484 12.480
19.8636 12.597
19.8787 12.526
19.8939 12.729
19.9091 12.989
19.9243 13.457
19.9394 13.756
19.9546 14.104
19.9698 14.315
19.9850 14.432
20.0001 14.667
20.0153 14.428
20.0305 13.914
20.0457 13.828
20.0608 13.752
20.0760 13.527
20.0912 13.706
20.1064 13.660
20.1215 13.600
20.1367 13.476
20.1519 13.386
20.1671 13.094
20.1822 13.063
20.1974 13.151
20.2126 12.948
20.2278 12.722
20.2429 12.813
20.2581 12.472
20.2733 12.143
20.2885 11.923
20.3036 12.067
20.3188 11.974
20.3340 11.820
20.3492 11.865
20.3643 11.904
20.3795 12.078
20.3947 12.138
20.4099 12.082
20.4250 12.039
20.4402 12.047
20.4554 11.913
20.4706 11.639
20.4857 11.756
20.5009 11.759
20.5161 11.504
20.5313 11.299
20.5464 11.150
20.5616 11.433
20.5768 11.309
20.5920 11.291
20.6071 11.371
20.6223 10.845
20.6375 10.958
20.6527 10.667
20.6678 10.925
20.6830 10.807
20.6982 10.551
20.7134 10.767
20.7285 10.261
20.7437 10.681
20.7589 10.582
20.7741 10.041
20.7892 10.469
20.8044 10.216
20.8196 10.273
20.8348 10.534
20.8499 10.513
20.8651 9.968
20.8803 10.396
20.8955 10.124
20.9106 10.299
20.9258 10.183
20.9410 10.085
20.9562 10.291
20.9713 10.353
20.9865 10.115
21.0017 10.009
21.0169 10.088
21.0320 10.094
21.0472 10.098
21.0624 9.782
21.0776 10.030
21.0927 10.192
21.1079 10.048
21.1231 9.787
21.1383 9.995
21.1534 9.930
21.1686 9.515
21.1838 9.824
21.1990 9.805
21.2141 9.611
21.2293 9.755
21.2445 9.770
21.2597 9.606
21.2748 9.665
21.2900 9.228
21.3052 9.643
21.3204 9.276
21.3355 9.564
21.3507 9.538
21.3659 9.757
21.3811 9.403
21.3962 9.546
21.4114 9.442
21.4266 9.293
21.4418 9.308
21.4569 9.304
21.4721 9.390
21.4873 9.356
21.5025 9.356
21.5176 9.451
21.5328 9.279
21.5480 9.157
21.5632 9.346
21.5783 9.228
21.5935 9.070
21.6087 9.005
21.6239 8.909
21.6390 9.034
21.6542 9.195
21.6694 9.357
21.6846 9.359
21.6997 9.562
21.7149 9.181
21.7301 9.145
21.7453 9.053
21.7604 9.016
21.7756 9.038
21.7908 9.134
21.8060 9.090
21.8211 9.177
21.8363 9.175
21.8515 9.226
21.8667 8.980
21.8818 8.907
21.8970 9.019
21.9122 8.880
21.9274 8.868
21.9425 8.871
21.9577 8.801
21.9729 8.887
21.9881 8.919
22.0032 8.830
22.0184 8.913
22.0336 8.972
22.0488 8.817
22.0639 8.765
22.0791 8.890
22.0943 8.801
22.1095 8.497
22.1246 8.515
22.1398 8.549
22.1550 8.607
22.1702 8.848
22.1853 8.712
22.2005 8.891
22.2157 8.739
22.2309 8.484
22.2460 8.462
22.2612 8.444
22.2764 8.332
22.2916 8.438
22.3067 8.531
22.3219 8.793
22.3371 8.649
22.3523 8.694
22.3674 8.580
22.3826 8.340
22.3978 8.297
22.4130 8.330
22.4281 8.465
22.4433 8.476
22.4585 8.605
22.4737 8.647
22.4888 8.383
22.5040 8.497
22.5192 8.888
22.5344 8.229
22.5495 8.597
22.5647 8.242
22.5799 8.522
22.5951 8.324
22.6102 8.483
22.6254 8.044
22.6406 8.495
22.6558 8.471
22.6709 8.466
22.6861 8.565
22.7013 8.065
22.7165 7.850
22.7316 6.387
