'Id: "" Comment: "" Operator: "Lab Manager" Anode: "Mo" Scantype: "Still (Eiger2R_500K (1D mode))" TimePerStep: "300" X: "11.8" Y: "9.4" Z: "11.284" 
7.2532 18.979
7.2684 18.998
7.2836 18.924
7.2987 18.885
7.3139 18.882
7.3291 19.069
7.3443 19.240
7.3594 19.589
7.3746 19.840
7.3898 19.338
7.4050 19.076
7.4201 19.372
7.4353 19.598
7.4505 19.581
7.4657 19.562
7.4808 19.837
7.4960 19.810
7.5112 19.772
7.5264 19.929
7.5415 20.035
7.5567 20.234
7.5719 20.019
7.5871 20.173
7.6022 20.058
7.6174 20.059
7.6326 20.395
7.6478 20.273
7.6629 19.980
7.6781 20.101
7.6933 20.157
7.7085 20.397
7.7236 20.589
7.7388 20.748
7.7540 20.699
7.7692 20.539
7.7843 20.594
7.7995 20.537
7.8147 20.614
7.8299 20.622
7.8450 20.809
7.8602 20.769
7.8754 20.636
7.8905 20.815
7.9057 21.029
7.9209 20.837
7.9361 20.890
7.9512 20.989
7.9664 20.744
7.9816 21.194
7.9968 21.116
8.0119 20.721
8.0271 20.904
8.0423 21.340
8.0575 21.413
8.0726 21.055
8.0878 21.167
8.1030 21.442
8.1182 21.333
8.1333 21.537
8.1485 21.422
8.1637 21.876
8.1789 21.756
8.1940 21.702
8.2092 22.000
8.2244 21.660
8.2396 21.638
8.2547 21.647
8.2699 21.509
8.2851 21.642
8.3003 21.839
8.3154 22.125
8.3306 22.099
8.3458 21.624
8.3610 21.745
8.3761 22.535
8.3913 21.522
8.4065 22.087
8.4217 22.321
8.4368 22.153
8.4520 21.925
8.4672 21.857
8.4824 22.318
8.4975 21.960
8.5127 22.040
8.5279 21.600
8.5431 21.944
8.5582 22.538
8.5734 21.929
8.5886 22.088
8.6038 21.667
8.6189 21.890
8.6341 22.124
8.6493 22.332
8.6645 22.526
8.6796 22.395
8.6948 22.552
8.7100 22.147
8.7252 22.299
8.7403 22.032
8.7555 22.612
8.7707 22.294
8.7859 22.650
8.8010 22.522
8.8162 22.711
8.8314 22.899
8.8466 22.532
8.8617 22.455
8.8769 22.687
8.8921 22.465
8.9073 22.766
8.9224 22.569
8.9376 22.503
8.9528 22.959
8.9680 22.800
8.9831 23.109
8.9983 22.818
9.0135 22.701
9.0287 22.815
9.0438 22.595
9.0590 22.474
9.0742 22.476
9.0894 22.928
9.1045 22.982
9.1197 23.310
9.1349 22.712
9.1501 22.748
9.1652 23.026
9.1804 22.953
9.1956 23.043
9.2108 22.990
9.2259 22.756
9.2411 22.898
9.2563 22.904
9.2715 22.778
9.2866 22.938
9.3018 23.111
9.3170 22.587
9.3322 22.855
9.3473 23.258
9.3625 23.057
9.3777 23.285
9.3929 23.395
9.4080 23.149
9.4232 23.169
9.4384 22.988
9.4536 22.914
9.4687 22.962
9.4839 23.483
9.4991 23.236
9.5143 23.020
9.5294 23.280
9.5446 23.382
9.5598 23.511
9.5750 23.304
9.5901 22.917
9.6053 22.932
9.6205 23.351
9.6357 23.461
9.6508 23.470
9.6660 23.693
9.6812 23.686
9.6964 23.838
9.7115 24.198
9.7267 24.169
9.7419 24.319
9.7571 24.427
9.7722 24.363
9.7874 24.247
9.8026 23.936
9.8178 23.650
9.8329 23.758
9.8481 23.786
9.8633 23.579
9.8785 23.717
9.8936 23.978
9.9088 23.830
9.9240 23.907
9.9392 24.028
9.9543 23.781
9.9695 23.564
9.9847 23.571
9.9999 23.793
10.0150 23.737
10.0302 23.489
10.0454 23.336
10.0606 22.848
10.0757 22.805
10.0909 23.214
10.1061 23.021
10.1213 23.083
10.1364 23.225
10.1516 23.241
10.1668 23.168
10.1820 23.267
10.1971 23.489
10.2123 23.088
10.2275 22.806
10.2427 23.051
10.2578 23.403
10.2730 23.277
10.2882 23.135
10.3034 23.211
10.3185 23.112
10.3337 23.320
10.3489 23.292
10.3641 22.920
10.3792 22.911
10.3944 23.105
10.4096 22.874
10.4248 22.605
10.4399 22.580
10.4551 22.550
10.4703 22.637
10.4855 22.904
10.5006 22.717
10.5158 22.606
10.5310 22.611
10.5462 22.616
10.5613 22.625
10.5765 22.540
10.5917 22.532
10.6069 22.810
10.6220 22.365
10.6372 22.472
10.6524 22.770
10.6676 22.748
10.6827 22.738
10.6979 22.361
10.7131 22.342
10.7283 22.338
10.7434 22.583
10.7586 22.668
10.7738 22.200
10.7890 22.367
10.8041 22.409
10.8193 22.323
10.8345 22.608
10.8497 22.461
10.8648 22.129
10.8800 22.050
10.8952 21.929
10.9104 21.911
10.9255 22.065
10.9407 22.283
10.9559 22.187
10.9711 21.819
10.9862 22.159
11.0014 22.359
11.0166 22.418
11.0318 22.248
11.0469 21.895
11.0621 21.705
11.0773 22.120
11.0925 21.884
11.1076 21.961
11.1228 22.098
11.1380 21.816
11.1532 21.354
11.1683 21.788
11.1835 21.586
11.1987 21.577
11.2139 21.404
11.2290 21.803
11.2442 21.790
11.2594 21.504
11.2746 21.848
11.2897 21.867
11.3049 21.737
11.3201 21.563
11.3353 21.287
11.3504 21.371
11.3656 21.464
11.3808 21.525
11.3960 21.328
11.4111 21.722
11.4263 21.428
11.4415 21.151
11.4567 21.280
11.4718 21.363
11.4870 21.241
11.5022 21.007
11.5174 21.284
11.5325 21.118
11.5477 20.881
11.5629 20.848
11.5781 20.922
11.5932 21.306
11.6084 21.144
11.6236 21.043
11.6388 21.055
11.6539 20.663
11.6691 20.768
11.6843 20.552
11.6995 20.712
11.7146 20.623
11.7298 20.563
11.7450 20.452
11.7602 20.462
11.7753 20.788
11.7905 20.510
11.8057 20.165
11.8209 19.562
11.8360 20.010
11.8512 19.921
11.8664 20.107
11.8816 20.000
11.8967 20.127
11.9119 19.947
11.9271 19.835
11.9423 19.707
11.9574 19.636
11.9726 19.612
11.9878 19.414
12.0030 19.082
12.0181 18.810
12.0333 19.003
12.0485 19.068
12.0637 19.281
12.0788 19.124
12.0940 19.194
12.1092 18.653
12.1244 18.676
12.1395 18.551
12.1547 18.714
12.1699 18.625
12.1851 18.489
12.2002 18.162
12.2154 17.855
12.2306 18.113
12.2458 18.096
12.2609 18.045
12.2761 17.762
12.2913 17.689
12.3065 17.859
12.3216 17.658
12.3368 17.609
12.3520 17.621
12.3672 17.216
12.3823 17.055
12.3975 17.642
12.4127 17.826
12.4279 17.501
12.4430 17.416
12.4582 17.352
12.4734 16.833
12.4886 16.813
12.5037 16.898
12.5189 16.751
12.5341 16.406
12.5493 16.345
12.5644 16.458
12.5796 16.280
12.5948 16.162
12.6100 16.184
12.6251 16.132
12.6403 15.823
12.6555 15.606
12.6707 15.787
12.6858 15.749
12.7010 15.929
12.7162 15.754
12.7314 15.741
12.7465 15.726
12.7617 15.615
12.7769 15.228
12.7921 15.137
12.8072 15.198
12.8224 15.078
12.8376 14.866
12.8528 14.978
12.8679 15.073
12.8831 14.893
12.8983 14.633
12.9135 14.547
12.9286 14.493
12.9438 14.514
12.9590 14.617
12.9742 14.494
12.9893 14.376
13.0045 14.501
13.0197 14.293
13.0349 14.097
13.0500 14.090
13.0652 13.991
13.0804 13.927
13.0956 13.953
13.1107 13.963
13.1259 13.928
13.1411 13.727
13.1563 13.554
13.1714 13.565
13.1866 13.498
13.2018 13.448
13.2170 13.309
13.2321 13.247
13.2473 13.352
13.2625 13.354
13.2777 13.320
13.2928 13.466
13.3080 13.320
13.3232 13.386
13.3384 13.523
13.3535 13.268
13.3687 13.425
13.3839 13.357
13.3991 13.275
13.4142 13.175
13.4294 12.806
13.4446 12.590
13.4598 12.721
13.4749 12.794
13.4901 12.779
13.5053 12.878
13.5205 12.782
13.5356 12.586
13.5508 12.455
13.5660 12.627
13.5812 12.662
13.5963 12.550
13.6115 12.411
13.6267 12.290
13.6419 12.319
13.6570 12.224
13.6722 12.068
13.6874 12.251
13.7026 12.247
13.7177 12.071
13.7329 12.056
13.7481 12.426
13.7633 12.208
13.7784 12.134
13.7936 12.156
13.8088 12.400
13.8239 12.384
13.8391 12.327
13.8543 12.248
13.8695 12.163
13.8846 12.372
13.8998 12.543
13.9150 12.301
13.9302 12.209
13.9453 12.051
13.9605 11.955
13.9757 11.748
13.9909 11.914
14.0060 11.560
14.0212 11.577
14.0364 11.602
14.0516 11.529
14.0667 11.652
14.0819 11.612
14.0971 11.550
14.1123 11.506
14.1274 11.571
14.1426 11.601
14.1578 11.308
14.1730 11.412
14.1881 11.401
14.2033 11.357
14.2185 11.253
14.2337 11.391
14.2488 11.786
14.2640 11.738
14.2792 11.489
14.2944 11.482
14.3095 11.641
14.3247 11.634
14.3399 11.665
14.3551 11.777
14.3702 12.008
14.3854 12.518
14.4006 12.618
14.4158 12.454
14.4309 12.204
14.4461 12.119
14.4613 12.108
14.4765 12.129
14.4916 12.327
14.5068 12.202
14.5220 11.993
14.5372 11.491
14.5523 11.797
14.5675 11.449
14.5827 11.332
14.5979 11.081
14.6130 10.828
14.6282 10.870
14.6434 11.070
14.6586 10.820
14.6737 11.046
14.6889 11.261
14.7041 10.954
14.7193 10.952
14.7344 10.921
14.7496 11.152
14.7648 10.890
14.7800 10.954
14.7951 11.045
14.8103 10.934
14.8255 10.988
14.8407 10.911
14.8558 10.709
14.8710 10.644
14.8862 10.563
14.9014 10.855
14.9165 10.794
14.9317 10.954
14.9469 10.642
14.9621 10.868
14.9772 10.873
14.9924 10.738
15.0076 10.573
15.0228 10.891
15.0379 10.593
15.0531 10.786
15.0683 10.285
15.0835 10.291
15.0986 10.123
15.1138 10.569
15.1290 10.612
15.1442 10.591
15.1593 10.342
15.1745 10.507
15.1897 10.720
15.2049 10.339
15.2200 10.421
15.2352 10.604
15.2504 10.331
15.2656 10.084
15.2807 10.107
15.2959 10.582
15.3111 10.549
15.3263 10.465
15.3414 10.576
15.3566 10.425
15.3718 10.528
15.3870 10.072
15.4021 10.454
15.4173 10.400
15.4325 10.124
15.4477 10.223
15.4628 10.613
15.4780 10.623
15.4932 10.160
15.5084 10.218
15.5235 10.244
15.5387 10.513
15.5539 10.226
15.5691 10.219
15.5842 10.379
15.5994 10.408
15.6146 10.291
15.6298 9.748
15.6449 10.176
15.6601 10.039
15.6753 10.138
15.6905 10.064
15.7056 9.924
15.7208 9.919
15.7360 9.962
15.7512 10.153
15.7663 10.049
15.7815 10.087
15.7967 9.961
15.8119 10.021
15.8270 9.871
15.8422 9.936
15.8574 9.907
15.8726 9.711
15.8877 10.031
15.9029 9.667
15.9181 9.557
15.9333 9.691
15.9484 10.128
15.9636 9.763
15.9788 9.924
15.9940 10.033
16.0091 9.645
16.0243 9.851
16.0395 9.830
16.0547 9.753
16.0698 9.765
16.0850 9.806
16.1002 9.987
16.1154 9.747
16.1305 9.698
16.1457 9.665
16.1609 9.849
16.1761 9.919
16.1912 9.895
16.2064 9.847
16.2216 9.751
16.2368 9.929
16.2519 9.872
16.2671 10.319
16.2823 10.255
16.2975 10.036
16.3126 10.121
16.3278 10.094
16.3430 10.219
16.3582 10.188
16.3733 10.232
16.3885 10.064
16.4037 10.074
16.4189 9.847
16.4340 9.697
16.4492 9.840
16.4644 9.869
16.4796 9.814
16.4947 9.864
16.5099 9.977
16.5251 10.017
16.5403 10.017
16.5554 9.871
16.5706 9.846
16.5858 9.749
16.6010 9.732
16.6161 9.750
16.6313 9.810
16.6465 9.946
16.6617 10.029
16.6768 10.012
16.6920 10.076
16.7072 10.061
16.7224 10.005
16.7375 10.134
16.7527 9.936
16.7679 9.981
16.7831 10.069
16.7982 10.101
16.8134 10.184
16.8286 10.119
16.8438 10.133
16.8589 9.930
16.8741 9.778
16.8893 9.781
16.9045 9.899
16.9196 9.982
16.9348 10.050
16.9500 9.966
16.9652 9.952
16.9803 9.931
16.9955 9.754
17.0107 9.914
17.0259 10.337
17.0410 10.327
17.0562 10.340
17.0714 10.141
17.0866 10.397
17.1017 10.861
17.1169 10.886
17.1321 10.853
17.1473 11.167
17.1624 11.734
17.1776 12.460
17.1928 13.186
17.2080 13.962
17.2231 15.055
17.2383 16.645
17.2535 18.005
17.2687 18.723
17.2838 19.180
17.2990 18.400
17.3142 17.260
17.3294 16.631
17.3445 16.137
17.3597 16.052
17.3749 15.690
17.3901 15.211
17.4052 14.341
17.4204 13.101
17.4356 12.208
17.4508 11.719
17.4659 11.472
17.4811 11.158
17.4963 11.074
17.5115 11.000
17.5266 10.808
17.5418 10.756
17.5570 10.631
17.5722 10.492
17.5873 10.456
17.6025 10.326
17.6177 10.205
17.6329 10.144
17.6480 10.284
17.6632 10.322
17.6784 10.065
17.6936 10.082
17.7087 10.482
17.7239 10.535
17.7391 10.456
17.7543 10.354
17.7694 10.380
17.7846 10.519
17.7998 10.532
17.8150 10.628
17.8301 10.645
17.8453 10.603
17.8605 10.641
17.8757 10.656
17.8908 10.683
17.9060 10.739
17.9212 10.588
17.9364 10.485
17.9515 10.426
17.9667 10.474
17.9819 10.795
17.9971 10.727
18.0122 10.815
18.0274 10.764
18.0426 10.256
18.0578 10.116
18.0729 10.018
18.0881 10.029
18.1033 10.002
18.1185 10.091
18.1336 10.254
18.1488 10.287
18.1640 10.264
18.1792 10.192
18.1943 10.151
18.2095 10.195
18.2247 10.186
18.2399 10.143
18.2550 10.008
18.2702 10.003
18.2854 10.038
18.3006 10.169
18.3157 10.156
18.3309 9.908
18.3461 9.795
18.3613 9.876
18.3764 9.687
18.3916 9.678
18.4068 9.719
18.4220 9.589
18.4371 9.832
18.4523 10.030
18.4675 9.917
18.4827 9.801
18.4978 9.768
18.5130 9.734
18.5282 9.862
18.5434 9.837
18.5585 9.676
18.5737 9.629
18.5889 9.832
18.6041 9.962
18.6192 9.802
18.6344 9.740
18.6496 9.802
18.6648 9.661
18.6799 9.564
18.6951 9.662
18.7103 9.789
18.7255 9.680
18.7406 9.756
18.7558 9.989
18.7710 9.841
18.7862 9.819
18.8013 9.794
18.8165 9.519
18.8317 9.811
18.8469 9.925
18.8620 9.795
18.8772 9.821
18.8924 9.883
18.9076 9.893
18.9227 9.785
18.9379 9.814
18.9531 10.238
18.9683 10.397
18.9834 10.083
18.9986 10.060
19.0138 10.309
19.0290 10.231
19.0441 10.269
19.0593 10.317
19.0745 10.261
19.0897 10.392
19.1048 10.232
19.1200 10.121
19.1352 10.166
19.1504 10.418
19.1655 10.688
19.1807 10.757
19.1959 10.574
19.2111 10.414
19.2262 10.563
19.2414 10.682
19.2566 10.821
19.2718 11.055
19.2869 10.845
19.3021 10.747
19.3173 10.947
19.3325 11.065
19.3476 11.066
19.3628 11.154
19.3780 11.292
19.3932 11.394
19.4083 11.378
19.4235 11.366
19.4387 11.360
19.4539 11.369
19.4690 11.127
19.4842 11.036
19.4994 11.091
19.5146 11.313
19.5297 11.630
19.5449 11.489
19.5601 11.512
19.5753 11.607
19.5904 11.662
19.6056 11.869
19.6208 11.703
19.6360 11.613
19.6511 11.736
19.6663 11.790
19.6815 11.803
19.6967 11.641
19.7118 11.713
19.7270 11.682
19.7422 11.454
19.7574 11.536
19.7725 11.802
19.7877 11.905
19.8029 11.917
19.8180 11.979
19.8332 11.995
19.8484 12.173
19.8636 12.201
19.8787 12.278
19.8939 12.794
19.9091 13.089
19.9243 13.258
19.9394 13.751
19.9546 14.008
19.9698 14.194
19.9850 14.476
20.0001 14.445
20.0153 14.404
20.0305 14.228
20.0457 13.942
20.0608 13.824
20.0760 13.753
20.0912 13.705
20.1064 13.675
20.1215 13.474
20.1367 13.642
20.1519 13.368
20.1671 12.868
20.1822 12.811
20.1974 12.682
20.2126 12.546
20.2278 12.643
20.2429 12.413
20.2581 12.181
20.2733 12.071
20.2885 11.857
20.3036 11.675
20.3188 11.718
20.3340 11.530
20.3492 11.677
20.3643 11.456
20.3795 11.173
20.3947 10.862
20.4099 10.719
20.4250 10.867
20.4402 10.934
20.4554 10.694
20.4706 10.848
20.4857 10.831
20.5009 10.897
20.5161 10.961
20.5313 10.741
20.5464 10.837
20.5616 10.675
20.5768 10.586
20.5920 10.709
20.6071 10.331
20.6223 10.345
20.6375 10.466
20.6527 10.487
20.6678 10.650
20.6830 10.608
20.6982 10.508
20.7134 10.313
20.7285 10.250
20.7437 10.315
20.7589 10.248
20.7741 10.413
20.7892 10.409
20.8044 10.281
20.8196 10.504
20.8348 10.395
20.8499 10.253
20.8651 10.467
20.8803 10.047
20.8955 10.287
20.9106 10.057
20.9258 10.105
20.9410 10.532
20.9562 10.271
20.9713 10.297
20.9865 10.345
21.0017 10.159
21.0169 10.337
21.0320 10.393
21.0472 9.971
21.0624 10.152
21.0776 10.234
21.0927 10.161
21.1079 10.081
21.1231 9.831
21.1383 9.938
21.1534 10.128
21.1686 9.688
21.1838 10.018
21.1990 9.605
21.2141 10.118
21.2293 9.948
21.2445 9.657
21.2597 9.831
21.2748 9.405
21.2900 9.998
21.3052 9.536
21.3204 9.752
21.3355 9.408
21.3507 9.519
21.3659 9.511
21.3811 9.571
21.3962 9.476
21.4114 9.437
21.4266 9.666
21.4418 9.755
21.4569 9.396
21.4721 9.279
21.4873 9.302
21.5025 9.305
21.5176 9.152
21.5328 9.462
21.5480 9.207
21.5632 9.298
21.5783 9.113
21.5935 9.094
21.6087 9.272
21.6239 9.249
21.6390 9.096
21.6542 9.083
21.6694 9.196
21.6846 9.207
21.6997 9.231
21.7149 9.308
21.7301 9.069
21.7453 9.055
21.7604 8.979
21.7756 9.120
21.7908 9.153
21.8060 9.003
21.8211 9.074
21.8363 9.146
21.8515 9.100
21.8667 9.032
21.8818 9.090
21.8970 8.973
21.9122 9.131
21.9274 9.151
21.9425 9.035
21.9577 9.078
21.9729 8.930
21.9881 8.905
22.0032 9.014
22.0184 9.017
22.0336 8.916
22.0488 9.016
22.0639 9.037
22.0791 8.956
22.0943 8.949
22.1095 8.813
22.1246 8.696
22.1398 8.817
22.1550 8.836
22.1702 8.761
22.1853 8.667
22.2005 8.665
22.2157 8.676
22.2309 8.671
22.2460 8.726
22.2612 8.560
22.2764 8.677
22.2916 8.697
22.3067 8.450
22.3219 8.568
22.3371 8.574
22.3523 8.373
22.3674 8.489
22.3826 8.670
22.3978 8.861
22.4130 8.697
22.4281 8.533
22.4433 8.481
22.4585 8.515
22.4737 8.614
22.4888 8.284
22.5040 8.734
22.5192 8.669
22.5344 8.248
22.5495 8.447
22.5647 8.423
22.5799 8.434
22.5951 8.529
22.6102 8.640
22.6254 8.371
22.6406 8.101
22.6558 8.615
22.6709 8.216
22.6861 8.251
22.7013 8.348
22.7165 7.923
22.7316 6.281
