'Id: "" Comment: "" Operator: "Lab Manager" Anode: "Mo" Scantype: "Still (Eiger2R_500K (1D mode))" TimePerStep: "300" X: "11.8" Y: "9.4" Z: "11.284" 
7.2532 18.974
7.2684 19.277
7.2836 18.974
7.2987 19.124
7.3139 18.946
7.3291 18.742
7.3443 19.205
7.3594 19.110
7.3746 19.437
7.3898 19.539
7.4050 19.607
7.4201 20.008
7.4353 19.630
7.4505 19.333
7.4657 19.061
7.4808 19.025
7.4960 19.347
7.5112 19.340
7.5264 19.614
7.5415 19.856
7.5567 19.687
7.5719 19.820
7.5871 20.143
7.6022 20.208
7.6174 20.115
7.6326 20.048
7.6478 20.180
7.6629 20.154
7.6781 20.293
7.6933 20.259
7.7085 20.327
7.7236 20.292
7.7388 20.390
7.7540 20.618
7.7692 20.730
7.7843 20.916
7.7995 21.030
7.8147 21.067
7.8299 20.968
7.8450 20.842
7.8602 20.893
7.8754 20.806
7.8905 20.781
7.9057 20.984
7.9209 21.148
7.9361 21.231
7.9512 21.281
7.9664 21.067
7.9816 21.115
7.9968 21.187
8.0119 20.998
8.0271 21.236
8.0423 21.316
8.0575 21.301
8.0726 21.155
8.0878 21.119
8.1030 21.212
8.1182 21.237
8.1333 20.964
8.1485 21.041
8.1637 21.102
8.1789 21.209
8.1940 21.293
8.2092 21.451
8.2244 21.728
8.2396 21.893
8.2547 21.416
8.2699 21.507
8.2851 21.563
8.3003 21.466
8.3154 21.736
8.3306 21.496
8.3458 21.939
8.3610 21.835
8.3761 21.771
8.3913 22.107
8.4065 21.989
8.4217 21.792
8.4368 21.946
8.4520 22.224
8.4672 22.022
8.4824 21.785
8.4975 21.805
8.5127 21.982
8.5279 21.858
8.5431 21.659
8.5582 21.963
8.5734 22.783
8.5886 22.410
8.6038 22.044
8.6189 22.016
8.6341 22.734
8.6493 22.160
8.6645 22.524
8.6796 22.698
8.6948 22.446
8.7100 22.576
8.7252 22.561
8.7403 22.880
8.7555 22.782
8.7707 23.177
8.7859 22.678
8.8010 23.105
8.8162 22.942
8.8314 22.579
8.8466 22.789
8.8617 22.372
8.8769 22.410
8.8921 22.571
8.9073 22.358
8.9224 22.208
8.9376 22.884
8.9528 22.808
8.9680 22.527
8.9831 22.752
8.9983 22.419
9.0135 22.702
9.0287 22.640
9.0438 22.781
9.0590 23.031
9.0742 23.256
9.0894 23.164
9.1045 22.433
9.1197 22.551
9.1349 22.771
9.1501 22.875
9.1652 22.604
9.1804 22.711
9.1956 22.826
9.2108 22.668
9.2259 22.862
9.2411 23.042
9.2563 23.174
9.2715 23.234
9.2866 22.854
9.3018 23.253
9.3170 23.152
9.3322 22.977
9.3473 22.860
9.3625 22.802
9.3777 23.059
9.3929 23.353
9.4080 23.394
9.4232 23.263
9.4384 23.297
9.4536 23.041
9.4687 23.170
9.4839 23.001
9.4991 23.180
9.5143 23.038
9.5294 23.337
9.5446 23.466
9.5598 23.254
9.5750 23.063
9.5901 23.326
9.6053 23.600
9.6205 23.703
9.6357 23.996
9.6508 23.710
9.6660 23.503
9.6812 23.611
9.6964 23.773
9.7115 24.091
9.7267 24.357
9.7419 24.127
9.7571 24.072
9.7722 24.055
9.7874 23.867
9.8026 24.035
9.8178 23.498
9.8329 23.287
9.8481 23.762
9.8633 23.514
9.8785 23.235
9.8936 23.159
9.9088 23.264
9.9240 23.649
9.9392 23.834
9.9543 23.744
9.9695 23.637
9.9847 23.658
9.9999 23.796
10.0150 23.399
10.0302 23.382
10.0454 24.049
10.0606 23.792
10.0757 23.559
10.0909 23.840
10.1061 23.625
10.1213 23.808
10.1364 23.803
10.1516 23.574
10.1668 23.846
10.1820 23.836
10.1971 24.086
10.2123 24.370
10.2275 24.455
10.2427 24.429
10.2578 24.000
10.2730 23.949
10.2882 23.762
10.3034 23.752
10.3185 23.396
10.3337 23.174
10.3489 23.282
10.3641 23.085
10.3792 22.924
10.3944 22.715
10.4096 22.524
10.4248 22.907
10.4399 22.766
10.4551 22.931
10.4703 22.948
10.4855 22.651
10.5006 22.631
10.5158 22.420
10.5310 22.440
10.5462 22.539
10.5613 22.797
10.5765 22.678
10.5917 22.399
10.6069 22.608
10.6220 22.906
10.6372 22.614
10.6524 22.636
10.6676 22.519
10.6827 22.763
10.6979 23.142
10.7131 22.821
10.7283 22.656
10.7434 22.413
10.7586 22.550
10.7738 22.331
10.7890 22.468
10.8041 22.166
10.8193 21.867
10.8345 22.054
10.8497 22.525
10.8648 22.339
10.8800 22.311
10.8952 22.297
10.9104 21.876
10.9255 22.277
10.9407 22.382
10.9559 22.263
10.9711 22.222
10.9862 22.224
11.0014 22.447
11.0166 22.202
11.0318 21.968
11.0469 21.462
11.0621 21.938
11.0773 22.295
11.0925 21.890
11.1076 22.011
11.1228 21.809
11.1380 21.736
11.1532 21.810
11.1683 21.901
11.1835 21.736
11.1987 21.803
11.2139 22.109
11.2290 21.984
11.2442 22.080
11.2594 22.097
11.2746 22.168
11.2897 21.922
11.3049 21.966
11.3201 21.767
11.3353 21.703
11.3504 21.955
11.3656 21.780
11.3808 21.464
11.3960 21.115
11.4111 21.150
11.4263 21.203
11.4415 21.185
11.4567 21.065
11.4718 21.022
11.4870 20.959
11.5022 21.209
11.5174 20.935
11.5325 20.823
11.5477 20.933
11.5629 21.089
11.5781 20.718
11.5932 20.843
11.6084 20.902
11.6236 21.166
11.6388 20.875
11.6539 20.950
11.6691 20.644
11.6843 20.550
11.6995 20.231
11.7146 20.220
11.7298 20.341
11.7450 20.490
11.7602 20.311
11.7753 20.194
11.7905 20.451
11.8057 20.055
11.8209 20.126
11.8360 19.943
11.8512 19.431
11.8664 19.775
11.8816 20.080
11.8967 19.869
11.9119 19.849
11.9271 19.772
11.9423 19.658
11.9574 19.705
11.9726 19.634
11.9878 19.606
12.0030 19.010
12.0181 18.881
12.0333 19.282
12.0485 19.104
12.0637 19.098
12.0788 18.984
12.0940 18.827
12.1092 18.882
12.1244 18.642
12.1395 18.572
12.1547 18.384
12.1699 18.399
12.1851 18.501
12.2002 18.297
12.2154 18.388
12.2306 18.116
12.2458 17.783
12.2609 17.760
12.2761 17.810
12.2913 17.781
12.3065 17.683
12.3216 17.701
12.3368 17.491
12.3520 17.537
12.3672 17.460
12.3823 17.475
12.3975 17.266
12.4127 17.153
12.4279 17.208
12.4430 17.150
12.4582 17.103
12.4734 17.116
12.4886 17.229
12.5037 17.280
12.5189 16.992
12.5341 16.690
12.5493 16.567
12.5644 16.470
12.5796 16.410
12.5948 16.253
12.6100 16.319
12.6251 16.120
12.6403 16.098
12.6555 16.036
12.6707 15.795
12.6858 15.655
12.7010 15.848
12.7162 15.814
12.7314 15.761
12.7465 15.626
12.7617 15.252
12.7769 15.460
12.7921 15.634
12.8072 15.293
12.8224 15.140
12.8376 15.244
12.8528 15.188
12.8679 14.953
12.8831 14.797
12.8983 14.807
12.9135 14.702
12.9286 14.723
12.9438 14.725
12.9590 14.600
12.9742 14.469
12.9893 14.328
13.0045 14.473
13.0197 14.519
13.0349 14.187
13.0500 14.013
13.0652 13.958
13.0804 13.785
13.0956 13.863
13.1107 13.952
13.1259 13.966
13.1411 13.836
13.1563 13.665
13.1714 13.497
13.1866 13.394
13.2018 13.488
13.2170 13.148
13.2321 12.922
13.2473 13.215
13.2625 13.370
13.2777 13.368
13.2928 13.370
13.3080 13.140
13.3232 13.080
13.3384 13.120
13.3535 12.915
13.3687 12.914
13.3839 12.957
13.3991 13.156
13.4142 13.121
13.4294 12.805
13.4446 12.773
13.4598 12.662
13.4749 12.732
13.4901 12.712
13.5053 12.592
13.5205 12.504
13.5356 12.515
13.5508 12.323
13.5660 12.222
13.5812 12.301
13.5963 12.372
13.6115 12.367
13.6267 12.143
13.6419 11.953
13.6570 12.058
13.6722 12.304
13.6874 12.144
13.7026 11.793
13.7177 12.033
13.7329 12.209
13.7481 12.122
13.7633 12.105
13.7784 12.221
13.7936 12.193
13.8088 12.198
13.8239 12.113
13.8391 12.277
13.8543 12.241
13.8695 12.224
13.8846 12.226
13.8998 11.983
13.9150 12.140
13.9302 12.067
13.9453 11.686
13.9605 11.242
13.9757 11.124
13.9909 11.312
14.0060 11.618
14.0212 11.359
14.0364 11.138
14.0516 11.161
14.0667 11.379
14.0819 11.663
14.0971 11.768
14.1123 11.609
14.1274 11.622
14.1426 11.660
14.1578 11.634
14.1730 11.552
14.1881 11.594
14.2033 11.733
14.2185 11.996
14.2337 11.949
14.2488 11.919
14.2640 11.831
14.2792 11.899
14.2944 12.257
14.3095 12.310
14.3247 12.383
14.3399 12.520
14.3551 12.650
14.3702 12.844
14.3854 13.092
14.4006 13.176
14.4158 13.138
14.4309 12.804
14.4461 12.745
14.4613 12.760
14.4765 12.626
14.4916 12.187
14.5068 11.986
14.5220 12.149
14.5372 11.808
14.5523 11.667
14.5675 11.761
14.5827 11.373
14.5979 11.270
14.6130 11.283
14.6282 11.483
14.6434 11.338
14.6586 11.168
14.6737 11.240
14.6889 11.180
14.7041 11.188
14.7193 10.844
14.7344 11.060
14.7496 10.794
14.7648 10.852
14.7800 10.402
14.7951 10.903
14.8103 10.617
14.8255 10.936
14.8407 11.069
14.8558 10.697
14.8710 10.527
14.8862 10.568
14.9014 10.778
14.9165 10.962
14.9317 10.868
14.9469 10.587
14.9621 10.559
14.9772 10.291
14.9924 10.263
15.0076 10.811
15.0228 10.581
15.0379 10.717
15.0531 10.583
15.0683 10.605
15.0835 10.292
15.0986 10.409
15.1138 10.249
15.1290 10.526
15.1442 10.312
15.1593 10.710
15.1745 10.471
15.1897 10.519
15.2049 10.242
15.2200 10.415
15.2352 10.369
15.2504 10.239
15.2656 10.292
15.2807 10.214
15.2959 10.181
15.3111 10.425
15.3263 10.127
15.3414 10.101
15.3566 10.312
15.3718 10.385
15.3870 10.279
15.4021 10.448
15.4173 10.385
15.4325 10.369
15.4477 10.520
15.4628 10.357
15.4780 10.607
15.4932 10.350
15.5084 10.522
15.5235 10.521
15.5387 10.207
15.5539 10.173
15.5691 10.318
15.5842 10.446
15.5994 10.025
15.6146 9.864
15.6298 10.131
15.6449 9.948
15.6601 10.121
15.6753 10.208
15.6905 9.515
15.7056 9.874
15.7208 10.004
15.7360 9.895
15.7512 9.892
15.7663 9.893
15.7815 9.602
15.7967 9.430
15.8119 9.738
15.8270 9.795
15.8422 9.695
15.8574 9.616
15.8726 9.730
15.8877 9.936
15.9029 9.896
15.9181 9.813
15.9333 9.821
15.9484 9.853
15.9636 9.611
15.9788 9.841
15.9940 9.923
16.0091 9.717
16.0243 9.845
16.0395 9.730
16.0547 9.524
16.0698 9.830
16.0850 9.697
16.1002 9.761
16.1154 9.808
16.1305 10.030
16.1457 9.789
16.1609 9.589
16.1761 9.544
16.1912 9.574
16.2064 9.639
16.2216 9.662
16.2368 9.861
16.2519 9.781
16.2671 9.913
16.2823 9.774
16.2975 10.069
16.3126 10.025
16.3278 9.720
16.3430 10.086
16.3582 9.793
16.3733 9.802
16.3885 10.034
16.4037 10.023
16.4189 10.088
16.4340 9.798
16.4492 9.591
16.4644 9.719
16.4796 9.821
16.4947 9.647
16.5099 9.681
16.5251 9.983
16.5403 9.795
16.5554 9.663
16.5706 9.920
16.5858 9.829
16.6010 9.541
16.6161 9.538
16.6313 9.878
16.6465 9.791
16.6617 9.947
16.6768 9.949
16.6920 9.907
16.7072 9.913
16.7224 9.907
16.7375 9.953
16.7527 10.214
16.7679 10.199
16.7831 10.068
16.7982 10.069
16.8134 10.026
16.8286 9.923
16.8438 9.910
16.8589 9.822
16.8741 9.748
16.8893 9.790
16.9045 9.780
16.9196 9.652
16.9348 9.707
16.9500 9.729
16.9652 9.688
16.9803 9.862
16.9955 9.871
17.0107 9.693
17.0259 9.788
17.0410 9.939
17.0562 10.105
17.0714 10.322
17.0866 10.432
17.1017 10.475
17.1169 10.609
17.1321 10.947
17.1473 11.525
17.1624 11.787
17.1776 12.212
17.1928 13.169
17.2080 13.823
17.2231 14.958
17.2383 16.368
17.2535 17.575
17.2687 18.560
17.2838 18.752
17.2990 18.246
17.3142 17.244
17.3294 16.291
17.3445 16.077
17.3597 16.066
17.3749 15.666
17.3901 15.273
17.4052 14.586
17.4204 13.377
17.4356 12.602
17.4508 12.216
17.4659 11.693
17.4811 11.460
17.4963 11.449
17.5115 11.406
17.5266 11.484
17.5418 11.554
17.5570 11.547
17.5722 11.573
17.5873 11.640
17.6025 11.629
17.6177 11.535
17.6329 11.436
17.6480 11.065
17.6632 10.932
17.6784 11.199
17.6936 11.229
17.7087 11.074
17.7239 10.931
17.7391 10.644
17.7543 10.622
17.7694 10.712
17.7846 10.545
17.7998 10.563
17.8150 10.691
17.8301 10.621
17.8453 10.420
17.8605 10.467
17.8757 10.595
17.8908 10.766
17.9060 10.987
17.9212 10.722
17.9364 10.444
17.9515 10.340
17.9667 10.294
17.9819 10.341
17.9971 10.325
18.0122 10.336
18.0274 10.096
18.0426 10.009
18.0578 10.317
18.0729 10.119
18.0881 10.007
18.1033 10.112
18.1185 9.964
18.1336 9.846
18.1488 10.122
18.1640 10.151
18.1792 9.983
18.1943 9.779
18.2095 9.813
18.2247 9.918
18.2399 9.734
18.2550 9.586
18.2702 9.777
18.2854 10.039
18.3006 9.968
18.3157 9.683
18.3309 9.559
18.3461 9.748
18.3613 9.855
18.3764 9.858
18.3916 9.775
18.4068 9.661
18.4220 9.700
18.4371 9.744
18.4523 9.798
18.4675 9.856
18.4827 9.775
18.4978 9.640
18.5130 9.659
18.5282 9.842
18.5434 9.552
18.5585 9.657
18.5737 9.949
18.5889 9.833
18.6041 9.749
18.6192 9.865
18.6344 9.883
18.6496 9.870
18.6648 9.768
18.6799 9.535
18.6951 9.554
18.7103 9.688
18.7255 9.645
18.7406 9.573
18.7558 9.801
18.7710 9.807
18.7862 9.888
18.8013 10.035
18.8165 9.750
18.8317 9.716
18.8469 9.758
18.8620 9.890
18.8772 10.014
18.8924 9.664
18.9076 9.537
18.9227 9.753
18.9379 9.887
18.9531 10.047
18.9683 9.953
18.9834 9.916
18.9986 10.081
19.0138 10.147
19.0290 9.987
19.0441 10.036
19.0593 10.077
19.0745 10.213
19.0897 10.263
19.1048 10.267
19.1200 10.342
19.1352 10.475
19.1504 10.395
19.1655 10.413
19.1807 10.567
19.1959 10.628
19.2111 10.585
19.2262 10.658
19.2414 10.847
19.2566 10.834
19.2718 10.884
19.2869 11.006
19.3021 10.928
19.3173 10.819
19.3325 11.074
19.3476 11.458
19.3628 11.274
19.3780 10.958
19.3932 11.258
19.4083 11.284
19.4235 10.999
19.4387 11.386
19.4539 11.566
19.4690 11.234
19.4842 11.344
19.4994 11.329
19.5146 11.171
19.5297 11.278
19.5449 11.569
19.5601 11.725
19.5753 11.641
19.5904 11.604
19.6056 11.457
19.6208 11.541
19.6360 11.695
19.6511 11.697
19.6663 11.799
19.6815 11.712
19.6967 11.726
19.7118 11.630
19.7270 11.498
19.7422 11.532
19.7574 11.736
19.7725 11.805
19.7877 11.969
19.8029 11.871
19.8180 11.666
19.8332 11.933
19.8484 12.174
19.8636 12.321
19.8787 12.360
19.8939 12.529
19.9091 12.831
19.9243 13.100
19.9394 13.572
19.9546 14.001
19.9698 14.130
19.9850 14.165
20.0001 13.958
20.0153 14.123
20.0305 14.064
20.0457 13.739
20.0608 13.654
20.0760 13.663
20.0912 13.704
20.1064 13.562
20.1215 13.108
20.1367 13.151
20.1519 13.196
20.1671 12.886
20.1822 12.956
20.1974 13.167
20.2126 13.401
20.2278 13.377
20.2429 13.020
20.2581 12.734
20.2733 12.271
20.2885 11.642
20.3036 11.711
20.3188 11.650
20.3340 11.764
20.3492 11.997
20.3643 11.935
20.3795 11.541
20.3947 11.146
20.4099 11.001
20.4250 10.781
20.4402 10.641
20.4554 10.840
20.4706 11.011
20.4857 10.864
20.5009 10.803
20.5161 10.660
20.5313 10.775
20.5464 10.622
20.5616 10.538
20.5768 10.621
20.5920 10.624
20.6071 10.664
20.6223 10.805
20.6375 11.009
20.6527 10.851
20.6678 10.441
20.6830 10.617
20.6982 10.768
20.7134 10.575
20.7285 10.681
20.7437 10.627
20.7589 10.413
20.7741 10.392
20.7892 10.502
20.8044 10.133
20.8196 10.381
20.8348 10.264
20.8499 10.484
20.8651 10.404
20.8803 10.411
20.8955 10.164
20.9106 9.929
20.9258 10.131
20.9410 10.221
20.9562 10.244
20.9713 10.205
20.9865 10.219
21.0017 10.057
21.0169 10.162
21.0320 10.155
21.0472 9.813
21.0624 9.985
21.0776 10.003
21.0927 10.186
21.1079 9.816
21.1231 10.051
21.1383 9.655
21.1534 10.128
21.1686 9.574
21.1838 9.777
21.1990 10.006
21.2141 10.079
21.2293 9.805
21.2445 9.699
21.2597 9.702
21.2748 9.144
21.2900 9.542
21.3052 9.408
21.3204 9.538
21.3355 9.509
21.3507 9.425
21.3659 9.788
21.3811 9.491
21.3962 9.414
21.4114 9.511
21.4266 9.249
21.4418 9.096
21.4569 9.270
21.4721 9.342
21.4873 9.254
21.5025 9.303
21.5176 9.511
21.5328 9.243
21.5480 9.165
21.5632 9.143
21.5783 9.139
21.5935 9.277
21.6087 9.191
21.6239 9.123
21.6390 9.181
21.6542 9.257
21.6694 9.313
21.6846 9.152
21.6997 8.966
21.7149 9.093
21.7301 9.267
21.7453 8.908
21.7604 8.945
21.7756 9.069
21.7908 9.103
21.8060 9.175
21.8211 9.037
21.8363 9.101
21.8515 9.208
21.8667 9.130
21.8818 9.198
21.8970 9.033
21.9122 8.736
21.9274 9.051
21.9425 9.260
21.9577 9.100
21.9729 9.103
21.9881 9.056
22.0032 8.881
22.0184 8.674
22.0336 8.646
22.0488 8.853
22.0639 9.064
22.0791 8.872
22.0943 8.722
22.1095 8.716
22.1246 8.779
22.1398 8.740
22.1550 8.538
22.1702 8.645
22.1853 8.623
22.2005 8.691
22.2157 8.701
22.2309 8.655
22.2460 8.604
22.2612 8.632
22.2764 8.592
22.2916 8.588
22.3067 8.478
22.3219 8.381
22.3371 8.318
22.3523 8.530
22.3674 8.898
22.3826 8.816
22.3978 8.661
22.4130 8.166
22.4281 8.363
22.4433 8.229
22.4585 8.226
22.4737 8.463
22.4888 8.545
22.5040 8.400
22.5192 8.357
22.5344 8.726
22.5495 8.542
22.5647 8.687
22.5799 8.395
22.5951 8.484
22.6102 8.211
22.6254 8.540
22.6406 8.461
22.6558 8.262
22.6709 8.448
22.6861 8.579
22.7013 8.447
22.7165 7.949
22.7316 6.566
