'Id: "" Comment: "" Operator: "Lab Manager" Anode: "Mo" Scantype: "Still (Eiger2R_500K (1D mode))" TimePerStep: "300" X: "11.8" Y: "9.4" Z: "11.284" 
7.2532 19.338
7.2684 19.112
7.2836 19.319
7.2987 19.288
7.3139 19.348
7.3291 19.422
7.3443 19.520
7.3594 19.422
7.3746 19.879
7.3898 19.746
7.4050 19.975
7.4201 19.328
7.4353 19.562
7.4505 19.737
7.4657 19.701
7.4808 19.932
7.4960 19.460
7.5112 19.528
7.5264 19.827
7.5415 20.173
7.5567 20.040
7.5719 20.076
7.5871 20.083
7.6022 20.066
7.6174 19.985
7.6326 20.183
7.6478 20.467
7.6629 20.044
7.6781 19.975
7.6933 20.315
7.7085 20.485
7.7236 20.335
7.7388 20.320
7.7540 20.390
7.7692 20.489
7.7843 20.568
7.7995 20.507
7.8147 20.570
7.8299 20.768
7.8450 20.654
7.8602 20.373
7.8754 20.399
7.8905 20.901
7.9057 20.926
7.9209 20.692
7.9361 20.930
7.9512 20.941
7.9664 20.845
7.9816 20.851
7.9968 21.361
8.0119 21.219
8.0271 21.310
8.0423 21.561
8.0575 21.433
8.0726 21.500
8.0878 21.590
8.1030 21.661
8.1182 21.508
8.1333 21.247
8.1485 21.589
8.1637 22.156
8.1789 22.374
8.1940 21.865
8.2092 21.793
8.2244 21.822
8.2396 22.064
8.2547 21.733
8.2699 21.847
8.2851 21.599
8.3003 21.602
8.3154 21.526
8.3306 21.774
8.3458 21.878
8.3610 21.690
8.3761 21.777
8.3913 21.617
8.4065 21.955
8.4217 22.052
8.4368 21.985
8.4520 22.530
8.4672 22.361
8.4824 22.113
8.4975 22.106
8.5127 22.095
8.5279 22.815
8.5431 22.449
8.5582 22.562
8.5734 22.328
8.5886 22.147
8.6038 22.615
8.6189 22.287
8.6341 22.172
8.6493 22.281
8.6645 22.508
8.6796 21.874
8.6948 22.423
8.7100 22.289
8.7252 22.646
8.7403 22.295
8.7555 22.364
8.7707 22.398
8.7859 22.550
8.8010 22.502
8.8162 22.952
8.8314 22.339
8.8466 22.739
8.8617 22.445
8.8769 22.593
8.8921 22.955
8.9073 22.955
8.9224 23.057
8.9376 22.899
8.9528 22.799
8.9680 22.683
8.9831 22.892
8.9983 22.326
9.0135 22.704
9.0287 22.608
9.0438 22.742
9.0590 22.495
9.0742 22.557
9.0894 23.094
9.1045 22.780
9.1197 22.701
9.1349 22.784
9.1501 23.128
9.1652 22.942
9.1804 23.106
9.1956 22.974
9.2108 22.777
9.2259 22.839
9.2411 22.705
9.2563 22.787
9.2715 23.084
9.2866 23.022
9.3018 22.776
9.3170 22.434
9.3322 22.782
9.3473 23.141
9.3625 22.902
9.3777 23.063
9.3929 23.005
9.4080 22.826
9.4232 23.066
9.4384 22.966
9.4536 23.160
9.4687 23.453
9.4839 23.267
9.4991 23.225
9.5143 23.483
9.5294 23.290
9.5446 23.231
9.5598 23.735
9.5750 23.724
9.5901 23.527
9.6053 23.374
9.6205 23.318
9.6357 23.560
9.6508 23.773
9.6660 23.700
9.6812 23.671
9.6964 23.966
9.7115 24.310
9.7267 24.623
9.7419 24.501
9.7571 24.214
9.7722 24.188
9.7874 24.220
9.8026 24.168
9.8178 23.896
9.8329 23.638
9.8481 24.014
9.8633 24.096
9.8785 24.302
9.8936 24.308
9.9088 24.130
9.9240 24.170
9.9392 24.080
9.9543 24.237
9.9695 24.654
9.9847 24.553
9.9999 24.116
10.0150 23.858
10.0302 23.489
10.0454 23.568
10.0606 23.593
10.0757 23.638
10.0909 23.902
10.1061 23.655
10.1213 23.791
10.1364 24.275
10.1516 23.912
10.1668 23.828
10.1820 23.914
10.1971 23.774
10.2123 23.588
10.2275 23.613
10.2427 23.848
10.2578 23.563
10.2730 23.420
10.2882 23.356
10.3034 23.638
10.3185 24.007
10.3337 23.497
10.3489 23.359
10.3641 23.487
10.3792 23.164
10.3944 23.063
10.4096 23.387
10.4248 23.491
10.4399 23.187
10.4551 22.955
10.4703 23.038
10.4855 23.165
10.5006 22.614
10.5158 23.103
10.5310 23.411
10.5462 22.924
10.5613 22.593
10.5765 22.354
10.5917 22.775
10.6069 22.819
10.6220 22.712
10.6372 23.325
10.6524 22.790
10.6676 22.214
10.6827 22.206
10.6979 22.917
10.7131 22.992
10.7283 22.413
10.7434 22.616
10.7586 22.972
10.7738 22.619
10.7890 22.374
10.8041 22.274
10.8193 22.188
10.8345 22.231
10.8497 22.474
10.8648 22.469
10.8800 22.542
10.8952 22.177
10.9104 22.075
10.9255 21.681
10.9407 21.935
10.9559 22.037
10.9711 21.801
10.9862 22.129
11.0014 22.167
11.0166 22.275
11.0318 22.302
11.0469 22.099
11.0621 21.932
11.0773 21.768
11.0925 21.743
11.1076 21.850
11.1228 21.950
11.1380 22.105
11.1532 21.605
11.1683 21.707
11.1835 22.057
11.1987 21.979
11.2139 22.110
11.2290 21.579
11.2442 21.829
11.2594 21.778
11.2746 21.860
11.2897 21.929
11.3049 21.485
11.3201 21.776
11.3353 21.652
11.3504 21.632
11.3656 21.631
11.3808 21.532
11.3960 21.421
11.4111 21.388
11.4263 21.440
11.4415 21.294
11.4567 21.351
11.4718 21.344
11.4870 21.253
11.5022 21.487
11.5174 21.505
11.5325 21.300
11.5477 21.115
11.5629 21.230
11.5781 21.248
11.5932 21.187
11.6084 21.105
11.6236 20.966
11.6388 20.993
11.6539 20.601
11.6691 20.559
11.6843 20.642
11.6995 20.876
11.7146 20.769
11.7298 20.444
11.7450 20.118
11.7602 20.470
11.7753 19.971
11.7905 19.832
11.8057 19.890
11.8209 19.759
11.8360 19.727
11.8512 19.633
11.8664 20.087
11.8816 19.857
11.8967 19.758
11.9119 19.957
11.9271 19.435
11.9423 19.281
11.9574 19.013
11.9726 19.259
11.9878 19.433
12.0030 19.329
12.0181 19.300
12.0333 19.254
12.0485 19.385
12.0637 19.325
12.0788 18.941
12.0940 18.787
12.1092 18.713
12.1244 18.523
12.1395 18.195
12.1547 18.511
12.1699 18.585
12.1851 18.338
12.2002 18.540
12.2154 18.337
12.2306 18.135
12.2458 17.932
12.2609 17.766
12.2761 18.147
12.2913 18.057
12.3065 17.963
12.3216 17.995
12.3368 17.445
12.3520 17.066
12.3672 17.039
12.3823 17.277
12.3975 17.354
12.4127 17.548
12.4279 17.091
12.4430 16.838
12.4582 16.798
12.4734 16.887
12.4886 16.974
12.5037 16.741
12.5189 16.460
12.5341 16.614
12.5493 16.799
12.5644 16.469
12.5796 16.117
12.5948 16.260
12.6100 16.032
12.6251 15.723
12.6403 15.786
12.6555 15.683
12.6707 15.547
12.6858 15.614
12.7010 15.816
12.7162 15.450
12.7314 15.273
12.7465 15.331
12.7617 15.272
12.7769 15.223
12.7921 15.209
12.8072 15.201
12.8224 14.884
12.8376 15.045
12.8528 15.164
12.8679 14.759
12.8831 14.858
12.8983 14.944
12.9135 14.632
12.9286 14.695
12.9438 14.579
12.9590 14.354
12.9742 14.519
12.9893 14.362
13.0045 14.385
13.0197 14.340
13.0349 14.099
13.0500 13.971
13.0652 13.934
13.0804 13.792
13.0956 13.631
13.1107 13.872
13.1259 13.722
13.1411 13.634
13.1563 13.706
13.1714 13.608
13.1866 13.595
13.2018 13.541
13.2170 13.479
13.2321 13.273
13.2473 13.452
13.2625 13.551
13.2777 13.151
13.2928 12.983
13.3080 12.874
13.3232 12.824
13.3384 12.898
13.3535 12.894
13.3687 13.062
13.3839 13.089
13.3991 12.949
13.4142 13.048
13.4294 12.872
13.4446 12.707
13.4598 12.748
13.4749 12.578
13.4901 12.527
13.5053 12.562
13.5205 12.583
13.5356 12.453
13.5508 12.382
13.5660 12.215
13.5812 12.246
13.5963 12.161
13.6115 12.181
13.6267 12.295
13.6419 12.151
13.6570 12.217
13.6722 11.982
13.6874 11.921
13.7026 12.029
13.7177 12.106
13.7329 12.165
13.7481 12.045
13.7633 11.791
13.7784 11.920
13.7936 12.006
13.8088 11.777
13.8239 12.104
13.8391 12.275
13.8543 12.236
13.8695 12.339
13.8846 12.120
13.8998 11.937
13.9150 11.763
13.9302 11.884
13.9453 11.831
13.9605 11.846
13.9757 11.619
13.9909 11.606
14.0060 11.607
14.0212 11.576
14.0364 11.177
14.0516 11.308
14.0667 11.335
14.0819 11.442
14.0971 11.131
14.1123 11.274
14.1274 11.278
14.1426 11.390
14.1578 11.176
14.1730 11.262
14.1881 11.253
14.2033 11.506
14.2185 11.323
14.2337 11.353
14.2488 11.524
14.2640 11.309
14.2792 11.390
14.2944 11.731
14.3095 11.623
14.3247 11.764
14.3399 11.980
14.3551 12.014
14.3702 12.424
14.3854 12.876
14.4006 13.426
14.4158 13.647
14.4309 13.640
14.4461 13.780
14.4613 14.022
14.4765 13.754
14.4916 13.492
14.5068 13.819
14.5220 13.643
14.5372 13.571
14.5523 13.094
14.5675 12.710
14.5827 12.337
14.5979 12.237
14.6130 12.134
14.6282 11.647
14.6434 11.820
14.6586 11.729
14.6737 11.162
14.6889 11.522
14.7041 11.498
14.7193 11.360
14.7344 11.136
14.7496 11.242
14.7648 11.314
14.7800 11.268
14.7951 11.455
14.8103 11.277
14.8255 11.356
14.8407 11.203
14.8558 11.161
14.8710 11.355
14.8862 11.048
14.9014 11.073
14.9165 11.189
14.9317 11.295
14.9469 10.633
14.9621 10.801
14.9772 10.622
14.9924 10.862
15.0076 10.458
15.0228 10.646
15.0379 10.664
15.0531 10.617
15.0683 10.393
15.0835 10.275
15.0986 10.370
15.1138 10.582
15.1290 10.388
15.1442 10.561
15.1593 10.276
15.1745 10.553
15.1897 10.696
15.2049 10.769
15.2200 10.827
15.2352 10.661
15.2504 10.479
15.2656 10.657
15.2807 10.570
15.2959 10.690
15.3111 10.715
15.3263 10.542
15.3414 10.556
15.3566 10.522
15.3718 10.174
15.3870 9.953
15.4021 10.465
15.4173 10.749
15.4325 10.427
15.4477 10.310
15.4628 10.511
15.4780 10.465
15.4932 10.351
15.5084 10.225
15.5235 10.298
15.5387 10.509
15.5539 10.385
15.5691 10.287
15.5842 10.233
15.5994 10.397
15.6146 10.002
15.6298 9.939
15.6449 10.236
15.6601 10.155
15.6753 10.420
15.6905 10.373
15.7056 10.280
15.7208 9.906
15.7360 10.207
15.7512 9.969
15.7663 9.852
15.7815 10.004
15.7967 9.952
15.8119 9.814
15.8270 9.773
15.8422 9.656
15.8574 9.571
15.8726 9.582
15.8877 9.640
15.9029 9.828
15.9181 9.629
15.9333 9.770
15.9484 9.735
15.9636 9.836
15.9788 9.859
15.9940 9.831
16.0091 9.884
16.0243 9.773
16.0395 9.666
16.0547 9.593
16.0698 9.857
16.0850 9.711
16.1002 9.623
16.1154 9.748
16.1305 9.531
16.1457 9.664
16.1609 9.890
16.1761 9.538
16.1912 9.658
16.2064 9.753
16.2216 9.747
16.2368 9.884
16.2519 9.959
16.2671 9.897
16.2823 10.053
16.2975 10.112
16.3126 10.152
16.3278 9.998
16.3430 10.038
16.3582 10.132
16.3733 10.354
16.3885 10.234
16.4037 10.359
16.4189 10.331
16.4340 10.338
16.4492 10.098
16.4644 10.096
16.4796 10.000
16.4947 9.887
16.5099 10.017
16.5251 9.877
16.5403 9.708
16.5554 9.777
16.5706 9.790
16.5858 9.789
16.6010 9.746
16.6161 9.767
16.6313 9.905
16.6465 9.931
16.6617 9.686
16.6768 9.710
16.6920 9.914
16.7072 10.194
16.7224 10.118
16.7375 10.182
16.7527 10.301
16.7679 10.299
16.7831 10.153
16.7982 10.178
16.8134 10.159
16.8286 10.041
16.8438 10.069
16.8589 10.067
16.8741 10.043
16.8893 10.002
16.9045 9.602
16.9196 9.617
16.9348 9.718
16.9500 9.624
16.9652 9.801
16.9803 10.053
16.9955 10.153
17.0107 10.086
17.0259 10.182
17.0410 10.371
17.0562 10.323
17.0714 10.264
17.0866 10.438
17.1017 10.518
17.1169 10.716
17.1321 11.132
17.1473 11.619
17.1624 11.907
17.1776 12.256
17.1928 12.974
17.2080 13.904
17.2231 15.008
17.2383 16.442
17.2535 17.682
17.2687 18.339
17.2838 18.756
17.2990 18.206
17.3142 17.029
17.3294 16.362
17.3445 16.258
17.3597 16.223
17.3749 15.779
17.3901 14.923
17.4052 13.974
17.4204 13.296
17.4356 12.539
17.4508 11.778
17.4659 11.448
17.4811 11.312
17.4963 11.064
17.5115 10.813
17.5266 10.751
17.5418 10.581
17.5570 10.380
17.5722 10.410
17.5873 10.329
17.6025 10.170
17.6177 10.404
17.6329 10.471
17.6480 10.139
17.6632 10.094
17.6784 10.376
17.6936 10.770
17.7087 10.697
17.7239 10.598
17.7391 10.866
17.7543 11.220
17.7694 11.584
17.7846 11.662
17.7998 12.063
17.8150 12.373
17.8301 12.397
17.8453 12.457
17.8605 12.494
17.8757 12.616
17.8908 12.664
17.9060 12.562
17.9212 12.374
17.9364 11.963
17.9515 11.590
17.9667 11.360
17.9819 11.483
17.9971 11.400
18.0122 11.008
18.0274 10.805
18.0426 10.697
18.0578 10.568
18.0729 10.182
18.0881 10.208
18.1033 10.335
18.1185 10.218
18.1336 10.257
18.1488 10.214
18.1640 10.058
18.1792 10.157
18.1943 10.059
18.2095 9.989
18.2247 10.077
18.2399 10.110
18.2550 10.005
18.2702 10.005
18.2854 10.069
18.3006 10.204
18.3157 10.162
18.3309 10.088
18.3461 10.139
18.3613 10.218
18.3764 9.884
18.3916 9.723
18.4068 9.964
18.4220 10.307
18.4371 10.045
18.4523 9.982
18.4675 9.921
18.4827 10.001
18.4978 10.046
18.5130 9.673
18.5282 9.657
18.5434 9.807
18.5585 9.896
18.5737 10.092
18.5889 9.991
18.6041 9.679
18.6192 10.000
18.6344 10.081
18.6496 9.968
18.6648 9.707
18.6799 9.622
18.6951 9.732
18.7103 9.781
18.7255 9.616
18.7406 9.579
18.7558 9.847
18.7710 9.978
18.7862 9.963
18.8013 9.749
18.8165 9.478
18.8317 9.998
18.8469 10.009
18.8620 9.959
18.8772 10.135
18.8924 10.154
18.9076 9.911
18.9227 9.835
18.9379 9.877
18.9531 10.092
18.9683 9.939
18.9834 9.886
18.9986 10.065
19.0138 10.098
19.0290 10.327
19.0441 10.388
19.0593 10.244
19.0745 10.317
19.0897 10.509
19.1048 10.435
19.1200 10.468
19.1352 10.444
19.1504 10.462
19.1655 10.601
19.1807 10.479
19.1959 10.388
19.2111 10.598
19.2262 11.128
19.2414 10.925
19.2566 10.775
19.2718 10.854
19.2869 10.871
19.3021 10.993
19.3173 11.141
19.3325 11.099
19.3476 11.072
19.3628 11.202
19.3780 11.368
19.3932 11.339
19.4083 11.159
19.4235 11.299
19.4387 11.449
19.4539 11.486
19.4690 11.267
19.4842 11.099
19.4994 11.564
19.5146 11.757
19.5297 11.500
19.5449 11.246
19.5601 11.386
19.5753 11.617
19.5904 11.668
19.6056 11.825
19.6208 11.822
19.6360 11.651
19.6511 11.589
19.6663 11.539
19.6815 11.457
19.6967 11.561
19.7118 11.731
19.7270 11.598
19.7422 11.539
19.7574 11.608
19.7725 11.936
19.7877 12.112
19.8029 11.933
19.8180 11.947
19.8332 12.034
19.8484 12.272
19.8636 12.406
19.8787 12.613
19.8939 12.692
19.9091 12.801
19.9243 13.402
19.9394 13.719
19.9546 13.953
19.9698 14.395
19.9850 14.633
20.0001 14.554
20.0153 14.248
20.0305 13.758
20.0457 13.770
20.0608 13.848
20.0760 13.572
20.0912 13.371
20.1064 13.653
20.1215 13.708
20.1367 13.408
20.1519 13.109
20.1671 12.886
20.1822 12.858
20.1974 12.618
20.2126 12.616
20.2278 12.455
20.2429 12.362
20.2581 12.096
20.2733 11.697
20.2885 11.655
20.3036 11.640
20.3188 11.605
20.3340 11.509
20.3492 11.316
20.3643 11.443
20.3795 11.355
20.3947 11.508
20.4099 11.118
20.4250 11.109
20.4402 11.261
20.4554 11.116
20.4706 11.160
20.4857 11.159
20.5009 11.128
20.5161 11.022
20.5313 11.051
20.5464 11.303
20.5616 11.144
20.5768 10.868
20.5920 10.853
20.6071 10.848
20.6223 11.123
20.6375 11.137
20.6527 11.336
20.6678 11.285
20.6830 10.981
20.6982 11.234
20.7134 10.826
20.7285 10.517
20.7437 11.004
20.7589 10.684
20.7741 10.602
20.7892 10.582
20.8044 10.461
20.8196 10.397
20.8348 10.741
20.8499 10.225
20.8651 10.384
20.8803 10.784
20.8955 10.339
20.9106 10.932
20.9258 10.895
20.9410 10.561
20.9562 10.570
20.9713 10.472
20.9865 10.296
21.0017 10.878
21.0169 10.661
21.0320 10.479
21.0472 10.135
21.0624 10.492
21.0776 10.491
21.0927 10.361
21.1079 10.470
21.1231 10.138
21.1383 10.387
21.1534 10.099
21.1686 10.322
21.1838 9.986
21.1990 9.927
21.2141 9.731
21.2293 9.741
21.2445 9.683
21.2597 9.494
21.2748 9.870
21.2900 9.848
21.3052 9.151
21.3204 9.590
21.3355 9.332
21.3507 9.532
21.3659 9.640
21.3811 9.748
21.3962 9.454
21.4114 9.301
21.4266 9.419
21.4418 9.520
21.4569 9.211
21.4721 9.355
21.4873 9.184
21.5025 9.539
21.5176 9.710
21.5328 9.294
21.5480 9.403
21.5632 9.554
21.5783 9.334
21.5935 9.220
21.6087 9.102
21.6239 9.095
21.6390 8.991
21.6542 9.161
21.6694 9.120
21.6846 9.155
21.6997 9.074
21.7149 9.138
21.7301 9.126
21.7453 9.121
21.7604 9.100
21.7756 8.649
21.7908 9.059
21.8060 9.079
21.8211 9.055
21.8363 9.020
21.8515 9.018
21.8667 9.079
21.8818 8.927
21.8970 8.984
21.9122 9.165
21.9274 8.992
21.9425 8.897
21.9577 8.935
21.9729 9.069
21.9881 9.023
22.0032 8.774
22.0184 8.769
22.0336 8.762
22.0488 8.706
22.0639 8.768
22.0791 8.774
22.0943 8.682
22.1095 8.692
22.1246 8.702
22.1398 8.577
22.1550 8.467
22.1702 8.568
22.1853 8.386
22.2005 8.442
22.2157 8.487
22.2309 8.581
22.2460 8.684
22.2612 8.368
22.2764 8.587
22.2916 8.711
22.3067 8.643
22.3219 8.465
22.3371 8.260
22.3523 8.300
22.3674 8.456
22.3826 8.535
22.3978 8.427
22.4130 8.407
22.4281 8.239
22.4433 8.491
22.4585 8.625
22.4737 8.674
22.4888 8.736
22.5040 8.432
22.5192 8.501
22.5344 8.435
22.5495 8.444
22.5647 8.218
22.5799 8.453
22.5951 8.529
22.6102 8.480
22.6254 8.611
22.6406 8.522
22.6558 8.454
22.6709 8.270
22.6861 8.569
22.7013 8.049
22.7165 7.946
22.7316 6.564
