'Id: "" Comment: "" Operator: "Lab Manager" Anode: "Mo" Scantype: "Still (Eiger2R_500K (1D mode))" TimePerStep: "300" X: "11.8" Y: "9.4" Z: "11.284" 
7.2532 18.534
7.2684 18.868
7.2836 19.270
7.2987 18.900
7.3139 18.911
7.3291 18.878
7.3443 18.708
7.3594 19.149
7.3746 19.153
7.3898 19.053
7.4050 19.157
7.4201 19.282
7.4353 19.235
7.4505 19.308
7.4657 19.607
7.4808 19.608
7.4960 19.833
7.5112 19.490
7.5264 19.201
7.5415 19.544
7.5567 19.514
7.5719 19.692
7.5871 19.624
7.6022 19.587
7.6174 19.766
7.6326 19.681
7.6478 20.001
7.6629 20.357
7.6781 20.247
7.6933 20.182
7.7085 20.268
7.7236 20.346
7.7388 20.002
7.7540 19.702
7.7692 20.350
7.7843 20.876
7.7995 20.570
7.8147 20.438
7.8299 20.735
7.8450 20.661
7.8602 20.800
7.8754 20.863
7.8905 20.818
7.9057 21.021
7.9209 21.147
7.9361 20.604
7.9512 20.444
7.9664 20.814
7.9816 20.744
7.9968 20.878
8.0119 21.079
8.0271 21.326
8.0423 21.380
8.0575 20.838
8.0726 21.056
8.0878 21.283
8.1030 21.633
8.1182 21.221
8.1333 20.749
8.1485 21.085
8.1637 21.165
8.1789 21.377
8.1940 21.605
8.2092 21.661
8.2244 21.415
8.2396 21.608
8.2547 21.707
8.2699 21.414
8.2851 21.460
8.3003 21.762
8.3154 21.600
8.3306 21.343
8.3458 21.324
8.3610 21.579
8.3761 21.916
8.3913 21.886
8.4065 21.682
8.4217 21.910
8.4368 21.961
8.4520 21.619
8.4672 21.664
8.4824 21.950
8.4975 21.943
8.5127 21.814
8.5279 22.212
8.5431 21.845
8.5582 21.862
8.5734 21.588
8.5886 22.295
8.6038 21.857
8.6189 21.853
8.6341 22.183
8.6493 21.951
8.6645 22.395
8.6796 21.908
8.6948 22.120
8.7100 22.114
8.7252 21.993
8.7403 22.420
8.7555 21.588
8.7707 22.355
8.7859 22.327
8.8010 22.189
8.8162 22.461
8.8314 22.418
8.8466 22.314
8.8617 22.328
8.8769 22.462
8.8921 22.655
8.9073 22.314
8.9224 22.282
8.9376 22.414
8.9528 22.487
8.9680 22.578
8.9831 22.337
8.9983 22.199
9.0135 22.290
9.0287 22.356
9.0438 22.234
9.0590 22.435
9.0742 22.678
9.0894 22.612
9.1045 22.659
9.1197 22.712
9.1349 22.691
9.1501 22.667
9.1652 22.841
9.1804 22.581
9.1956 23.137
9.2108 22.798
9.2259 22.875
9.2411 22.882
9.2563 22.577
9.2715 22.609
9.2866 22.989
9.3018 22.576
9.3170 22.636
9.3322 23.012
9.3473 22.732
9.3625 22.759
9.3777 22.667
9.3929 22.875
9.4080 22.777
9.4232 22.640
9.4384 23.130
9.4536 23.131
9.4687 23.054
9.4839 23.141
9.4991 23.159
9.5143 22.917
9.5294 23.041
9.5446 22.637
9.5598 22.924
9.5750 23.404
9.5901 23.235
9.6053 22.951
9.6205 23.055
9.6357 23.293
9.6508 23.270
9.6660 22.982
9.6812 23.383
9.6964 23.610
9.7115 23.556
9.7267 23.575
9.7419 23.776
9.7571 23.793
9.7722 23.530
9.7874 23.563
9.8026 23.494
9.8178 23.403
9.8329 23.456
9.8481 23.095
9.8633 23.265
9.8785 23.410
9.8936 23.259
9.9088 23.265
9.9240 22.925
9.9392 22.883
9.9543 23.177
9.9695 23.308
9.9847 23.068
9.9999 22.935
10.0150 23.165
10.0302 23.205
10.0454 23.455
10.0606 23.764
10.0757 23.477
10.0909 23.326
10.1061 23.375
10.1213 22.944
10.1364 22.749
10.1516 23.081
10.1668 23.382
10.1820 23.079
10.1971 23.068
10.2123 23.126
10.2275 22.757
10.2427 22.681
10.2578 22.744
10.2730 22.903
10.2882 23.032
10.3034 22.872
10.3185 22.859
10.3337 22.594
10.3489 22.715
10.3641 22.568
10.3792 22.331
10.3944 22.516
10.4096 22.513
10.4248 22.118
10.4399 22.264
10.4551 22.619
10.4703 22.479
10.4855 22.659
10.5006 22.644
10.5158 22.478
10.5310 22.396
10.5462 22.329
10.5613 22.564
10.5765 22.485
10.5917 22.334
10.6069 22.465
10.6220 22.402
10.6372 22.345
10.6524 22.771
10.6676 22.487
10.6827 22.423
10.6979 22.538
10.7131 22.225
10.7283 22.317
10.7434 22.313
10.7586 22.194
10.7738 22.561
10.7890 22.424
10.8041 22.217
10.8193 22.221
10.8345 22.042
10.8497 22.276
10.8648 22.313
10.8800 22.215
10.8952 22.127
10.9104 21.734
10.9255 21.982
10.9407 22.308
10.9559 22.126
10.9711 21.633
10.9862 21.724
11.0014 22.156
11.0166 22.513
11.0318 22.343
11.0469 22.173
11.0621 21.989
11.0773 21.850
11.0925 21.981
11.1076 22.107
11.1228 21.842
11.1380 21.773
11.1532 21.624
11.1683 21.803
11.1835 21.710
11.1987 21.462
11.2139 21.617
11.2290 21.647
11.2442 21.490
11.2594 21.448
11.2746 21.507
11.2897 21.355
11.3049 21.646
11.3201 21.450
11.3353 21.256
11.3504 20.872
11.3656 20.894
11.3808 20.965
11.3960 20.912
11.4111 21.035
11.4263 20.921
11.4415 21.171
11.4567 21.166
11.4718 21.078
11.4870 20.975
11.5022 20.944
11.5174 21.404
11.5325 21.382
11.5477 20.604
11.5629 20.449
11.5781 21.090
11.5932 20.762
11.6084 20.291
11.6236 20.508
11.6388 20.280
11.6539 20.545
11.6691 20.790
11.6843 20.288
11.6995 20.421
11.7146 20.121
11.7298 19.890
11.7450 20.103
11.7602 20.528
11.7753 20.399
11.7905 20.042
11.8057 19.885
11.8209 20.046
11.8360 19.867
11.8512 19.707
11.8664 19.719
11.8816 19.849
11.8967 19.903
11.9119 19.902
11.9271 19.520
11.9423 19.212
11.9574 19.469
11.9726 19.134
11.9878 19.114
12.0030 19.112
12.0181 18.930
12.0333 18.859
12.0485 18.974
12.0637 18.800
12.0788 19.116
12.0940 18.924
12.1092 19.059
12.1244 18.696
12.1395 18.711
12.1547 18.752
12.1699 18.658
12.1851 18.280
12.2002 17.934
12.2154 17.912
12.2306 18.174
12.2458 18.087
12.2609 17.890
12.2761 17.759
12.2913 17.701
12.3065 17.690
12.3216 17.466
12.3368 17.291
12.3520 17.318
12.3672 17.252
12.3823 16.951
12.3975 16.860
12.4127 17.105
12.4279 17.268
12.4430 16.807
12.4582 16.624
12.4734 16.624
12.4886 16.604
12.5037 16.501
12.5189 16.413
12.5341 16.366
12.5493 16.544
12.5644 16.258
12.5796 16.077
12.5948 16.168
12.6100 15.937
12.6251 15.695
12.6403 15.805
12.6555 15.894
12.6707 15.703
12.6858 15.590
12.7010 15.576
12.7162 15.492
12.7314 15.516
12.7465 15.456
12.7617 15.217
12.7769 15.301
12.7921 15.277
12.8072 15.174
12.8224 15.016
12.8376 14.842
12.8528 15.017
12.8679 14.977
12.8831 14.756
12.8983 14.848
12.9135 14.751
12.9286 14.502
12.9438 14.304
12.9590 14.390
12.9742 14.340
12.9893 14.171
13.0045 14.171
13.0197 13.970
13.0349 13.883
13.0500 14.034
13.0652 13.899
13.0804 13.779
13.0956 13.835
13.1107 13.897
13.1259 13.922
13.1411 13.834
13.1563 13.732
13.1714 13.588
13.1866 13.722
13.2018 13.738
13.2170 13.361
13.2321 13.227
13.2473 13.341
13.2625 13.327
13.2777 13.110
13.2928 12.994
13.3080 13.131
13.3232 13.266
13.3384 13.243
13.3535 13.203
13.3687 13.122
13.3839 13.120
13.3991 13.136
13.4142 13.003
13.4294 12.823
13.4446 12.783
13.4598 12.932
13.4749 12.765
13.4901 12.561
13.5053 12.669
13.5205 12.709
13.5356 12.354
13.5508 12.290
13.5660 12.222
13.5812 12.102
13.5963 12.287
13.6115 12.036
13.6267 12.050
13.6419 12.316
13.6570 12.389
13.6722 12.168
13.6874 12.088
13.7026 12.038
13.7177 12.260
13.7329 13.730
13.7481 15.083
13.7633 13.235
13.7784 12.356
13.7936 12.426
13.8088 13.228
13.8239 13.475
13.8391 12.851
13.8543 12.419
13.8695 12.248
13.8846 12.445
13.8998 12.239
13.9150 12.117
13.9302 12.128
13.9453 12.009
13.9605 11.820
13.9757 11.702
13.9909 11.660
14.0060 11.878
14.0212 11.785
14.0364 11.735
14.0516 11.485
14.0667 11.412
14.0819 11.718
14.0971 11.774
14.1123 11.804
14.1274 11.537
14.1426 11.623
14.1578 11.665
14.1730 11.659
14.1881 11.811
14.2033 11.692
14.2185 11.827
14.2337 11.636
14.2488 11.664
14.2640 11.637
14.2792 11.620
14.2944 12.056
14.3095 12.187
14.3247 12.313
14.3399 12.368
14.3551 12.076
14.3702 12.645
14.3854 12.847
14.4006 13.006
14.4158 13.214
14.4309 13.172
14.4461 12.886
14.4613 12.265
14.4765 12.270
14.4916 12.241
14.5068 11.890
14.5220 11.420
14.5372 11.471
14.5523 11.437
14.5675 11.348
14.5827 10.942
14.5979 10.728
14.6130 10.796
14.6282 10.783
14.6434 10.827
14.6586 10.907
14.6737 10.470
14.6889 10.544
14.7041 10.543
14.7193 10.749
14.7344 10.720
14.7496 10.595
14.7648 10.819
14.7800 10.450
14.7951 10.888
14.8103 10.322
14.8255 10.425
14.8407 10.266
14.8558 10.610
14.8710 10.631
14.8862 10.697
14.9014 10.334
14.9165 10.769
14.9317 10.542
14.9469 10.592
14.9621 10.403
14.9772 10.464
14.9924 10.134
15.0076 10.217
15.0228 10.424
15.0379 10.352
15.0531 10.433
15.0683 10.434
15.0835 10.142
15.0986 10.630
15.1138 10.596
15.1290 10.395
15.1442 10.220
15.1593 9.796
15.1745 9.855
15.1897 10.254
15.2049 10.187
15.2200 10.187
15.2352 10.130
15.2504 9.687
15.2656 10.040
15.2807 10.062
15.2959 10.227
15.3111 10.272
15.3263 10.098
15.3414 10.011
15.3566 10.041
15.3718 9.986
15.3870 10.102
15.4021 10.038
15.4173 10.258
15.4325 10.261
15.4477 10.250
15.4628 10.232
15.4780 10.243
15.4932 10.008
15.5084 9.897
15.5235 10.173
15.5387 9.924
15.5539 9.919
15.5691 9.890
15.5842 9.740
15.5994 9.765
15.6146 10.120
15.6298 9.850
15.6449 9.679
15.6601 9.744
15.6753 9.776
15.6905 9.671
15.7056 9.938
15.7208 9.575
15.7360 9.732
15.7512 9.737
15.7663 9.563
15.7815 9.586
15.7967 9.784
15.8119 9.611
15.8270 9.912
15.8422 9.534
15.8574 9.401
15.8726 9.239
15.8877 9.668
15.9029 9.346
15.9181 9.388
15.9333 9.736
15.9484 9.631
15.9636 9.548
15.9788 9.821
15.9940 9.760
16.0091 9.982
16.0243 9.479
16.0395 9.634
16.0547 9.523
16.0698 9.544
16.0850 9.666
16.1002 9.714
16.1154 9.474
16.1305 9.212
16.1457 9.533
16.1609 9.510
16.1761 9.472
16.1912 9.561
16.2064 9.768
16.2216 9.584
16.2368 9.517
16.2519 9.697
16.2671 9.925
16.2823 9.727
16.2975 9.790
16.3126 10.119
16.3278 10.150
16.3430 9.721
16.3582 9.673
16.3733 9.835
16.3885 9.806
16.4037 9.807
16.4189 9.636
16.4340 9.557
16.4492 9.686
16.4644 9.897
16.4796 9.922
16.4947 9.774
16.5099 9.685
16.5251 9.797
16.5403 9.790
16.5554 9.596
16.5706 9.689
16.5858 9.520
16.6010 9.578
16.6161 9.617
16.6313 9.791
16.6465 9.925
16.6617 9.842
16.6768 9.762
16.6920 9.926
16.7072 9.971
16.7224 9.904
16.7375 9.884
16.7527 9.934
16.7679 10.172
16.7831 10.166
16.7982 9.914
16.8134 9.920
16.8286 9.889
16.8438 9.807
16.8589 9.790
16.8741 9.725
16.8893 9.642
16.9045 9.439
16.9196 9.247
16.9348 9.441
16.9500 9.826
16.9652 9.899
16.9803 9.918
16.9955 9.812
17.0107 9.945
17.0259 10.143
17.0410 10.058
17.0562 10.047
17.0714 10.171
17.0866 10.426
17.1017 10.582
17.1169 10.491
17.1321 10.645
17.1473 11.329
17.1624 11.936
17.1776 12.399
17.1928 13.192
17.2080 13.987
17.2231 15.081
17.2383 16.211
17.2535 17.535
17.2687 18.532
17.2838 18.701
17.2990 18.387
17.3142 17.412
17.3294 16.430
17.3445 16.187
17.3597 16.292
17.3749 16.341
17.3901 15.660
17.4052 14.381
17.4204 13.475
17.4356 12.844
17.4508 12.207
17.4659 11.770
17.4811 11.769
17.4963 11.597
17.5115 11.343
17.5266 11.204
17.5418 11.201
17.5570 11.295
17.5722 11.092
17.5873 11.026
17.6025 11.150
17.6177 11.221
17.6329 11.314
17.6480 11.328
17.6632 11.402
17.6784 11.584
17.6936 11.603
17.7087 11.576
17.7239 11.529
17.7391 11.246
17.7543 11.154
17.7694 10.990
17.7846 10.767
17.7998 10.862
17.8150 10.884
17.8301 10.536
17.8453 10.192
17.8605 10.280
17.8757 10.207
17.8908 10.325
17.9060 10.593
17.9212 10.237
17.9364 10.023
17.9515 10.003
17.9667 9.977
17.9819 10.182
17.9971 10.445
18.0122 10.375
18.0274 10.018
18.0426 10.175
18.0578 10.213
18.0729 9.928
18.0881 9.927
18.1033 10.104
18.1185 10.145
18.1336 10.161
18.1488 9.804
18.1640 9.726
18.1792 10.107
18.1943 10.304
18.2095 10.101
18.2247 9.984
18.2399 9.867
18.2550 9.772
18.2702 9.619
18.2854 9.642
18.3006 9.932
18.3157 10.067
18.3309 10.034
18.3461 9.915
18.3613 9.762
18.3764 9.852
18.3916 9.931
18.4068 9.861
18.4220 9.742
18.4371 9.954
18.4523 9.819
18.4675 9.761
18.4827 9.865
18.4978 9.802
18.5130 9.763
18.5282 9.736
18.5434 9.764
18.5585 9.751
18.5737 9.500
18.5889 9.838
18.6041 10.080
18.6192 9.819
18.6344 9.688
18.6496 9.828
18.6648 9.693
18.6799 9.775
18.6951 9.815
18.7103 9.776
18.7255 9.727
18.7406 9.794
18.7558 9.775
18.7710 9.694
18.7862 9.609
18.8013 9.750
18.8165 9.873
18.8317 9.972
18.8469 9.838
18.8620 9.940
18.8772 9.885
18.8924 9.795
18.9076 10.005
18.9227 9.956
18.9379 9.894
18.9531 10.049
18.9683 10.187
18.9834 10.091
18.9986 9.942
19.0138 10.144
19.0290 10.086
19.0441 10.115
19.0593 10.301
19.0745 10.032
19.0897 9.990
19.1048 10.128
19.1200 10.534
19.1352 10.444
19.1504 10.236
19.1655 10.291
19.1807 10.459
19.1959 10.368
19.2111 10.390
19.2262 10.721
19.2414 10.797
19.2566 10.833
19.2718 10.705
19.2869 10.651
19.3021 10.796
19.3173 10.955
19.3325 10.880
19.3476 10.911
19.3628 11.044
19.3780 11.080
19.3932 11.076
19.4083 11.311
19.4235 11.218
19.4387 11.214
19.4539 11.096
19.4690 11.152
19.4842 11.420
19.4994 11.362
19.5146 11.443
19.5297 11.702
19.5449 11.543
19.5601 11.394
19.5753 11.444
19.5904 11.599
19.6056 11.588
19.6208 11.439
19.6360 11.565
19.6511 11.794
19.6663 11.879
19.6815 11.638
19.6967 11.541
19.7118 11.578
19.7270 11.662
19.7422 11.858
19.7574 11.965
19.7725 11.708
19.7877 11.657
19.8029 11.940
19.8180 11.933
19.8332 11.944
19.8484 12.231
19.8636 12.395
19.8787 12.448
19.8939 12.838
19.9091 13.206
19.9243 13.501
19.9394 13.818
19.9546 14.203
19.9698 14.388
19.9850 14.469
20.0001 14.663
20.0153 14.255
20.0305 14.000
20.0457 13.714
20.0608 13.643
20.0760 13.725
20.0912 13.716
20.1064 13.547
20.1215 13.515
20.1367 13.431
20.1519 13.278
20.1671 13.077
20.1822 12.598
20.1974 12.480
20.2126 12.679
20.2278 12.785
20.2429 12.412
20.2581 12.126
20.2733 11.993
20.2885 11.897
20.3036 11.841
20.3188 11.961
20.3340 11.939
20.3492 12.217
20.3643 12.211
20.3795 11.960
20.3947 11.803
20.4099 11.698
20.4250 11.725
20.4402 11.719
20.4554 12.015
20.4706 12.088
20.4857 11.912
20.5009 11.625
20.5161 11.641
20.5313 11.689
20.5464 11.356
20.5616 11.316
20.5768 11.140
20.5920 11.082
20.6071 11.411
20.6223 11.256
20.6375 10.936
20.6527 10.715
20.6678 10.324
20.6830 10.668
20.6982 10.683
20.7134 10.454
20.7285 10.194
20.7437 10.280
20.7589 10.398
20.7741 10.466
20.7892 10.339
20.8044 10.243
20.8196 10.094
20.8348 10.216
20.8499 10.300
20.8651 10.323
20.8803 10.386
20.8955 10.385
20.9106 10.245
20.9258 10.096
20.9410 10.244
20.9562 9.997
20.9713 10.209
20.9865 10.238
21.0017 9.963
21.0169 9.899
21.0320 10.217
21.0472 9.825
21.0624 9.758
21.0776 9.642
21.0927 9.773
21.1079 9.753
21.1231 10.046
21.1383 9.562
21.1534 9.462
21.1686 9.840
21.1838 9.665
21.1990 9.965
21.2141 9.779
21.2293 9.825
21.2445 9.549
21.2597 9.613
21.2748 9.423
21.2900 9.613
21.3052 9.585
21.3204 9.749
21.3355 9.513
21.3507 9.353
21.3659 9.341
21.3811 9.748
21.3962 9.649
21.4114 9.468
21.4266 9.308
21.4418 9.026
21.4569 9.348
21.4721 9.465
21.4873 9.557
21.5025 9.336
21.5176 9.325
21.5328 9.145
21.5480 9.056
21.5632 9.047
21.5783 9.233
21.5935 9.255
21.6087 9.267
21.6239 9.227
21.6390 9.173
21.6542 9.245
21.6694 9.277
21.6846 9.115
21.6997 9.078
21.7149 9.071
21.7301 9.188
21.7453 9.194
21.7604 8.892
21.7756 8.842
21.7908 8.811
21.8060 8.793
21.8211 8.917
21.8363 8.957
21.8515 8.877
21.8667 8.897
21.8818 9.258
21.8970 9.185
21.9122 9.019
21.9274 8.930
21.9425 8.732
21.9577 9.087
21.9729 9.113
21.9881 8.904
22.0032 8.911
22.0184 8.888
22.0336 8.884
22.0488 8.731
22.0639 8.625
22.0791 9.011
22.0943 9.049
22.1095 8.791
22.1246 8.679
22.1398 8.549
22.1550 8.604
22.1702 8.499
22.1853 8.725
22.2005 8.688
22.2157 8.406
22.2309 8.553
22.2460 8.696
22.2612 8.637
22.2764 8.745
22.2916 8.532
22.3067 8.672
22.3219 8.576
22.3371 8.505
22.3523 8.297
22.3674 8.514
22.3826 8.392
22.3978 8.402
22.4130 8.619
22.4281 8.443
22.4433 8.623
22.4585 8.433
22.4737 8.590
22.4888 8.525
22.5040 8.026
22.5192 8.487
22.5344 8.350
22.5495 8.489
22.5647 8.401
22.5799 8.217
22.5951 8.085
22.6102 8.087
22.6254 8.530
22.6406 8.465
22.6558 8.225
22.6709 8.270
22.6861 8.326
22.7013 8.166
22.7165 7.751
22.7316 6.297
