'Id: "" Comment: "" Operator: "Lab Manager" Anode: "Mo" Scantype: "Still (Eiger2R_500K (1D mode))" TimePerStep: "300" X: "11.8" Y: "9.4" Z: "11.284" 
7.2532 18.581
7.2684 18.797
7.2836 18.376
7.2987 18.546
7.3139 19.316
7.3291 18.951
7.3443 18.745
7.3594 19.030
7.3746 18.971
7.3898 18.940
7.4050 19.101
7.4201 19.769
7.4353 19.162
7.4505 18.938
7.4657 19.160
7.4808 19.216
7.4960 19.479
7.5112 19.484
7.5264 19.683
7.5415 19.537
7.5567 19.413
7.5719 19.463
7.5871 19.764
7.6022 19.883
7.6174 19.755
7.6326 19.735
7.6478 19.675
7.6629 19.781
7.6781 20.018
7.6933 19.908
7.7085 20.103
7.7236 20.158
7.7388 19.958
7.7540 20.071
7.7692 20.211
7.7843 20.469
7.7995 20.565
7.8147 20.315
7.8299 20.371
7.8450 20.603
7.8602 20.620
7.8754 20.485
7.8905 20.642
7.9057 20.648
7.9209 20.626
7.9361 20.665
7.9512 20.650
7.9664 20.658
7.9816 20.773
7.9968 20.877
8.0119 21.191
8.0271 21.026
8.0423 21.084
8.0575 21.383
8.0726 20.990
8.0878 21.421
8.1030 21.454
8.1182 21.157
8.1333 21.553
8.1485 21.283
8.1637 21.318
8.1789 21.365
8.1940 21.104
8.2092 21.555
8.2244 21.132
8.2396 21.052
8.2547 21.527
8.2699 21.636
8.2851 21.531
8.3003 21.443
8.3154 21.845
8.3306 21.553
8.3458 21.411
8.3610 21.490
8.3761 21.282
8.3913 21.781
8.4065 22.050
8.4217 21.753
8.4368 22.109
8.4520 22.149
8.4672 21.455
8.4824 21.365
8.4975 21.582
8.5127 21.655
8.5279 21.847
8.5431 22.493
8.5582 21.684
8.5734 21.877
8.5886 21.392
8.6038 21.623
8.6189 22.315
8.6341 22.107
8.6493 22.332
8.6645 21.815
8.6796 22.102
8.6948 22.461
8.7100 22.508
8.7252 22.091
8.7403 22.276
8.7555 22.360
8.7707 22.626
8.7859 21.907
8.8010 22.491
8.8162 22.512
8.8314 22.397
8.8466 22.403
8.8617 22.473
8.8769 22.180
8.8921 22.277
8.9073 22.114
8.9224 22.274
8.9376 22.781
8.9528 22.446
8.9680 22.570
8.9831 22.527
8.9983 22.615
9.0135 22.629
9.0287 22.642
9.0438 22.393
9.0590 22.356
9.0742 22.552
9.0894 22.458
9.1045 22.843
9.1197 22.669
9.1349 22.400
9.1501 22.736
9.1652 22.973
9.1804 23.100
9.1956 22.341
9.2108 22.524
9.2259 22.721
9.2411 22.694
9.2563 22.738
9.2715 22.537
9.2866 22.527
9.3018 23.015
9.3170 22.709
9.3322 22.883
9.3473 22.856
9.3625 23.021
9.3777 22.851
9.3929 22.834
9.4080 23.047
9.4232 22.869
9.4384 22.884
9.4536 23.279
9.4687 23.108
9.4839 23.131
9.4991 23.097
9.5143 22.932
9.5294 23.163
9.5446 23.496
9.5598 23.342
9.5750 22.842
9.5901 23.085
9.6053 23.403
9.6205 23.394
9.6357 23.319
9.6508 23.134
9.6660 23.265
9.6812 23.442
9.6964 23.715
9.7115 23.907
9.7267 24.093
9.7419 23.930
9.7571 23.690
9.7722 23.766
9.7874 23.814
9.8026 23.768
9.8178 23.528
9.8329 23.289
9.8481 22.934
9.8633 22.784
9.8785 23.176
9.8936 23.325
9.9088 23.023
9.9240 22.922
9.9392 22.808
9.9543 22.728
9.9695 22.838
9.9847 22.569
9.9999 22.751
10.0150 22.963
10.0302 22.962
10.0454 22.926
10.0606 22.992
10.0757 23.232
10.0909 23.422
10.1061 23.240
10.1213 23.124
10.1364 23.397
10.1516 23.232
10.1668 23.200
10.1820 23.097
10.1971 23.089
10.2123 23.054
10.2275 22.714
10.2427 22.721
10.2578 22.728
10.2730 22.828
10.2882 22.897
10.3034 22.836
10.3185 22.531
10.3337 22.550
10.3489 22.592
10.3641 22.872
10.3792 22.688
10.3944 22.467
10.4096 22.534
10.4248 22.618
10.4399 22.465
10.4551 22.546
10.4703 22.479
10.4855 22.579
10.5006 22.557
10.5158 22.522
10.5310 22.706
10.5462 22.385
10.5613 22.190
10.5765 22.413
10.5917 22.683
10.6069 22.609
10.6220 22.266
10.6372 22.332
10.6524 22.293
10.6676 22.247
10.6827 22.059
10.6979 22.320
10.7131 22.555
10.7283 22.515
10.7434 22.181
10.7586 22.378
10.7738 22.402
10.7890 22.261
10.8041 22.278
10.8193 22.154
10.8345 21.984
10.8497 22.139
10.8648 22.169
10.8800 22.462
10.8952 22.076
10.9104 22.037
10.9255 22.269
10.9407 21.948
10.9559 22.181
10.9711 21.735
10.9862 21.980
11.0014 22.089
11.0166 21.832
11.0318 22.421
11.0469 21.922
11.0621 21.598
11.0773 22.129
11.0925 21.866
11.1076 21.710
11.1228 21.457
11.1380 21.674
11.1532 21.792
11.1683 21.762
11.1835 21.976
11.1987 21.991
11.2139 21.528
11.2290 21.307
11.2442 21.356
11.2594 21.390
11.2746 21.282
11.2897 21.367
11.3049 21.434
11.3201 21.475
11.3353 21.574
11.3504 21.885
11.3656 21.571
11.3808 21.263
11.3960 21.043
11.4111 21.112
11.4263 21.152
11.4415 21.041
11.4567 21.116
11.4718 21.125
11.4870 21.153
11.5022 21.018
11.5174 21.171
11.5325 20.883
11.5477 20.867
11.5629 20.803
11.5781 21.078
11.5932 21.203
11.6084 20.727
11.6236 20.691
11.6388 20.566
11.6539 20.537
11.6691 20.268
11.6843 20.757
11.6995 20.861
11.7146 20.262
11.7298 20.288
11.7450 20.157
11.7602 20.093
11.7753 19.913
11.7905 20.143
11.8057 20.208
11.8209 20.455
11.8360 20.115
11.8512 19.944
11.8664 20.150
11.8816 19.730
11.8967 19.607
11.9119 19.467
11.9271 19.544
11.9423 19.675
11.9574 19.559
11.9726 19.270
11.9878 19.401
12.0030 19.320
12.0181 18.895
12.0333 19.040
12.0485 19.139
12.0637 18.884
12.0788 19.194
12.0940 18.785
12.1092 18.599
12.1244 18.760
12.1395 18.436
12.1547 18.481
12.1699 18.111
12.1851 18.049
12.2002 17.991
12.2154 17.868
12.2306 18.078
12.2458 17.681
12.2609 17.972
12.2761 18.033
12.2913 18.067
12.3065 18.041
12.3216 17.929
12.3368 17.588
12.3520 17.499
12.3672 17.388
12.3823 17.185
12.3975 17.217
12.4127 17.218
12.4279 17.327
12.4430 16.970
12.4582 16.604
12.4734 16.827
12.4886 16.873
12.5037 16.814
12.5189 16.803
12.5341 16.758
12.5493 16.902
12.5644 16.487
12.5796 16.318
12.5948 16.220
12.6100 15.995
12.6251 16.062
12.6403 16.155
12.6555 15.701
12.6707 15.621
12.6858 15.887
12.7010 15.568
12.7162 15.296
12.7314 15.358
12.7465 15.245
12.7617 15.387
12.7769 15.326
12.7921 15.093
12.8072 15.058
12.8224 15.028
12.8376 15.041
12.8528 15.145
12.8679 14.971
12.8831 14.715
12.8983 14.515
12.9135 14.248
12.9286 14.212
12.9438 14.482
12.9590 14.503
12.9742 14.320
12.9893 14.369
13.0045 14.302
13.0197 14.343
13.0349 14.281
13.0500 14.071
13.0652 13.985
13.0804 13.942
13.0956 13.735
13.1107 13.586
13.1259 13.709
13.1411 13.908
13.1563 13.865
13.1714 13.679
13.1866 13.677
13.2018 13.535
13.2170 13.365
13.2321 13.274
13.2473 13.069
13.2625 13.057
13.2777 13.229
13.2928 13.196
13.3080 13.156
13.3232 13.264
13.3384 13.222
13.3535 12.882
13.3687 12.783
13.3839 12.821
13.3991 13.039
13.4142 13.231
13.4294 13.029
13.4446 12.875
13.4598 12.943
13.4749 12.928
13.4901 12.449
13.5053 12.245
13.5205 12.301
13.5356 12.538
13.5508 12.534
13.5660 12.526
13.5812 12.493
13.5963 12.375
13.6115 12.323
13.6267 12.131
13.6419 12.033
13.6570 12.272
13.6722 12.373
13.6874 12.206
13.7026 12.093
13.7177 12.256
13.7329 12.022
13.7481 11.765
13.7633 12.095
13.7784 12.461
13.7936 12.442
13.8088 12.226
13.8239 12.052
13.8391 12.230
13.8543 12.382
13.8695 12.325
13.8846 12.456
13.8998 12.564
13.9150 12.204
13.9302 12.227
13.9453 12.058
13.9605 12.065
13.9757 12.126
13.9909 11.827
14.0060 11.427
14.0212 11.660
14.0364 11.671
14.0516 11.645
14.0667 11.893
14.0819 11.662
14.0971 11.548
14.1123 11.666
14.1274 11.480
14.1426 11.545
14.1578 11.766
14.1730 11.589
14.1881 11.493
14.2033 11.584
14.2185 11.546
14.2337 11.412
14.2488 11.486
14.2640 11.595
14.2792 11.901
14.2944 11.891
14.3095 12.033
14.3247 12.358
14.3399 12.132
14.3551 12.055
14.3702 12.795
14.3854 12.969
14.4006 12.875
14.4158 12.952
14.4309 12.996
14.4461 12.630
14.4613 12.651
14.4765 12.415
14.4916 12.101
14.5068 11.728
14.5220 11.595
14.5372 11.411
14.5523 11.508
14.5675 11.436
14.5827 11.242
14.5979 10.928
14.6130 10.885
14.6282 10.799
14.6434 11.065
14.6586 11.000
14.6737 11.009
14.6889 10.536
14.7041 10.695
14.7193 10.490
14.7344 10.628
14.7496 10.598
14.7648 10.568
14.7800 10.370
14.7951 10.571
14.8103 10.613
14.8255 10.422
14.8407 10.129
14.8558 10.236
14.8710 10.611
14.8862 10.403
14.9014 10.302
14.9165 10.560
14.9317 10.111
14.9469 10.668
14.9621 10.455
14.9772 9.987
14.9924 10.151
15.0076 10.318
15.0228 10.743
15.0379 10.455
15.0531 10.212
15.0683 9.993
15.0835 10.540
15.0986 10.304
15.1138 10.325
15.1290 9.976
15.1442 9.642
15.1593 10.273
15.1745 10.216
15.1897 10.239
15.2049 9.885
15.2200 10.270
15.2352 10.285
15.2504 9.892
15.2656 9.773
15.2807 10.135
15.2959 10.110
15.3111 10.002
15.3263 10.193
15.3414 9.979
15.3566 9.930
15.3718 10.178
15.3870 9.933
15.4021 10.036
15.4173 10.122
15.4325 10.268
15.4477 9.901
15.4628 10.194
15.4780 10.221
15.4932 10.369
15.5084 10.029
15.5235 10.042
15.5387 10.075
15.5539 9.982
15.5691 9.530
15.5842 9.882
15.5994 9.689
15.6146 9.693
15.6298 9.832
15.6449 9.484
15.6601 9.759
15.6753 9.811
15.6905 9.613
15.7056 9.663
15.7208 9.814
15.7360 9.839
15.7512 9.734
15.7663 9.585
15.7815 9.701
15.7967 9.767
15.8119 9.574
15.8270 9.400
15.8422 9.651
15.8574 9.551
15.8726 9.528
15.8877 9.573
15.9029 9.328
15.9181 9.351
15.9333 9.725
15.9484 9.956
15.9636 9.518
15.9788 9.636
15.9940 9.631
16.0091 9.459
16.0243 9.548
16.0395 9.587
16.0547 9.427
16.0698 9.511
16.0850 9.417
16.1002 9.511
16.1154 9.339
16.1305 9.430
16.1457 9.516
16.1609 9.721
16.1761 9.485
16.1912 9.430
16.2064 9.674
16.2216 9.829
16.2368 9.488
16.2519 9.527
16.2671 9.523
16.2823 9.524
16.2975 9.443
16.3126 9.675
16.3278 9.678
16.3430 9.589
16.3582 9.562
16.3733 9.737
16.3885 9.870
16.4037 9.796
16.4189 9.621
16.4340 9.643
16.4492 9.805
16.4644 9.779
16.4796 9.666
16.4947 9.506
16.5099 9.432
16.5251 9.386
16.5403 9.409
16.5554 9.373
16.5706 9.378
16.5858 9.453
16.6010 9.659
16.6161 9.636
16.6313 9.676
16.6465 9.518
16.6617 9.744
16.6768 9.779
16.6920 9.842
16.7072 9.935
16.7224 10.085
16.7375 9.978
16.7527 9.878
16.7679 9.936
16.7831 9.750
16.7982 9.732
16.8134 9.856
16.8286 9.854
16.8438 9.727
16.8589 9.710
16.8741 9.530
16.8893 9.452
16.9045 9.626
16.9196 9.746
16.9348 9.671
16.9500 9.733
16.9652 9.839
16.9803 9.941
16.9955 9.854
17.0107 9.852
17.0259 9.839
17.0410 9.771
17.0562 9.853
17.0714 9.911
17.0866 10.155
17.1017 10.145
17.1169 10.394
17.1321 10.895
17.1473 11.309
17.1624 11.741
17.1776 12.146
17.1928 13.007
17.2080 13.878
17.2231 14.738
17.2383 15.916
17.2535 17.412
17.2687 18.609
17.2838 18.428
17.2990 17.657
17.3142 16.946
17.3294 16.175
17.3445 15.669
17.3597 15.641
17.3749 15.692
17.3901 15.238
17.4052 14.135
17.4204 13.062
17.4356 12.527
17.4508 12.102
17.4659 11.784
17.4811 11.336
17.4963 11.087
17.5115 11.099
17.5266 11.024
17.5418 10.839
17.5570 10.596
17.5722 10.722
17.5873 10.936
17.6025 11.157
17.6177 11.296
17.6329 11.224
17.6480 11.010
17.6632 11.218
17.6784 11.408
17.6936 11.213
17.7087 11.174
17.7239 11.207
17.7391 11.251
17.7543 11.251
17.7694 11.206
17.7846 11.026
17.7998 10.981
17.8150 10.952
17.8301 10.747
17.8453 10.582
17.8605 10.479
17.8757 10.419
17.8908 10.388
17.9060 10.309
17.9212 10.365
17.9364 10.385
17.9515 10.233
17.9667 10.219
17.9819 10.208
17.9971 10.149
18.0122 10.085
18.0274 9.958
18.0426 10.115
18.0578 10.285
18.0729 10.240
18.0881 10.151
18.1033 10.016
18.1185 9.775
18.1336 9.881
18.1488 10.078
18.1640 9.948
18.1792 10.075
18.1943 10.064
18.2095 9.821
18.2247 9.708
18.2399 9.808
18.2550 10.100
18.2702 10.028
18.2854 9.914
18.3006 9.639
18.3157 9.584
18.3309 9.826
18.3461 9.796
18.3613 9.835
18.3764 9.740
18.3916 9.584
18.4068 9.751
18.4220 9.877
18.4371 9.860
18.4523 9.816
18.4675 9.895
18.4827 9.805
18.4978 9.829
18.5130 9.734
18.5282 9.844
18.5434 9.806
18.5585 9.681
18.5737 9.845
18.5889 9.790
18.6041 9.728
18.6192 9.670
18.6344 9.682
18.6496 9.762
18.6648 9.876
18.6799 9.795
18.6951 9.946
18.7103 9.943
18.7255 9.837
18.7406 9.799
18.7558 9.783
18.7710 9.689
18.7862 9.947
18.8013 9.910
18.8165 9.669
18.8317 9.756
18.8469 9.887
18.8620 9.999
18.8772 10.343
18.8924 10.093
18.9076 9.792
18.9227 9.899
18.9379 9.967
18.9531 10.113
18.9683 10.315
18.9834 10.111
18.9986 9.932
19.0138 9.966
19.0290 10.171
19.0441 10.029
19.0593 10.314
19.0745 10.477
19.0897 10.262
19.1048 10.358
19.1200 10.389
19.1352 10.509
19.1504 10.467
19.1655 10.579
19.1807 10.704
19.1959 10.600
19.2111 10.454
19.2262 10.580
19.2414 10.717
19.2566 10.610
19.2718 10.827
19.2869 10.853
19.3021 10.698
19.3173 10.839
19.3325 11.084
19.3476 11.196
19.3628 11.213
19.3780 11.056
19.3932 11.098
19.4083 11.294
19.4235 11.181
19.4387 11.170
19.4539 11.155
19.4690 11.209
19.4842 11.307
19.4994 11.452
19.5146 11.549
19.5297 11.510
19.5449 11.517
19.5601 11.708
19.5753 11.686
19.5904 11.643
19.6056 11.791
19.6208 11.894
19.6360 11.932
19.6511 12.022
19.6663 11.893
19.6815 11.601
19.6967 11.702
19.7118 11.669
19.7270 11.829
19.7422 12.146
19.7574 12.103
19.7725 11.922
19.7877 11.831
19.8029 11.910
19.8180 11.892
19.8332 12.021
19.8484 12.335
19.8636 12.563
19.8787 12.665
19.8939 12.984
19.9091 13.443
19.9243 13.582
19.9394 13.803
19.9546 14.180
19.9698 14.531
19.9850 14.669
20.0001 14.670
20.0153 14.483
20.0305 13.935
20.0457 13.823
20.0608 13.725
20.0760 13.633
20.0912 13.680
20.1064 13.627
20.1215 13.681
20.1367 13.453
20.1519 13.125
20.1671 13.036
20.1822 12.978
20.1974 13.097
20.2126 12.897
20.2278 12.799
20.2429 12.944
20.2581 12.594
20.2733 12.322
20.2885 12.360
20.3036 12.097
20.3188 12.020
20.3340 11.937
20.3492 11.991
20.3643 11.967
20.3795 11.866
20.3947 11.944
20.4099 11.965
20.4250 12.025
20.4402 11.906
20.4554 11.834
20.4706 11.963
20.4857 11.863
20.5009 11.776
20.5161 11.504
20.5313 11.466
20.5464 11.587
20.5616 11.498
20.5768 11.135
20.5920 10.880
20.6071 11.156
20.6223 11.121
20.6375 10.895
20.6527 10.635
20.6678 10.965
20.6830 11.013
20.6982 10.735
20.7134 10.575
20.7285 10.702
20.7437 10.673
20.7589 10.683
20.7741 10.225
20.7892 10.526
20.8044 10.450
20.8196 10.548
20.8348 10.589
20.8499 10.682
20.8651 10.498
20.8803 10.413
20.8955 9.981
20.9106 10.103
20.9258 10.297
20.9410 10.471
20.9562 10.564
20.9713 9.955
20.9865 10.289
21.0017 10.446
21.0169 9.960
21.0320 10.188
21.0472 9.985
21.0624 10.141
21.0776 10.365
21.0927 10.249
21.1079 9.942
21.1231 9.774
21.1383 9.788
21.1534 9.954
21.1686 9.972
21.1838 10.175
21.1990 9.861
21.2141 9.857
21.2293 9.743
21.2445 9.500
21.2597 9.599
21.2748 9.501
21.2900 9.528
21.3052 9.529
21.3204 9.610
21.3355 9.636
21.3507 9.509
21.3659 9.582
21.3811 9.681
21.3962 9.553
21.4114 9.439
21.4266 9.342
21.4418 9.405
21.4569 9.121
21.4721 9.328
21.4873 9.366
21.5025 9.414
21.5176 9.296
21.5328 9.501
21.5480 9.265
21.5632 9.183
21.5783 9.254
21.5935 9.033
21.6087 9.111
21.6239 9.258
21.6390 8.853
21.6542 8.940
21.6694 9.224
21.6846 9.064
21.6997 9.078
21.7149 9.075
21.7301 9.206
21.7453 9.076
21.7604 9.276
21.7756 9.344
21.7908 9.107
21.8060 9.048
21.8211 9.136
21.8363 9.254
21.8515 9.076
21.8667 9.128
21.8818 9.148
21.8970 9.002
21.9122 9.051
21.9274 9.059
21.9425 8.835
21.9577 8.905
21.9729 9.061
21.9881 8.981
22.0032 8.857
22.0184 8.762
22.0336 8.843
22.0488 8.791
22.0639 8.713
22.0791 8.788
22.0943 8.828
22.1095 8.744
22.1246 8.630
22.1398 8.556
22.1550 8.712
22.1702 8.635
22.1853 8.518
22.2005 8.625
22.2157 8.653
22.2309 8.632
22.2460 8.595
22.2612 8.518
22.2764 8.408
22.2916 8.689
22.3067 8.443
22.3219 8.673
22.3371 8.591
22.3523 8.641
22.3674 8.518
22.3826 8.257
22.3978 8.659
22.4130 8.481
22.4281 8.593
22.4433 8.582
22.4585 8.373
22.4737 8.643
22.4888 8.635
22.5040 8.745
22.5192 8.364
22.5344 8.356
22.5495 8.210
22.5647 8.441
22.5799 8.298
22.5951 8.359
22.6102 8.418
22.6254 8.347
22.6406 8.339
22.6558 8.537
22.6709 8.467
22.6861 8.470
22.7013 8.122
22.7165 7.923
22.7316 6.172
