'Id: "" Comment: "" Operator: "Lab Manager" Anode: "Mo" Scantype: "Still (Eiger2R_500K (1D mode))" TimePerStep: "300" X: "11.8" Y: "9.4" Z: "11.284" 
7.2532 18.591
7.2684 18.841
7.2836 18.415
7.2987 19.087
7.3139 18.915
7.3291 18.849
7.3443 19.202
7.3594 19.015
7.3746 19.333
7.3898 19.032
7.4050 19.555
7.4201 19.494
7.4353 19.120
7.4505 19.319
7.4657 19.689
7.4808 19.475
7.4960 19.224
7.5112 19.735
7.5264 19.910
7.5415 19.826
7.5567 19.386
7.5719 19.519
7.5871 19.800
7.6022 20.019
7.6174 19.927
7.6326 19.776
7.6478 19.590
7.6629 20.042
7.6781 20.193
7.6933 20.103
7.7085 20.298
7.7236 20.195
7.7388 20.215
7.7540 20.475
7.7692 20.440
7.7843 20.165
7.7995 20.171
7.8147 20.314
7.8299 20.370
7.8450 20.312
7.8602 20.343
7.8754 20.496
7.8905 20.703
7.9057 20.723
7.9209 20.424
7.9361 20.489
7.9512 20.736
7.9664 20.940
7.9816 20.920
7.9968 21.206
8.0119 20.972
8.0271 20.933
8.0423 20.862
8.0575 20.932
8.0726 21.126
8.0878 20.981
8.1030 21.241
8.1182 21.273
8.1333 21.229
8.1485 21.238
8.1637 21.335
8.1789 20.936
8.1940 21.035
8.2092 21.602
8.2244 21.292
8.2396 21.429
8.2547 21.692
8.2699 21.749
8.2851 21.769
8.3003 21.133
8.3154 21.255
8.3306 21.341
8.3458 21.755
8.3610 21.920
8.3761 21.882
8.3913 21.509
8.4065 21.558
8.4217 22.199
8.4368 21.794
8.4520 21.481
8.4672 22.130
8.4824 21.961
8.4975 22.054
8.5127 21.603
8.5279 22.254
8.5431 21.958
8.5582 21.460
8.5734 22.082
8.5886 21.938
8.6038 22.030
8.6189 22.097
8.6341 21.576
8.6493 21.808
8.6645 22.185
8.6796 21.880
8.6948 22.413
8.7100 22.289
8.7252 22.073
8.7403 22.139
8.7555 22.005
8.7707 22.488
8.7859 22.566
8.8010 22.441
8.8162 22.187
8.8314 22.467
8.8466 21.911
8.8617 22.187
8.8769 22.540
8.8921 22.365
8.9073 22.449
8.9224 22.211
8.9376 21.977
8.9528 22.327
8.9680 22.557
8.9831 22.447
8.9983 22.095
9.0135 22.152
9.0287 22.486
9.0438 22.175
9.0590 22.308
9.0742 22.732
9.0894 22.571
9.1045 22.771
9.1197 22.974
9.1349 22.625
9.1501 22.910
9.1652 22.659
9.1804 22.331
9.1956 22.733
9.2108 22.898
9.2259 22.881
9.2411 22.884
9.2563 22.410
9.2715 22.821
9.2866 22.970
9.3018 22.806
9.3170 22.684
9.3322 22.723
9.3473 22.845
9.3625 22.772
9.3777 22.839
9.3929 22.878
9.4080 22.851
9.4232 22.702
9.4384 22.312
9.4536 22.629
9.4687 22.738
9.4839 23.252
9.4991 23.234
9.5143 23.238
9.5294 23.296
9.5446 23.242
9.5598 23.377
9.5750 23.108
9.5901 23.037
9.6053 23.112
9.6205 22.964
9.6357 23.027
9.6508 23.198
9.6660 23.619
9.6812 23.718
9.6964 23.730
9.7115 23.695
9.7267 23.443
9.7419 23.657
9.7571 23.701
9.7722 23.496
9.7874 23.456
9.8026 23.710
9.8178 23.684
9.8329 23.297
9.8481 23.266
9.8633 23.223
9.8785 23.473
9.8936 23.548
9.9088 23.460
9.9240 23.244
9.9392 23.087
9.9543 23.072
9.9695 23.266
9.9847 23.440
9.9999 23.270
10.0150 23.341
10.0302 23.182
10.0454 23.164
10.0606 23.113
10.0757 23.151
10.0909 22.970
10.1061 23.230
10.1213 23.486
10.1364 23.146
10.1516 23.195
10.1668 23.149
10.1820 23.168
10.1971 23.039
10.2123 23.068
10.2275 23.081
10.2427 23.031
10.2578 23.287
10.2730 23.095
10.2882 23.056
10.3034 22.769
10.3185 22.574
10.3337 22.530
10.3489 22.556
10.3641 22.748
10.3792 22.823
10.3944 22.844
10.4096 22.821
10.4248 22.607
10.4399 22.388
10.4551 22.598
10.4703 22.705
10.4855 22.567
10.5006 22.217
10.5158 22.359
10.5310 22.399
10.5462 22.155
10.5613 22.605
10.5765 22.458
10.5917 22.708
10.6069 22.621
10.6220 22.314
10.6372 22.644
10.6524 22.814
10.6676 22.523
10.6827 22.749
10.6979 22.632
10.7131 22.493
10.7283 22.190
10.7434 22.383
10.7586 22.394
10.7738 22.283
10.7890 22.152
10.8041 22.103
10.8193 21.818
10.8345 21.616
10.8497 21.937
10.8648 22.303
10.8800 22.554
10.8952 22.268
10.9104 21.869
10.9255 22.195
10.9407 22.103
10.9559 21.779
10.9711 21.866
10.9862 21.988
11.0014 22.088
11.0166 21.951
11.0318 22.368
11.0469 21.935
11.0621 21.540
11.0773 21.728
11.0925 21.478
11.1076 21.378
11.1228 21.672
11.1380 21.771
11.1532 21.388
11.1683 21.029
11.1835 21.523
11.1987 21.714
11.2139 21.233
11.2290 21.158
11.2442 21.303
11.2594 21.142
11.2746 21.004
11.2897 20.864
11.3049 21.157
11.3201 21.221
11.3353 21.703
11.3504 21.383
11.3656 21.191
11.3808 21.179
11.3960 21.167
11.4111 21.262
11.4263 21.369
11.4415 20.745
11.4567 21.091
11.4718 20.970
11.4870 20.758
11.5022 20.777
11.5174 20.866
11.5325 20.680
11.5477 20.997
11.5629 21.212
11.5781 20.891
11.5932 20.530
11.6084 20.638
11.6236 20.428
11.6388 20.345
11.6539 20.581
11.6691 20.647
11.6843 20.504
11.6995 20.385
11.7146 20.174
11.7298 20.398
11.7450 20.587
11.7602 20.092
11.7753 19.810
11.7905 19.813
11.8057 20.118
11.8209 19.976
11.8360 20.157
11.8512 19.861
11.8664 19.604
11.8816 19.515
11.8967 19.579
11.9119 19.899
11.9271 19.532
11.9423 19.583
11.9574 19.850
11.9726 19.139
11.9878 18.978
12.0030 19.219
12.0181 19.296
12.0333 19.205
12.0485 19.251
12.0637 19.057
12.0788 18.649
12.0940 18.948
12.1092 18.654
12.1244 18.640
12.1395 18.463
12.1547 18.273
12.1699 17.971
12.1851 18.039
12.2002 18.227
12.2154 18.231
12.2306 18.156
12.2458 18.240
12.2609 17.982
12.2761 17.773
12.2913 17.723
12.3065 17.485
12.3216 17.490
12.3368 17.632
12.3520 17.393
12.3672 17.115
12.3823 17.250
12.3975 17.069
12.4127 16.991
12.4279 17.018
12.4430 16.914
12.4582 16.690
12.4734 16.905
12.4886 16.630
12.5037 16.680
12.5189 16.545
12.5341 16.674
12.5493 16.463
12.5644 16.199
12.5796 16.206
12.5948 16.420
12.6100 16.323
12.6251 15.991
12.6403 15.906
12.6555 15.661
12.6707 15.629
12.6858 15.809
12.7010 15.487
12.7162 15.388
12.7314 15.157
12.7465 15.027
12.7617 15.018
12.7769 15.095
12.7921 15.196
12.8072 15.144
12.8224 14.960
12.8376 14.935
12.8528 14.999
12.8679 14.780
12.8831 14.756
12.8983 14.720
12.9135 14.485
12.9286 14.446
12.9438 14.338
12.9590 14.363
12.9742 14.402
12.9893 14.184
13.0045 14.309
13.0197 14.389
13.0349 14.127
13.0500 13.983
13.0652 14.229
13.0804 13.989
13.0956 13.705
13.1107 14.030
13.1259 13.954
13.1411 13.678
13.1563 13.748
13.1714 13.717
13.1866 13.616
13.2018 13.657
13.2170 13.611
13.2321 13.543
13.2473 13.417
13.2625 13.349
13.2777 13.273
13.2928 13.290
13.3080 13.191
13.3232 13.187
13.3384 13.444
13.3535 13.201
13.3687 13.102
13.3839 13.234
13.3991 13.128
13.4142 12.801
13.4294 12.673
13.4446 12.854
13.4598 12.741
13.4749 12.643
13.4901 12.734
13.5053 12.561
13.5205 12.461
13.5356 12.467
13.5508 12.415
13.5660 12.329
13.5812 12.228
13.5963 12.251
13.6115 12.200
13.6267 12.029
13.6419 11.940
13.6570 12.128
13.6722 12.033
13.6874 12.005
13.7026 12.040
13.7177 12.274
13.7329 12.283
13.7481 12.356
13.7633 12.347
13.7784 12.263
13.7936 12.265
13.8088 12.217
13.8239 12.331
13.8391 12.557
13.8543 12.581
13.8695 12.366
13.8846 12.282
13.8998 12.451
13.9150 12.352
13.9302 12.022
13.9453 11.972
13.9605 11.871
13.9757 12.002
13.9909 11.808
14.0060 11.803
14.0212 11.872
14.0364 11.686
14.0516 11.485
14.0667 11.546
14.0819 11.566
14.0971 11.591
14.1123 12.045
14.1274 11.822
14.1426 11.777
14.1578 11.702
14.1730 11.902
14.1881 11.873
14.2033 11.560
14.2185 12.011
14.2337 12.045
14.2488 11.776
14.2640 11.710
14.2792 11.989
14.2944 11.974
14.3095 12.115
14.3247 12.013
14.3399 12.473
14.3551 12.635
14.3702 12.827
14.3854 12.946
14.4006 12.856
14.4158 13.040
14.4309 13.002
14.4461 12.701
14.4613 12.357
14.4765 12.294
14.4916 12.055
14.5068 11.992
14.5220 11.857
14.5372 11.254
14.5523 11.232
14.5675 10.849
14.5827 11.169
14.5979 10.977
14.6130 10.948
14.6282 10.500
14.6434 10.774
14.6586 10.794
14.6737 10.795
14.6889 10.484
14.7041 10.556
14.7193 10.903
14.7344 10.645
14.7496 10.413
14.7648 10.548
14.7800 10.368
14.7951 10.670
14.8103 10.636
14.8255 10.236
14.8407 10.550
14.8558 10.394
14.8710 9.960
14.8862 10.260
14.9014 10.298
14.9165 10.959
14.9317 10.574
14.9469 10.403
14.9621 10.114
14.9772 10.178
14.9924 10.322
15.0076 10.238
15.0228 10.714
15.0379 10.504
15.0531 10.278
15.0683 10.222
15.0835 9.975
15.0986 10.270
15.1138 10.180
15.1290 10.775
15.1442 10.066
15.1593 10.085
15.1745 10.226
15.1897 9.930
15.2049 10.235
15.2200 10.187
15.2352 10.260
15.2504 10.051
15.2656 9.988
15.2807 10.195
15.2959 10.023
15.3111 10.072
15.3263 10.102
15.3414 10.154
15.3566 9.951
15.3718 10.070
15.3870 10.121
15.4021 10.063
15.4173 9.973
15.4325 10.289
15.4477 9.931
15.4628 9.923
15.4780 10.175
15.4932 10.017
15.5084 10.015
15.5235 9.838
15.5387 9.859
15.5539 10.215
15.5691 9.938
15.5842 9.902
15.5994 9.677
15.6146 9.868
15.6298 9.817
15.6449 9.848
15.6601 9.822
15.6753 9.905
15.6905 9.926
15.7056 9.882
15.7208 10.205
15.7360 9.839
15.7512 9.683
15.7663 9.889
15.7815 10.031
15.7967 10.262
15.8119 9.954
15.8270 9.673
15.8422 9.692
15.8574 9.748
15.8726 9.599
15.8877 9.426
15.9029 9.370
15.9181 9.620
15.9333 9.726
15.9484 9.714
15.9636 9.545
15.9788 9.537
15.9940 9.533
16.0091 9.687
16.0243 9.841
16.0395 9.576
16.0547 9.459
16.0698 9.768
16.0850 9.448
16.1002 9.573
16.1154 9.385
16.1305 9.544
16.1457 9.447
16.1609 9.678
16.1761 9.699
16.1912 9.657
16.2064 9.685
16.2216 9.763
16.2368 9.883
16.2519 9.859
16.2671 9.923
16.2823 9.802
16.2975 9.750
16.3126 9.640
16.3278 9.720
16.3430 9.818
16.3582 9.821
16.3733 10.095
16.3885 10.000
16.4037 9.936
16.4189 9.768
16.4340 9.722
16.4492 9.583
16.4644 9.626
16.4796 9.654
16.4947 9.575
16.5099 9.671
16.5251 9.735
16.5403 9.523
16.5554 9.464
16.5706 9.489
16.5858 9.549
16.6010 9.637
16.6161 9.443
16.6313 9.343
16.6465 9.458
16.6617 9.290
16.6768 9.769
16.6920 9.878
16.7072 9.843
16.7224 10.043
16.7375 9.980
16.7527 10.125
16.7679 9.905
16.7831 9.604
16.7982 9.742
16.8134 10.012
16.8286 9.795
16.8438 9.758
16.8589 9.753
16.8741 9.684
16.8893 9.664
16.9045 9.564
16.9196 9.666
16.9348 9.861
16.9500 10.015
16.9652 9.892
16.9803 9.762
16.9955 9.941
17.0107 9.855
17.0259 9.857
17.0410 9.922
17.0562 10.000
17.0714 10.158
17.0866 10.265
17.1017 10.659
17.1169 10.699
17.1321 10.668
17.1473 11.192
17.1624 11.662
17.1776 12.277
17.1928 13.104
17.2080 13.786
17.2231 14.770
17.2383 15.957
17.2535 17.070
17.2687 18.289
17.2838 18.780
17.2990 17.924
17.3142 16.768
17.3294 16.304
17.3445 16.279
17.3597 16.030
17.3749 15.801
17.3901 15.376
17.4052 14.281
17.4204 13.195
17.4356 12.471
17.4508 12.101
17.4659 11.860
17.4811 11.591
17.4963 11.501
17.5115 11.186
17.5266 11.002
17.5418 11.072
17.5570 11.162
17.5722 11.339
17.5873 11.141
17.6025 10.973
17.6177 11.032
17.6329 11.155
17.6480 11.405
17.6632 11.309
17.6784 11.201
17.6936 11.466
17.7087 11.297
17.7239 11.217
17.7391 11.263
17.7543 11.197
17.7694 10.877
17.7846 10.732
17.7998 10.820
17.8150 10.748
17.8301 10.651
17.8453 10.468
17.8605 10.359
17.8757 10.373
17.8908 10.310
17.9060 10.449
17.9212 10.328
17.9364 10.109
17.9515 10.173
17.9667 10.051
17.9819 10.062
17.9971 10.200
18.0122 10.084
18.0274 10.068
18.0426 10.221
18.0578 10.019
18.0729 9.729
18.0881 9.774
18.1033 9.869
18.1185 9.848
18.1336 10.013
18.1488 10.133
18.1640 9.916
18.1792 9.921
18.1943 9.881
18.2095 9.773
18.2247 9.803
18.2399 9.761
18.2550 9.861
18.2702 9.956
18.2854 9.841
18.3006 9.719
18.3157 9.724
18.3309 9.720
18.3461 9.726
18.3613 10.025
18.3764 9.779
18.3916 9.878
18.4068 9.831
18.4220 9.790
18.4371 9.909
18.4523 9.700
18.4675 9.697
18.4827 10.048
18.4978 9.991
18.5130 9.507
18.5282 9.553
18.5434 9.853
18.5585 9.631
18.5737 9.489
18.5889 9.703
18.6041 9.720
18.6192 9.808
18.6344 9.672
18.6496 9.783
18.6648 9.761
18.6799 9.849
18.6951 9.826
18.7103 9.920
18.7255 9.878
18.7406 9.641
18.7558 9.511
18.7710 9.767
18.7862 9.951
18.8013 9.675
18.8165 9.478
18.8317 9.801
18.8469 9.882
18.8620 9.819
18.8772 9.761
18.8924 9.741
18.9076 9.862
18.9227 10.094
18.9379 9.883
18.9531 9.972
18.9683 10.036
18.9834 10.099
18.9986 10.107
19.0138 10.002
19.0290 10.201
19.0441 10.109
19.0593 9.911
19.0745 10.156
19.0897 10.268
19.1048 10.383
19.1200 10.400
19.1352 10.481
19.1504 10.644
19.1655 10.550
19.1807 10.287
19.1959 10.449
19.2111 10.682
19.2262 10.836
19.2414 10.824
19.2566 10.857
19.2718 10.907
19.2869 10.807
19.3021 10.779
19.3173 10.887
19.3325 11.196
19.3476 11.230
19.3628 11.129
19.3780 11.483
19.3932 11.386
19.4083 11.186
19.4235 11.225
19.4387 11.135
19.4539 11.217
19.4690 11.277
19.4842 11.227
19.4994 11.348
19.5146 11.491
19.5297 11.666
19.5449 11.540
19.5601 11.526
19.5753 11.672
19.5904 11.651
19.6056 11.597
19.6208 11.755
19.6360 11.785
19.6511 11.993
19.6663 11.980
19.6815 11.761
19.6967 11.805
19.7118 11.819
19.7270 11.729
19.7422 11.676
19.7574 12.065
19.7725 11.908
19.7877 11.890
19.8029 12.053
19.8180 11.807
19.8332 11.970
19.8484 12.314
19.8636 12.512
19.8787 12.757
19.8939 12.742
19.9091 12.815
19.9243 13.409
19.9394 13.952
19.9546 14.332
19.9698 14.626
19.9850 14.754
20.0001 14.361
20.0153 13.926
20.0305 13.891
20.0457 13.836
20.0608 13.775
20.0760 13.900
20.0912 13.892
20.1064 13.699
20.1215 13.691
20.1367 13.528
20.1519 13.209
20.1671 13.097
20.1822 13.075
20.1974 12.996
20.2126 13.113
20.2278 13.095
20.2429 12.765
20.2581 12.360
20.2733 12.363
20.2885 12.320
20.3036 12.172
20.3188 12.018
20.3340 12.164
20.3492 11.959
20.3643 11.732
20.3795 11.963
20.3947 11.873
20.4099 11.680
20.4250 11.545
20.4402 11.628
20.4554 11.636
20.4706 11.918
20.4857 11.822
20.5009 11.640
20.5161 11.812
20.5313 11.707
20.5464 11.398
20.5616 11.288
20.5768 11.436
20.5920 11.298
20.6071 11.217
20.6223 11.142
20.6375 10.747
20.6527 10.864
20.6678 10.538
20.6830 10.918
20.6982 10.705
20.7134 10.796
20.7285 10.623
20.7437 10.547
20.7589 10.488
20.7741 10.274
20.7892 10.271
20.8044 10.439
20.8196 10.675
20.8348 10.255
20.8499 10.374
20.8651 10.174
20.8803 10.368
20.8955 10.115
20.9106 10.257
20.9258 10.316
20.9410 10.352
20.9562 10.150
20.9713 10.114
20.9865 10.059
21.0017 9.987
21.0169 10.006
21.0320 10.029
21.0472 9.631
21.0624 10.004
21.0776 9.618
21.0927 9.969
21.1079 9.787
21.1231 9.826
21.1383 9.878
21.1534 9.897
21.1686 9.923
21.1838 9.849
21.1990 9.619
21.2141 9.417
21.2293 9.929
21.2445 9.772
21.2597 9.565
21.2748 9.927
21.2900 9.683
21.3052 9.696
21.3204 9.534
21.3355 9.762
21.3507 9.765
21.3659 9.244
21.3811 9.345
21.3962 9.313
21.4114 9.536
21.4266 9.535
21.4418 9.590
21.4569 9.356
21.4721 9.417
21.4873 9.172
21.5025 9.415
21.5176 9.412
21.5328 9.328
21.5480 9.070
21.5632 9.549
21.5783 9.376
21.5935 9.114
21.6087 9.089
21.6239 9.085
21.6390 8.962
21.6542 9.097
21.6694 9.089
21.6846 9.043
21.6997 9.060
21.7149 9.240
21.7301 9.072
21.7453 9.084
21.7604 8.940
21.7756 9.259
21.7908 9.254
21.8060 9.051
21.8211 9.118
21.8363 8.999
21.8515 9.158
21.8667 9.170
21.8818 9.021
21.8970 8.931
21.9122 8.751
21.9274 8.823
21.9425 8.914
21.9577 9.082
21.9729 8.996
21.9881 8.831
22.0032 8.886
22.0184 8.881
22.0336 8.729
22.0488 8.686
22.0639 8.739
22.0791 8.859
22.0943 8.924
22.1095 8.655
22.1246 8.442
22.1398 8.389
22.1550 8.287
22.1702 8.349
22.1853 8.427
22.2005 8.505
22.2157 8.720
22.2309 8.653
22.2460 8.752
22.2612 8.364
22.2764 8.377
22.2916 8.481
22.3067 8.528
22.3219 8.558
22.3371 8.609
22.3523 8.519
22.3674 8.372
22.3826 8.465
22.3978 8.588
22.4130 8.558
22.4281 8.233
22.4433 8.482
22.4585 8.442
22.4737 8.580
22.4888 8.573
22.5040 8.251
22.5192 8.065
22.5344 8.413
22.5495 8.389
22.5647 8.320
22.5799 8.327
22.5951 8.217
22.6102 8.200
22.6254 8.381
22.6406 8.600
22.6558 8.248
22.6709 8.365
22.6861 8.299
22.7013 7.850
22.7165 7.901
22.7316 6.552
