'Id: "" Comment: "" Operator: "Lab Manager" Anode: "Mo" Scantype: "Still (Eiger2R_500K (1D mode))" TimePerStep: "300" X: "11.8" Y: "9.4" Z: "11.284" 
7.2532 18.706
7.2684 18.432
7.2836 19.069
7.2987 18.702
7.3139 18.934
7.3291 19.139
7.3443 19.229
7.3594 18.857
7.3746 18.588
7.3898 19.551
7.4050 19.430
7.4201 19.244
7.4353 19.117
7.4505 19.504
7.4657 19.365
7.4808 19.218
7.4960 19.296
7.5112 19.778
7.5264 19.902
7.5415 19.890
7.5567 20.055
7.5719 19.894
7.5871 19.660
7.6022 19.654
7.6174 19.987
7.6326 19.830
7.6478 19.896
7.6629 19.968
7.6781 19.980
7.6933 20.167
7.7085 20.215
7.7236 20.227
7.7388 20.421
7.7540 20.311
7.7692 20.200
7.7843 20.098
7.7995 20.158
7.8147 20.314
7.8299 20.373
7.8450 20.149
7.8602 20.399
7.8754 20.635
7.8905 20.430
7.9057 20.741
7.9209 21.378
7.9361 21.084
7.9512 20.757
7.9664 20.901
7.9816 20.843
7.9968 20.891
8.0119 20.791
8.0271 20.497
8.0423 20.792
8.0575 20.840
8.0726 20.784
8.0878 21.192
8.1030 21.495
8.1182 21.228
8.1333 21.332
8.1485 21.243
8.1637 21.276
8.1789 20.825
8.1940 20.795
8.2092 21.214
8.2244 21.735
8.2396 21.669
8.2547 21.565
8.2699 21.460
8.2851 21.719
8.3003 21.371
8.3154 21.370
8.3306 21.799
8.3458 21.586
8.3610 21.479
8.3761 21.867
8.3913 21.784
8.4065 22.052
8.4217 22.185
8.4368 21.581
8.4520 21.693
8.4672 21.833
8.4824 21.991
8.4975 21.692
8.5127 21.930
8.5279 21.829
8.5431 21.440
8.5582 21.739
8.5734 21.706
8.5886 21.672
8.6038 22.067
8.6189 21.868
8.6341 21.817
8.6493 22.050
8.6645 21.900
8.6796 21.877
8.6948 21.955
8.7100 22.265
8.7252 22.076
8.7403 22.480
8.7555 22.362
8.7707 22.180
8.7859 22.377
8.8010 22.048
8.8162 22.478
8.8314 22.257
8.8466 22.383
8.8617 22.221
8.8769 22.177
8.8921 22.196
8.9073 21.813
8.9224 22.066
8.9376 22.075
8.9528 22.378
8.9680 22.412
8.9831 22.537
8.9983 23.020
9.0135 22.594
9.0287 22.532
9.0438 22.646
9.0590 22.184
9.0742 22.284
9.0894 22.459
9.1045 22.817
9.1197 22.448
9.1349 22.426
9.1501 22.777
9.1652 22.853
9.1804 22.660
9.1956 22.634
9.2108 22.515
9.2259 22.492
9.2411 22.438
9.2563 22.575
9.2715 22.844
9.2866 22.998
9.3018 22.876
9.3170 22.682
9.3322 22.734
9.3473 22.757
9.3625 22.651
9.3777 22.452
9.3929 22.523
9.4080 22.684
9.4232 22.645
9.4384 22.907
9.4536 23.128
9.4687 23.104
9.4839 22.924
9.4991 22.819
9.5143 22.916
9.5294 22.917
9.5446 22.891
9.5598 22.978
9.5750 22.938
9.5901 22.868
9.6053 22.899
9.6205 22.977
9.6357 23.235
9.6508 23.132
9.6660 22.991
9.6812 23.278
9.6964 23.587
9.7115 23.731
9.7267 24.021
9.7419 24.058
9.7571 23.773
9.7722 23.655
9.7874 23.617
9.8026 23.662
9.8178 23.487
9.8329 23.193
9.8481 23.164
9.8633 23.457
9.8785 23.546
9.8936 23.346
9.9088 23.298
9.9240 22.881
9.9392 22.872
9.9543 23.063
9.9695 23.120
9.9847 23.100
9.9999 23.108
10.0150 23.040
10.0302 22.819
10.0454 23.116
10.0606 23.332
10.0757 23.272
10.0909 23.107
10.1061 23.363
10.1213 23.434
10.1364 23.497
10.1516 23.194
10.1668 23.146
10.1820 23.094
10.1971 22.955
10.2123 23.037
10.2275 23.249
10.2427 22.876
10.2578 22.689
10.2730 22.871
10.2882 22.588
10.3034 22.472
10.3185 22.907
10.3337 22.894
10.3489 22.584
10.3641 22.562
10.3792 22.629
10.3944 22.642
10.4096 22.235
10.4248 22.562
10.4399 22.715
10.4551 22.471
10.4703 22.651
10.4855 22.326
10.5006 22.111
10.5158 22.161
10.5310 22.159
10.5462 22.513
10.5613 22.480
10.5765 22.403
10.5917 22.301
10.6069 22.201
10.6220 22.340
10.6372 22.435
10.6524 22.406
10.6676 22.292
10.6827 22.217
10.6979 22.227
10.7131 22.278
10.7283 22.280
10.7434 22.298
10.7586 21.836
10.7738 21.905
10.7890 21.927
10.8041 21.876
10.8193 22.285
10.8345 22.291
10.8497 22.212
10.8648 22.242
10.8800 22.270
10.8952 22.264
10.9104 22.027
10.9255 21.647
10.9407 21.922
10.9559 21.866
10.9711 21.734
10.9862 22.104
11.0014 21.988
11.0166 22.127
11.0318 22.394
11.0469 22.127
11.0621 21.830
11.0773 21.925
11.0925 21.947
11.1076 21.458
11.1228 21.277
11.1380 21.390
11.1532 21.403
11.1683 21.602
11.1835 21.405
11.1987 21.307
11.2139 21.375
11.2290 21.176
11.2442 21.648
11.2594 21.358
11.2746 21.164
11.2897 21.308
11.3049 21.577
11.3201 21.268
11.3353 21.345
11.3504 21.567
11.3656 20.932
11.3808 21.233
11.3960 21.088
11.4111 21.022
11.4263 20.810
11.4415 21.119
11.4567 21.194
11.4718 20.919
11.4870 21.181
11.5022 21.147
11.5174 21.026
11.5325 20.833
11.5477 20.704
11.5629 20.837
11.5781 20.927
11.5932 20.548
11.6084 20.318
11.6236 20.441
11.6388 20.671
11.6539 20.789
11.6691 20.374
11.6843 20.295
11.6995 20.431
11.7146 20.298
11.7298 20.148
11.7450 20.338
11.7602 20.116
11.7753 20.046
11.7905 19.924
11.8057 19.841
11.8209 19.721
11.8360 19.715
11.8512 19.546
11.8664 19.361
11.8816 19.509
11.8967 19.546
11.9119 19.548
11.9271 19.495
11.9423 19.538
11.9574 19.546
11.9726 19.359
11.9878 19.557
12.0030 19.601
12.0181 19.111
12.0333 18.867
12.0485 18.685
12.0637 18.650
12.0788 18.804
12.0940 18.740
12.1092 18.656
12.1244 18.829
12.1395 18.628
12.1547 18.679
12.1699 18.472
12.1851 18.297
12.2002 18.065
12.2154 17.870
12.2306 18.031
12.2458 17.956
12.2609 17.840
12.2761 17.785
12.2913 17.802
12.3065 17.773
12.3216 17.639
12.3368 17.452
12.3520 17.497
12.3672 17.159
12.3823 17.105
12.3975 17.122
12.4127 17.180
12.4279 17.205
12.4430 16.774
12.4582 16.738
12.4734 16.722
12.4886 16.585
12.5037 16.455
12.5189 16.330
12.5341 16.185
12.5493 16.043
12.5644 16.184
12.5796 16.622
12.5948 16.265
12.6100 16.240
12.6251 15.953
12.6403 15.491
12.6555 15.500
12.6707 15.414
12.6858 15.371
12.7010 15.519
12.7162 15.592
12.7314 15.449
12.7465 15.385
12.7617 15.425
12.7769 15.554
12.7921 15.370
12.8072 14.964
12.8224 14.946
12.8376 14.771
12.8528 14.606
12.8679 14.509
12.8831 14.461
12.8983 14.604
12.9135 14.474
12.9286 14.343
12.9438 14.313
12.9590 14.275
12.9742 14.445
12.9893 14.419
13.0045 14.111
13.0197 14.008
13.0349 14.027
13.0500 14.067
13.0652 13.914
13.0804 13.758
13.0956 13.811
13.1107 13.597
13.1259 13.499
13.1411 13.653
13.1563 13.531
13.1714 13.555
13.1866 13.569
13.2018 13.121
13.2170 12.971
13.2321 13.259
13.2473 13.398
13.2625 13.446
13.2777 13.416
13.2928 13.283
13.3080 13.129
13.3232 12.929
13.3384 12.928
13.3535 12.888
13.3687 12.910
13.3839 12.971
13.3991 13.049
13.4142 13.283
13.4294 12.854
13.4446 12.612
13.4598 12.764
13.4749 12.670
13.4901 12.780
13.5053 12.790
13.5205 12.723
13.5356 12.492
13.5508 12.406
13.5660 12.393
13.5812 12.391
13.5963 12.113
13.6115 12.050
13.6267 12.298
13.6419 12.256
13.6570 11.978
13.6722 11.998
13.6874 12.349
13.7026 12.126
13.7177 12.104
13.7329 12.252
13.7481 12.244
13.7633 12.109
13.7784 11.914
13.7936 11.872
13.8088 11.970
13.8239 12.197
13.8391 12.216
13.8543 12.020
13.8695 11.956
13.8846 11.948
13.8998 12.131
13.9150 11.807
13.9302 11.785
13.9453 12.019
13.9605 11.939
13.9757 11.806
13.9909 11.839
14.0060 11.682
14.0212 11.593
14.0364 11.577
14.0516 11.687
14.0667 11.512
14.0819 11.325
14.0971 11.483
14.1123 11.636
14.1274 11.501
14.1426 11.688
14.1578 11.774
14.1730 11.590
14.1881 12.028
14.2033 11.747
14.2185 11.843
14.2337 11.462
14.2488 11.702
14.2640 11.972
14.2792 11.732
14.2944 11.777
14.3095 12.044
14.3247 12.128
14.3399 12.270
14.3551 12.730
14.3702 13.013
14.3854 13.029
14.4006 13.433
14.4158 13.264
14.4309 13.138
14.4461 12.669
14.4613 11.994
14.4765 12.171
14.4916 12.279
14.5068 11.886
14.5220 11.558
14.5372 11.591
14.5523 11.286
14.5675 11.085
14.5827 10.960
14.5979 10.848
14.6130 10.879
14.6282 10.649
14.6434 10.677
14.6586 10.747
14.6737 10.641
14.6889 10.621
14.7041 11.047
14.7193 10.592
14.7344 10.408
14.7496 10.328
14.7648 10.247
14.7800 10.539
14.7951 10.447
14.8103 10.449
14.8255 10.357
14.8407 10.314
14.8558 10.458
14.8710 10.520
14.8862 10.338
14.9014 10.656
14.9165 10.516
14.9317 10.596
14.9469 10.576
14.9621 10.211
14.9772 10.163
14.9924 9.992
15.0076 10.213
15.0228 10.607
15.0379 10.174
15.0531 10.297
15.0683 10.380
15.0835 10.308
15.0986 10.052
15.1138 9.609
15.1290 10.059
15.1442 9.930
15.1593 9.901
15.1745 10.058
15.1897 10.222
15.2049 10.045
15.2200 10.074
15.2352 9.854
15.2504 10.070
15.2656 10.019
15.2807 9.889
15.2959 10.193
15.3111 9.696
15.3263 10.234
15.3414 10.131
15.3566 9.675
15.3718 10.287
15.3870 10.145
15.4021 9.993
15.4173 10.164
15.4325 10.110
15.4477 10.109
15.4628 9.791
15.4780 10.080
15.4932 9.893
15.5084 9.740
15.5235 9.957
15.5387 10.052
15.5539 9.940
15.5691 9.756
15.5842 9.960
15.5994 9.997
15.6146 9.775
15.6298 9.675
15.6449 9.636
15.6601 9.706
15.6753 9.465
15.6905 9.779
15.7056 9.616
15.7208 9.564
15.7360 9.178
15.7512 9.468
15.7663 9.711
15.7815 9.807
15.7967 9.496
15.8119 9.724
15.8270 9.798
15.8422 9.642
15.8574 9.586
15.8726 9.489
15.8877 9.523
15.9029 9.508
15.9181 9.509
15.9333 9.644
15.9484 9.616
15.9636 9.600
15.9788 9.668
15.9940 9.638
16.0091 9.647
16.0243 9.531
16.0395 9.304
16.0547 9.675
16.0698 9.774
16.0850 9.665
16.1002 9.792
16.1154 9.621
16.1305 9.605
16.1457 9.451
16.1609 9.468
16.1761 9.595
16.1912 9.671
16.2064 9.471
16.2216 9.426
16.2368 9.722
16.2519 9.857
16.2671 9.757
16.2823 9.798
16.2975 9.723
16.3126 9.642
16.3278 9.621
16.3430 9.558
16.3582 9.801
16.3733 9.934
16.3885 9.803
16.4037 9.722
16.4189 9.786
16.4340 9.816
16.4492 9.557
16.4644 9.569
16.4796 9.442
16.4947 9.540
16.5099 9.541
16.5251 9.635
16.5403 9.874
16.5554 9.746
16.5706 9.591
16.5858 9.585
16.6010 9.506
16.6161 9.452
16.6313 9.752
16.6465 9.950
16.6617 9.776
16.6768 9.846
16.6920 9.789
16.7072 9.819
16.7224 10.159
16.7375 9.808
16.7527 9.654
16.7679 9.863
16.7831 9.849
16.7982 9.803
16.8134 9.709
16.8286 9.824
16.8438 9.900
16.8589 9.798
16.8741 9.594
16.8893 9.646
16.9045 9.665
16.9196 9.653
16.9348 9.709
16.9500 9.679
16.9652 9.747
16.9803 9.903
16.9955 9.941
17.0107 10.078
17.0259 10.061
17.0410 10.208
17.0562 10.158
17.0714 10.080
17.0866 10.122
17.1017 10.449
17.1169 10.823
17.1321 10.941
17.1473 11.058
17.1624 11.581
17.1776 12.488
17.1928 13.123
17.2080 13.857
17.2231 15.118
17.2383 16.391
17.2535 17.837
17.2687 18.612
17.2838 18.515
17.2990 18.064
17.3142 16.989
17.3294 16.355
17.3445 16.246
17.3597 16.073
17.3749 15.820
17.3901 15.309
17.4052 14.357
17.4204 13.234
17.4356 12.549
17.4508 12.217
17.4659 11.920
17.4811 11.712
17.4963 11.412
17.5115 11.139
17.5266 11.153
17.5418 11.211
17.5570 11.082
17.5722 10.906
17.5873 10.934
17.6025 10.972
17.6177 10.988
17.6329 11.072
17.6480 11.292
17.6632 11.383
17.6784 11.387
17.6936 11.434
17.7087 11.418
17.7239 11.262
17.7391 11.190
17.7543 11.234
17.7694 11.132
17.7846 10.865
17.7998 10.846
17.8150 10.753
17.8301 10.524
17.8453 10.433
17.8605 10.247
17.8757 10.236
17.8908 10.325
17.9060 10.134
17.9212 9.950
17.9364 9.851
17.9515 9.987
17.9667 10.275
17.9819 10.121
17.9971 9.882
18.0122 10.058
18.0274 10.081
18.0426 10.030
18.0578 10.028
18.0729 10.038
18.0881 9.898
18.1033 9.877
18.1185 9.829
18.1336 9.934
18.1488 9.977
18.1640 9.988
18.1792 9.965
18.1943 9.719
18.2095 9.648
18.2247 9.807
18.2399 9.962
18.2550 9.723
18.2702 9.689
18.2854 9.767
18.3006 9.878
18.3157 10.005
18.3309 9.705
18.3461 9.693
18.3613 9.912
18.3764 9.895
18.3916 9.830
18.4068 9.930
18.4220 9.810
18.4371 9.700
18.4523 9.675
18.4675 9.599
18.4827 9.751
18.4978 9.653
18.5130 9.651
18.5282 9.840
18.5434 9.844
18.5585 9.531
18.5737 9.640
18.5889 9.814
18.6041 9.762
18.6192 9.663
18.6344 9.737
18.6496 9.905
18.6648 9.885
18.6799 9.627
18.6951 9.693
18.7103 9.843
18.7255 9.836
18.7406 9.911
18.7558 9.936
18.7710 9.747
18.7862 9.923
18.8013 9.658
18.8165 9.492
18.8317 9.883
18.8469 9.930
18.8620 9.930
18.8772 10.259
18.8924 10.187
18.9076 9.962
18.9227 9.866
18.9379 9.918
18.9531 9.868
18.9683 9.913
18.9834 10.026
18.9986 10.152
19.0138 10.106
19.0290 9.980
19.0441 9.884
19.0593 9.914
19.0745 10.171
19.0897 10.259
19.1048 10.201
19.1200 10.263
19.1352 10.324
19.1504 10.367
19.1655 10.305
19.1807 10.304
19.1959 10.546
19.2111 10.436
19.2262 10.687
19.2414 10.660
19.2566 10.621
19.2718 11.066
19.2869 10.979
19.3021 10.912
19.3173 10.999
19.3325 10.943
19.3476 10.906
19.3628 11.022
19.3780 11.069
19.3932 10.952
19.4083 11.074
19.4235 11.197
19.4387 11.156
19.4539 11.312
19.4690 11.313
19.4842 11.213
19.4994 11.272
19.5146 11.475
19.5297 11.570
19.5449 11.660
19.5601 11.651
19.5753 11.522
19.5904 11.445
19.6056 11.474
19.6208 11.680
19.6360 11.808
19.6511 11.667
19.6663 11.755
19.6815 11.843
19.6967 11.659
19.7118 11.481
19.7270 11.626
19.7422 11.768
19.7574 11.915
19.7725 11.840
19.7877 11.669
19.8029 12.091
19.8180 12.042
19.8332 11.944
19.8484 12.212
19.8636 12.569
19.8787 12.803
19.8939 12.680
19.9091 12.757
19.9243 13.174
19.9394 13.435
19.9546 13.685
19.9698 14.130
19.9850 14.363
20.0001 14.490
20.0153 14.447
20.0305 14.195
20.0457 14.057
20.0608 13.895
20.0760 13.962
20.0912 13.917
20.1064 13.514
20.1215 13.226
20.1367 13.277
20.1519 13.147
20.1671 12.886
20.1822 12.661
20.1974 12.778
20.2126 12.784
20.2278 12.714
20.2429 12.719
20.2581 12.499
20.2733 12.276
20.2885 11.993
20.3036 11.903
20.3188 11.982
20.3340 11.917
20.3492 12.061
20.3643 11.991
20.3795 11.708
20.3947 11.672
20.4099 11.664
20.4250 11.539
20.4402 11.853
20.4554 12.073
20.4706 11.924
20.4857 11.772
20.5009 11.863
20.5161 11.750
20.5313 11.393
20.5464 11.719
20.5616 11.744
20.5768 11.642
20.5920 11.160
20.6071 11.088
20.6223 10.780
20.6375 10.757
20.6527 10.377
20.6678 10.515
20.6830 10.751
20.6982 10.683
20.7134 10.630
20.7285 10.336
20.7437 10.482
20.7589 10.560
20.7741 10.015
20.7892 10.308
20.8044 10.495
20.8196 10.286
20.8348 10.461
20.8499 10.278
20.8651 10.500
20.8803 10.438
20.8955 10.391
20.9106 10.154
20.9258 9.972
20.9410 10.231
20.9562 10.105
20.9713 10.334
20.9865 10.023
21.0017 10.128
21.0169 10.251
21.0320 9.997
21.0472 9.723
21.0624 9.652
21.0776 9.505
21.0927 9.867
21.1079 9.744
21.1231 9.885
21.1383 10.117
21.1534 9.582
21.1686 9.453
21.1838 9.974
21.1990 9.579
21.2141 9.969
21.2293 9.725
21.2445 9.481
21.2597 9.823
21.2748 9.727
21.2900 9.585
21.3052 9.564
21.3204 9.137
21.3355 9.883
21.3507 9.713
21.3659 9.398
21.3811 9.301
21.3962 9.452
21.4114 9.273
21.4266 9.529
21.4418 9.476
21.4569 9.390
21.4721 9.391
21.4873 9.393
21.5025 9.222
21.5176 9.231
21.5328 9.234
21.5480 9.222
21.5632 8.944
21.5783 9.403
21.5935 9.347
21.6087 9.322
21.6239 9.182
21.6390 9.278
21.6542 9.028
21.6694 9.239
21.6846 9.034
21.6997 9.054
21.7149 9.126
21.7301 9.041
21.7453 9.205
21.7604 9.232
21.7756 9.027
21.7908 8.986
21.8060 9.018
21.8211 8.972
21.8363 9.023
21.8515 9.199
21.8667 9.185
21.8818 8.840
21.8970 8.948
21.9122 9.109
21.9274 9.027
21.9425 8.866
21.9577 8.962
21.9729 8.986
21.9881 9.001
22.0032 8.955
22.0184 8.810
22.0336 8.679
22.0488 8.761
22.0639 8.692
22.0791 8.638
22.0943 8.764
22.1095 8.806
22.1246 8.610
22.1398 8.691
22.1550 8.646
22.1702 8.544
22.1853 8.598
22.2005 8.527
22.2157 8.624
22.2309 8.628
22.2460 8.403
22.2612 8.515
22.2764 8.474
22.2916 8.651
22.3067 8.593
22.3219 8.467
22.3371 8.447
22.3523 8.592
22.3674 8.383
22.3826 8.328
22.3978 8.492
22.4130 8.357
22.4281 8.293
22.4433 8.303
22.4585 8.468
22.4737 8.024
22.4888 8.302
22.5040 8.253
22.5192 8.185
22.5344 8.583
22.5495 8.378
22.5647 8.153
22.5799 8.599
22.5951 8.608
22.6102 8.117
22.6254 8.660
22.6406 8.487
22.6558 8.096
22.6709 8.306
22.6861 8.265
22.7013 8.186
22.7165 7.915
22.7316 6.400
