'Id: "" Comment: "" Operator: "Lab Manager" Anode: "Mo" Scantype: "Still (Eiger2R_500K (1D mode))" TimePerStep: "300" X: "11.8" Y: "9.4" Z: "11.284" 
7.2532 19.015
7.2684 18.766
7.2836 19.160
7.2987 18.742
7.3139 18.707
7.3291 19.038
7.3443 19.174
7.3594 19.113
7.3746 19.532
7.3898 19.203
7.4050 19.421
7.4201 19.636
7.4353 19.491
7.4505 19.226
7.4657 19.565
7.4808 19.823
7.4960 20.069
7.5112 19.582
7.5264 19.567
7.5415 19.784
7.5567 20.104
7.5719 20.152
7.5871 19.675
7.6022 19.772
7.6174 19.943
7.6326 19.872
7.6478 20.049
7.6629 20.177
7.6781 20.219
7.6933 20.408
7.7085 20.562
7.7236 20.406
7.7388 20.259
7.7540 20.186
7.7692 20.402
7.7843 20.616
7.7995 20.655
7.8147 20.591
7.8299 20.430
7.8450 20.771
7.8602 20.808
7.8754 20.937
7.8905 21.047
7.9057 20.849
7.9209 20.861
7.9361 20.987
7.9512 21.136
7.9664 21.318
7.9816 21.473
7.9968 21.301
8.0119 20.918
8.0271 20.914
8.0423 21.141
8.0575 21.301
8.0726 21.357
8.0878 21.492
8.1030 21.301
8.1182 21.273
8.1333 21.057
8.1485 20.973
8.1637 21.215
8.1789 21.547
8.1940 21.561
8.2092 21.179
8.2244 21.491
8.2396 21.220
8.2547 21.440
8.2699 21.683
8.2851 21.281
8.3003 21.857
8.3154 21.557
8.3306 21.974
8.3458 21.597
8.3610 22.174
8.3761 22.404
8.3913 21.996
8.4065 22.149
8.4217 21.717
8.4368 21.709
8.4520 21.681
8.4672 21.949
8.4824 21.532
8.4975 22.067
8.5127 22.363
8.5279 22.293
8.5431 22.273
8.5582 22.115
8.5734 22.544
8.5886 21.950
8.6038 22.098
8.6189 22.055
8.6341 22.466
8.6493 22.405
8.6645 22.490
8.6796 22.119
8.6948 22.460
8.7100 22.653
8.7252 23.121
8.7403 23.101
8.7555 22.764
8.7707 22.340
8.7859 22.618
8.8010 22.272
8.8162 22.651
8.8314 22.689
8.8466 22.373
8.8617 22.413
8.8769 22.517
8.8921 22.763
8.9073 22.611
8.9224 22.620
8.9376 22.708
8.9528 22.934
8.9680 22.839
8.9831 22.769
8.9983 22.433
9.0135 22.688
9.0287 22.852
9.0438 22.803
9.0590 22.578
9.0742 22.640
9.0894 22.861
9.1045 22.728
9.1197 22.812
9.1349 22.694
9.1501 22.946
9.1652 22.602
9.1804 23.149
9.1956 22.976
9.2108 22.989
9.2259 22.858
9.2411 22.833
9.2563 22.729
9.2715 22.865
9.2866 23.126
9.3018 23.221
9.3170 22.829
9.3322 22.809
9.3473 22.612
9.3625 23.054
9.3777 23.233
9.3929 23.393
9.4080 23.410
9.4232 23.506
9.4384 23.121
9.4536 23.041
9.4687 22.900
9.4839 23.201
9.4991 23.218
9.5143 23.172
9.5294 23.172
9.5446 23.046
9.5598 23.180
9.5750 23.373
9.5901 23.234
9.6053 23.210
9.6205 23.199
9.6357 23.481
9.6508 23.973
9.6660 23.639
9.6812 23.374
9.6964 23.508
9.7115 24.082
9.7267 24.198
9.7419 24.312
9.7571 24.151
9.7722 23.664
9.7874 23.553
9.8026 23.686
9.8178 23.434
9.8329 23.443
9.8481 23.581
9.8633 23.673
9.8785 23.546
9.8936 23.321
9.9088 23.283
9.9240 23.127
9.9392 23.120
9.9543 23.247
9.9695 23.556
9.9847 23.606
9.9999 23.427
10.0150 23.172
10.0302 23.200
10.0454 23.596
10.0606 23.451
10.0757 23.090
10.0909 23.110
10.1061 23.278
10.1213 23.667
10.1364 23.586
10.1516 23.711
10.1668 23.426
10.1820 23.230
10.1971 23.411
10.2123 23.353
10.2275 23.362
10.2427 23.757
10.2578 23.698
10.2730 23.645
10.2882 23.381
10.3034 22.937
10.3185 23.097
10.3337 23.382
10.3489 23.008
10.3641 22.882
10.3792 23.093
10.3944 23.134
10.4096 23.112
10.4248 22.516
10.4399 22.540
10.4551 22.875
10.4703 23.120
10.4855 22.910
10.5006 22.619
10.5158 22.842
10.5310 22.828
10.5462 22.747
10.5613 22.561
10.5765 22.674
10.5917 22.754
10.6069 22.879
10.6220 22.831
10.6372 22.938
10.6524 22.678
10.6676 22.739
10.6827 22.445
10.6979 22.734
10.7131 22.653
10.7283 22.930
10.7434 23.095
10.7586 22.633
10.7738 22.368
10.7890 22.290
10.8041 22.359
10.8193 22.108
10.8345 22.409
10.8497 22.958
10.8648 22.539
10.8800 22.303
10.8952 22.443
10.9104 22.154
10.9255 22.103
10.9407 22.346
10.9559 22.252
10.9711 21.944
10.9862 22.225
11.0014 22.085
11.0166 21.910
11.0318 22.313
11.0469 21.808
11.0621 21.880
11.0773 21.695
11.0925 21.735
11.1076 21.585
11.1228 21.671
11.1380 21.836
11.1532 21.858
11.1683 21.749
11.1835 21.660
11.1987 21.982
11.2139 21.826
11.2290 22.177
11.2442 22.158
11.2594 22.059
11.2746 22.065
11.2897 21.667
11.3049 21.871
11.3201 22.040
11.3353 21.960
11.3504 21.641
11.3656 21.368
11.3808 21.357
11.3960 21.551
11.4111 21.491
11.4263 21.382
11.4415 21.316
11.4567 21.240
11.4718 21.508
11.4870 21.070
11.5022 21.067
11.5174 20.951
11.5325 20.998
11.5477 21.038
11.5629 21.248
11.5781 20.944
11.5932 20.464
11.6084 20.536
11.6236 20.779
11.6388 20.908
11.6539 21.014
11.6691 20.870
11.6843 20.601
11.6995 20.597
11.7146 20.520
11.7298 20.718
11.7450 20.561
11.7602 20.306
11.7753 20.192
11.7905 20.173
11.8057 20.249
11.8209 20.258
11.8360 19.670
11.8512 20.289
11.8664 20.041
11.8816 19.635
11.8967 19.544
11.9119 19.704
11.9271 19.480
11.9423 19.508
11.9574 19.237
11.9726 19.335
11.9878 19.398
12.0030 19.480
12.0181 19.403
12.0333 19.087
12.0485 19.152
12.0637 19.243
12.0788 19.283
12.0940 19.073
12.1092 18.941
12.1244 18.762
12.1395 18.847
12.1547 18.518
12.1699 18.048
12.1851 18.347
12.2002 18.243
12.2154 18.136
12.2306 18.255
12.2458 18.147
12.2609 17.686
12.2761 17.795
12.2913 17.715
12.3065 17.547
12.3216 17.732
12.3368 18.037
12.3520 17.747
12.3672 17.555
12.3823 17.475
12.3975 17.652
12.4127 17.686
12.4279 17.445
12.4430 17.536
12.4582 17.406
12.4734 17.158
12.4886 16.746
12.5037 16.843
12.5189 17.006
12.5341 16.760
12.5493 16.748
12.5644 16.637
12.5796 16.300
12.5948 16.564
12.6100 16.460
12.6251 16.128
12.6403 16.209
12.6555 15.944
12.6707 15.746
12.6858 15.766
12.7010 15.861
12.7162 15.883
12.7314 15.565
12.7465 15.516
12.7617 15.566
12.7769 15.597
12.7921 15.427
12.8072 15.151
12.8224 15.114
12.8376 15.241
12.8528 15.102
12.8679 15.004
12.8831 15.004
12.8983 14.885
12.9135 14.758
12.9286 14.690
12.9438 14.578
12.9590 14.586
12.9742 14.644
12.9893 14.715
13.0045 14.592
13.0197 14.415
13.0349 14.244
13.0500 14.364
13.0652 14.414
13.0804 14.278
13.0956 14.097
13.1107 13.792
13.1259 13.882
13.1411 13.950
13.1563 14.013
13.1714 14.032
13.1866 13.627
13.2018 13.720
13.2170 13.730
13.2321 13.501
13.2473 13.633
13.2625 13.538
13.2777 13.346
13.2928 13.161
13.3080 13.230
13.3232 13.209
13.3384 13.230
13.3535 13.358
13.3687 13.297
13.3839 13.294
13.3991 13.363
13.4142 13.394
13.4294 13.260
13.4446 13.164
13.4598 12.869
13.4749 12.601
13.4901 12.625
13.5053 12.539
13.5205 12.412
13.5356 12.448
13.5508 12.546
13.5660 12.641
13.5812 12.802
13.5963 12.465
13.6115 12.338
13.6267 12.405
13.6419 12.175
13.6570 12.331
13.6722 12.483
13.6874 12.364
13.7026 12.080
13.7177 12.116
13.7329 12.147
13.7481 12.090
13.7633 12.211
13.7784 12.214
13.7936 12.045
13.8088 12.172
13.8239 12.536
13.8391 12.573
13.8543 12.440
13.8695 12.284
13.8846 12.030
13.8998 12.087
13.9150 12.203
13.9302 12.144
13.9453 11.843
13.9605 11.732
13.9757 11.674
13.9909 11.951
14.0060 12.106
14.0212 11.863
14.0364 11.801
14.0516 11.789
14.0667 11.771
14.0819 11.635
14.0971 11.561
14.1123 11.533
14.1274 11.590
14.1426 11.486
14.1578 11.649
14.1730 11.886
14.1881 11.882
14.2033 11.934
14.2185 11.430
14.2337 11.520
14.2488 11.744
14.2640 11.750
14.2792 11.667
14.2944 11.885
14.3095 12.160
14.3247 11.887
14.3399 11.914
14.3551 12.212
14.3702 12.604
14.3854 12.790
14.4006 12.289
14.4158 12.315
14.4309 12.141
14.4461 12.140
14.4613 11.970
14.4765 11.904
14.4916 11.663
14.5068 11.608
14.5220 11.777
14.5372 11.234
14.5523 11.453
14.5675 11.114
14.5827 11.269
14.5979 11.285
14.6130 10.957
14.6282 11.104
14.6434 10.983
14.6586 10.982
14.6737 10.972
14.6889 11.048
14.7041 10.800
14.7193 10.960
14.7344 11.228
14.7496 11.136
14.7648 11.247
14.7800 11.215
14.7951 10.774
14.8103 10.704
14.8255 10.704
14.8407 10.707
14.8558 10.788
14.8710 10.613
14.8862 10.480
14.9014 10.676
14.9165 10.994
14.9317 10.793
14.9469 10.837
14.9621 10.830
14.9772 10.173
14.9924 10.663
15.0076 10.513
15.0228 10.345
15.0379 10.416
15.0531 10.248
15.0683 10.070
15.0835 10.168
15.0986 10.594
15.1138 10.817
15.1290 10.478
15.1442 10.782
15.1593 10.415
15.1745 10.779
15.1897 10.460
15.2049 10.476
15.2200 10.814
15.2352 10.509
15.2504 10.489
15.2656 10.222
15.2807 10.608
15.2959 10.062
15.3111 10.303
15.3263 10.311
15.3414 10.754
15.3566 10.462
15.3718 10.257
15.3870 10.437
15.4021 10.471
15.4173 10.381
15.4325 10.704
15.4477 10.583
15.4628 10.378
15.4780 10.496
15.4932 10.296
15.5084 10.281
15.5235 10.244
15.5387 9.998
15.5539 10.172
15.5691 9.850
15.5842 10.165
15.5994 10.248
15.6146 10.432
15.6298 10.118
15.6449 9.811
15.6601 10.284
15.6753 10.298
15.6905 10.004
15.7056 9.875
15.7208 10.010
15.7360 9.999
15.7512 10.001
15.7663 10.163
15.7815 10.007
15.7967 9.785
15.8119 9.666
15.8270 9.742
15.8422 10.115
15.8574 9.904
15.8726 9.631
15.8877 9.691
15.9029 9.799
15.9181 9.645
15.9333 9.977
15.9484 9.647
15.9636 10.001
15.9788 10.060
15.9940 9.871
16.0091 9.816
16.0243 9.810
16.0395 9.739
16.0547 9.867
16.0698 9.962
16.0850 10.029
16.1002 9.657
16.1154 9.718
16.1305 9.842
16.1457 9.584
16.1609 9.676
16.1761 9.869
16.1912 9.776
16.2064 9.770
16.2216 9.850
16.2368 9.960
16.2519 9.907
16.2671 9.732
16.2823 9.866
16.2975 10.003
16.3126 9.964
16.3278 10.008
16.3430 9.669
16.3582 9.810
16.3733 10.119
16.3885 10.117
16.4037 10.291
16.4189 9.986
16.4340 9.832
16.4492 9.911
16.4644 9.925
16.4796 10.120
16.4947 10.022
16.5099 9.885
16.5251 9.781
16.5403 9.844
16.5554 9.917
16.5706 9.708
16.5858 9.556
16.6010 9.733
16.6161 9.799
16.6313 9.708
16.6465 9.927
16.6617 9.918
16.6768 9.927
16.6920 10.026
16.7072 10.002
16.7224 9.926
16.7375 10.165
16.7527 10.379
16.7679 10.331
16.7831 10.128
16.7982 10.019
16.8134 9.758
16.8286 9.677
16.8438 9.937
16.8589 10.347
16.8741 10.037
16.8893 9.853
16.9045 10.034
16.9196 9.918
16.9348 9.794
16.9500 9.894
16.9652 9.892
16.9803 9.908
16.9955 10.041
17.0107 9.997
17.0259 10.006
17.0410 10.047
17.0562 10.037
17.0714 10.003
17.0866 10.162
17.1017 10.558
17.1169 10.841
17.1321 11.025
17.1473 11.462
17.1624 12.017
17.1776 12.567
17.1928 13.441
17.2080 14.326
17.2231 15.101
17.2383 16.465
17.2535 17.861
17.2687 18.718
17.2838 18.728
17.2990 17.864
17.3142 17.003
17.3294 16.538
17.3445 16.312
17.3597 16.159
17.3749 15.877
17.3901 15.220
17.4052 14.410
17.4204 13.408
17.4356 12.494
17.4508 11.944
17.4659 11.600
17.4811 11.537
17.4963 11.462
17.5115 11.348
17.5266 11.004
17.5418 10.770
17.5570 10.961
17.5722 11.044
17.5873 11.094
17.6025 10.935
17.6177 10.774
17.6329 10.808
17.6480 10.776
17.6632 10.776
17.6784 10.539
17.6936 10.344
17.7087 10.441
17.7239 10.462
17.7391 10.368
17.7543 10.288
17.7694 10.141
17.7846 10.047
17.7998 10.259
17.8150 10.396
17.8301 10.163
17.8453 9.717
17.8605 9.877
17.8757 10.126
17.8908 10.211
17.9060 10.221
17.9212 10.114
17.9364 10.268
17.9515 10.278
17.9667 10.354
17.9819 10.159
17.9971 10.165
18.0122 10.170
18.0274 10.070
18.0426 10.115
18.0578 10.177
18.0729 10.264
18.0881 10.001
18.1033 9.952
18.1185 10.114
18.1336 10.075
18.1488 10.045
18.1640 10.117
18.1792 10.050
18.1943 9.961
18.2095 9.906
18.2247 10.009
18.2399 9.801
18.2550 9.818
18.2702 9.943
18.2854 10.018
18.3006 9.878
18.3157 9.839
18.3309 9.737
18.3461 9.845
18.3613 9.908
18.3764 9.975
18.3916 9.973
18.4068 10.026
18.4220 10.116
18.4371 9.879
18.4523 9.910
18.4675 9.898
18.4827 10.119
18.4978 9.982
18.5130 9.763
18.5282 9.804
18.5434 9.959
18.5585 9.679
18.5737 9.744
18.5889 10.011
18.6041 9.853
18.6192 9.797
18.6344 9.876
18.6496 9.680
18.6648 9.589
18.6799 9.602
18.6951 9.634
18.7103 9.769
18.7255 9.918
18.7406 9.967
18.7558 9.783
18.7710 9.825
18.7862 9.786
18.8013 9.629
18.8165 9.649
18.8317 9.682
18.8469 9.790
18.8620 9.885
18.8772 9.849
18.8924 9.784
18.9076 9.856
18.9227 9.935
18.9379 9.999
18.9531 10.078
18.9683 10.153
18.9834 10.096
18.9986 10.148
19.0138 10.058
19.0290 10.105
19.0441 10.220
19.0593 10.219
19.0745 10.101
19.0897 10.291
19.1048 10.392
19.1200 10.479
19.1352 10.501
19.1504 10.322
19.1655 10.373
19.1807 10.424
19.1959 10.485
19.2111 10.667
19.2262 10.776
19.2414 10.735
19.2566 10.731
19.2718 10.840
19.2869 10.840
19.3021 11.027
19.3173 10.983
19.3325 11.096
19.3476 11.135
19.3628 11.269
19.3780 11.305
19.3932 11.190
19.4083 11.355
19.4235 11.264
19.4387 11.304
19.4539 11.431
19.4690 11.278
19.4842 11.073
19.4994 11.166
19.5146 11.588
19.5297 11.536
19.5449 11.568
19.5601 11.531
19.5753 11.375
19.5904 11.572
19.6056 11.645
19.6208 11.500
19.6360 11.528
19.6511 11.809
19.6663 11.880
19.6815 11.764
19.6967 11.718
19.7118 11.818
19.7270 11.942
19.7422 11.946
19.7574 11.917
19.7725 11.807
19.7877 11.600
19.8029 11.863
19.8180 12.090
19.8332 12.055
19.8484 12.015
19.8636 12.193
19.8787 12.597
19.8939 12.807
19.9091 13.045
19.9243 13.622
19.9394 13.855
19.9546 13.789
19.9698 14.303
19.9850 14.644
20.0001 14.472
20.0153 14.206
20.0305 14.114
20.0457 13.874
20.0608 13.637
20.0760 13.534
20.0912 13.516
20.1064 13.658
20.1215 13.599
20.1367 13.335
20.1519 13.217
20.1671 13.037
20.1822 12.464
20.1974 12.628
20.2126 12.936
20.2278 12.737
20.2429 12.361
20.2581 12.085
20.2733 11.871
20.2885 11.971
20.3036 11.832
20.3188 11.754
20.3340 11.775
20.3492 11.580
20.3643 11.368
20.3795 11.117
20.3947 11.079
20.4099 10.854
20.4250 11.019
20.4402 10.917
20.4554 10.710
20.4706 10.895
20.4857 10.743
20.5009 10.820
20.5161 10.600
20.5313 10.391
20.5464 10.321
20.5616 10.266
20.5768 10.524
20.5920 10.712
20.6071 10.621
20.6223 10.841
20.6375 10.903
20.6527 10.774
20.6678 10.675
20.6830 10.748
20.6982 10.780
20.7134 10.368
20.7285 10.251
20.7437 10.460
20.7589 10.300
20.7741 10.443
20.7892 10.502
20.8044 10.309
20.8196 10.251
20.8348 10.350
20.8499 10.202
20.8651 10.260
20.8803 10.290
20.8955 9.957
20.9106 9.777
20.9258 10.081
20.9410 9.851
20.9562 10.007
20.9713 9.898
20.9865 9.916
21.0017 10.261
21.0169 10.245
21.0320 9.952
21.0472 10.003
21.0624 9.951
21.0776 9.976
21.0927 9.816
21.1079 9.886
21.1231 9.867
21.1383 9.839
21.1534 9.749
21.1686 9.497
21.1838 9.629
21.1990 9.626
21.2141 9.529
21.2293 9.637
21.2445 9.660
21.2597 9.659
21.2748 9.667
21.2900 9.555
21.3052 9.917
21.3204 9.566
21.3355 9.320
21.3507 9.291
21.3659 9.645
21.3811 9.446
21.3962 9.586
21.4114 9.583
21.4266 9.701
21.4418 9.667
21.4569 9.415
21.4721 9.181
21.4873 9.465
21.5025 9.379
21.5176 9.253
21.5328 9.315
21.5480 9.477
21.5632 9.458
21.5783 9.460
21.5935 9.353
21.6087 9.408
21.6239 9.168
21.6390 9.340
21.6542 9.247
21.6694 9.070
21.6846 9.138
21.6997 9.269
21.7149 9.285
21.7301 8.954
21.7453 8.993
21.7604 9.066
21.7756 9.126
21.7908 9.201
21.8060 8.903
21.8211 9.116
21.8363 9.075
21.8515 9.176
21.8667 9.210
21.8818 8.985
21.8970 8.938
21.9122 8.826
21.9274 8.881
21.9425 8.953
21.9577 8.893
21.9729 8.746
21.9881 8.783
22.0032 8.901
22.0184 8.773
22.0336 8.719
22.0488 8.827
22.0639 8.870
22.0791 8.809
22.0943 8.771
22.1095 8.711
22.1246 8.664
22.1398 8.820
22.1550 8.755
22.1702 8.563
22.1853 8.747
22.2005 8.599
22.2157 8.641
22.2309 8.779
22.2460 9.010
22.2612 8.789
22.2764 8.490
22.2916 8.433
22.3067 8.552
22.3219 8.646
22.3371 8.800
22.3523 8.704
22.3674 8.706
22.3826 8.603
22.3978 8.633
22.4130 8.559
22.4281 8.399
22.4433 8.526
22.4585 8.345
22.4737 8.312
22.4888 8.320
22.5040 8.520
22.5192 8.611
22.5344 8.342
22.5495 8.253
22.5647 8.434
22.5799 8.247
22.5951 8.842
22.6102 8.605
22.6254 8.449
22.6406 8.324
22.6558 8.326
22.6709 8.293
22.6861 8.425
22.7013 8.088
22.7165 7.925
22.7316 6.457
