'Id: "" Comment: "" Operator: "Lab Manager" Anode: "Mo" Scantype: "Still (Eiger2R_500K (1D mode))" TimePerStep: "300" X: "11.8" Y: "9.4" Z: "11.284" 
7.2532 18.988
7.2684 18.540
7.2836 18.849
7.2987 19.055
7.3139 18.717
7.3291 19.405
7.3443 18.902
7.3594 19.083
7.3746 19.473
7.3898 19.210
7.4050 19.600
7.4201 19.455
7.4353 19.279
7.4505 19.165
7.4657 19.700
7.4808 19.797
7.4960 19.740
7.5112 19.460
7.5264 19.462
7.5415 19.965
7.5567 19.633
7.5719 19.550
7.5871 19.795
7.6022 19.915
7.6174 20.160
7.6326 19.954
7.6478 20.111
7.6629 20.248
7.6781 20.171
7.6933 19.890
7.7085 19.918
7.7236 20.142
7.7388 20.220
7.7540 20.010
7.7692 20.028
7.7843 20.097
7.7995 20.279
7.8147 20.481
7.8299 20.346
7.8450 20.465
7.8602 20.583
7.8754 20.724
7.8905 20.795
7.9057 20.398
7.9209 20.601
7.9361 20.749
7.9512 20.752
7.9664 20.749
7.9816 20.969
7.9968 20.905
8.0119 20.702
8.0271 20.724
8.0423 20.755
8.0575 20.695
8.0726 21.073
8.0878 21.505
8.1030 21.451
8.1182 21.436
8.1333 21.590
8.1485 21.343
8.1637 21.711
8.1789 21.416
8.1940 21.119
8.2092 21.430
8.2244 21.481
8.2396 21.366
8.2547 21.621
8.2699 21.565
8.2851 21.966
8.3003 21.774
8.3154 21.507
8.3306 21.852
8.3458 21.752
8.3610 21.610
8.3761 21.594
8.3913 21.759
8.4065 21.475
8.4217 21.716
8.4368 22.255
8.4520 21.888
8.4672 22.370
8.4824 22.155
8.4975 22.347
8.5127 21.696
8.5279 22.187
8.5431 21.887
8.5582 21.838
8.5734 21.820
8.5886 22.195
8.6038 22.017
8.6189 22.181
8.6341 21.965
8.6493 22.247
8.6645 21.673
8.6796 22.409
8.6948 22.088
8.7100 22.465
8.7252 22.430
8.7403 22.246
8.7555 22.260
8.7707 21.797
8.7859 22.340
8.8010 22.201
8.8162 22.444
8.8314 22.515
8.8466 22.572
8.8617 22.472
8.8769 22.518
8.8921 22.518
8.9073 22.564
8.9224 22.428
8.9376 22.726
8.9528 22.808
8.9680 22.250
8.9831 22.548
8.9983 22.916
9.0135 22.429
9.0287 22.835
9.0438 22.334
9.0590 22.936
9.0742 23.124
9.0894 22.985
9.1045 22.574
9.1197 22.968
9.1349 22.465
9.1501 22.469
9.1652 22.710
9.1804 22.805
9.1956 22.770
9.2108 22.985
9.2259 23.034
9.2411 22.867
9.2563 22.985
9.2715 22.621
9.2866 22.601
9.3018 22.557
9.3170 22.779
9.3322 22.921
9.3473 22.990
9.3625 23.094
9.3777 23.028
9.3929 22.745
9.4080 22.814
9.4232 23.069
9.4384 22.877
9.4536 23.180
9.4687 23.122
9.4839 23.110
9.4991 23.244
9.5143 23.239
9.5294 23.193
9.5446 23.041
9.5598 23.105
9.5750 23.277
9.5901 23.213
9.6053 23.034
9.6205 23.318
9.6357 23.463
9.6508 23.474
9.6660 23.236
9.6812 23.090
9.6964 23.075
9.7115 23.376
9.7267 23.940
9.7419 24.013
9.7571 23.853
9.7722 23.944
9.7874 24.129
9.8026 23.949
9.8178 23.560
9.8329 23.435
9.8481 23.202
9.8633 23.244
9.8785 23.226
9.8936 23.018
9.9088 23.307
9.9240 23.384
9.9392 23.269
9.9543 23.078
9.9695 22.808
9.9847 23.173
9.9999 23.220
10.0150 23.141
10.0302 23.543
10.0454 23.533
10.0606 23.132
10.0757 22.760
10.0909 23.124
10.1061 23.536
10.1213 23.206
10.1364 23.153
10.1516 23.417
10.1668 23.446
10.1820 23.312
10.1971 23.127
10.2123 22.912
10.2275 23.208
10.2427 23.419
10.2578 22.918
10.2730 22.761
10.2882 22.823
10.3034 22.837
10.3185 22.895
10.3337 22.987
10.3489 22.674
10.3641 22.237
10.3792 22.344
10.3944 22.318
10.4096 22.611
10.4248 22.950
10.4399 23.036
10.4551 22.444
10.4703 22.420
10.4855 22.656
10.5006 22.731
10.5158 22.506
10.5310 22.413
10.5462 22.431
10.5613 22.700
10.5765 22.639
10.5917 22.336
10.6069 22.207
10.6220 22.756
10.6372 22.543
10.6524 22.617
10.6676 22.513
10.6827 21.921
10.6979 22.342
10.7131 22.444
10.7283 22.425
10.7434 22.714
10.7586 22.573
10.7738 22.146
10.7890 22.348
10.8041 22.366
10.8193 22.176
10.8345 22.114
10.8497 22.257
10.8648 22.281
10.8800 22.359
10.8952 22.108
10.9104 22.093
10.9255 22.195
10.9407 22.142
10.9559 22.057
10.9711 21.771
10.9862 21.959
11.0014 21.943
11.0166 21.816
11.0318 21.987
11.0469 22.276
11.0621 21.968
11.0773 21.801
11.0925 21.697
11.1076 22.137
11.1228 21.886
11.1380 21.931
11.1532 22.079
11.1683 21.779
11.1835 21.341
11.1987 21.424
11.2139 21.921
11.2290 21.647
11.2442 21.268
11.2594 21.362
11.2746 21.520
11.2897 21.418
11.3049 21.550
11.3201 21.279
11.3353 21.463
11.3504 21.664
11.3656 21.543
11.3808 21.582
11.3960 21.315
11.4111 21.504
11.4263 21.441
11.4415 20.975
11.4567 20.863
11.4718 21.140
11.4870 21.164
11.5022 21.229
11.5174 21.254
11.5325 20.879
11.5477 20.853
11.5629 20.865
11.5781 20.694
11.5932 20.667
11.6084 20.717
11.6236 20.526
11.6388 20.462
11.6539 20.684
11.6691 20.697
11.6843 20.456
11.6995 20.633
11.7146 20.545
11.7298 20.571
11.7450 20.285
11.7602 20.372
11.7753 20.296
11.7905 20.008
11.8057 19.957
11.8209 19.903
11.8360 20.065
11.8512 20.093
11.8664 19.755
11.8816 19.558
11.8967 20.080
11.9119 20.007
11.9271 19.487
11.9423 19.450
11.9574 19.455
11.9726 19.267
11.9878 19.337
12.0030 19.588
12.0181 19.438
12.0333 19.449
12.0485 19.206
12.0637 19.141
12.0788 18.926
12.0940 18.803
12.1092 18.573
12.1244 18.524
12.1395 18.705
12.1547 18.489
12.1699 18.138
12.1851 18.196
12.2002 18.527
12.2154 18.320
12.2306 18.217
12.2458 18.014
12.2609 18.065
12.2761 18.130
12.2913 18.005
12.3065 17.685
12.3216 17.755
12.3368 17.716
12.3520 17.355
12.3672 17.247
12.3823 17.294
12.3975 17.222
12.4127 16.897
12.4279 16.856
12.4430 17.146
12.4582 16.980
12.4734 16.627
12.4886 16.540
12.5037 16.352
12.5189 16.367
12.5341 16.295
12.5493 16.241
12.5644 15.974
12.5796 15.950
12.5948 16.184
12.6100 16.150
12.6251 16.055
12.6403 16.068
12.6555 15.876
12.6707 15.699
12.6858 15.851
12.7010 15.662
12.7162 15.376
12.7314 15.486
12.7465 15.553
12.7617 15.457
12.7769 15.358
12.7921 15.496
12.8072 15.111
12.8224 14.992
12.8376 15.054
12.8528 14.919
12.8679 15.067
12.8831 14.832
12.8983 14.425
12.9135 14.398
12.9286 14.190
12.9438 14.076
12.9590 14.285
12.9742 14.464
12.9893 14.396
13.0045 14.316
13.0197 14.070
13.0349 14.028
13.0500 14.284
13.0652 14.198
13.0804 13.965
13.0956 13.946
13.1107 14.021
13.1259 14.009
13.1411 13.914
13.1563 13.596
13.1714 13.625
13.1866 13.919
13.2018 13.642
13.2170 13.381
13.2321 13.298
13.2473 13.183
13.2625 13.154
13.2777 13.151
13.2928 13.269
13.3080 13.066
13.3232 12.916
13.3384 12.885
13.3535 12.699
13.3687 12.886
13.3839 13.034
13.3991 12.907
13.4142 12.771
13.4294 12.791
13.4446 12.956
13.4598 12.818
13.4749 12.444
13.4901 12.479
13.5053 12.587
13.5205 12.444
13.5356 12.421
13.5508 12.647
13.5660 12.626
13.5812 12.367
13.5963 12.180
13.6115 12.350
13.6267 12.510
13.6419 12.122
13.6570 11.983
13.6722 12.102
13.6874 11.942
13.7026 11.858
13.7177 12.000
13.7329 12.413
13.7481 12.419
13.7633 12.057
13.7784 11.868
13.7936 12.009
13.8088 12.121
13.8239 12.239
13.8391 12.468
13.8543 12.189
13.8695 12.334
13.8846 12.448
13.8998 12.321
13.9150 11.991
13.9302 12.110
13.9453 12.288
13.9605 11.861
13.9757 11.747
13.9909 12.118
14.0060 12.079
14.0212 11.811
14.0364 11.543
14.0516 11.809
14.0667 11.715
14.0819 11.559
14.0971 11.479
14.1123 11.670
14.1274 11.609
14.1426 11.935
14.1578 11.931
14.1730 11.934
14.1881 11.859
14.2033 11.787
14.2185 11.954
14.2337 11.983
14.2488 12.100
14.2640 11.803
14.2792 11.952
14.2944 11.961
14.3095 12.075
14.3247 12.202
14.3399 12.313
14.3551 12.237
14.3702 12.625
14.3854 13.151
14.4006 13.128
14.4158 12.840
14.4309 13.109
14.4461 12.756
14.4613 12.410
14.4765 12.187
14.4916 12.154
14.5068 12.170
14.5220 11.917
14.5372 11.393
14.5523 11.274
14.5675 11.048
14.5827 11.117
14.5979 10.988
14.6130 10.931
14.6282 11.157
14.6434 11.156
14.6586 11.036
14.6737 10.586
14.6889 10.948
14.7041 10.669
14.7193 10.385
14.7344 10.666
14.7496 10.712
14.7648 10.473
14.7800 10.521
14.7951 10.589
14.8103 10.354
14.8255 10.592
14.8407 10.576
14.8558 10.792
14.8710 10.810
14.8862 10.941
14.9014 10.717
14.9165 10.932
14.9317 10.922
14.9469 10.694
14.9621 10.342
14.9772 10.244
14.9924 10.232
15.0076 10.157
15.0228 10.495
15.0379 10.286
15.0531 10.749
15.0683 10.353
15.0835 10.340
15.0986 10.212
15.1138 10.316
15.1290 10.204
15.1442 10.218
15.1593 10.027
15.1745 10.120
15.1897 9.980
15.2049 9.736
15.2200 9.982
15.2352 10.224
15.2504 10.069
15.2656 10.232
15.2807 10.052
15.2959 10.195
15.3111 10.072
15.3263 10.122
15.3414 10.148
15.3566 10.058
15.3718 10.212
15.3870 9.971
15.4021 10.618
15.4173 10.502
15.4325 10.361
15.4477 10.201
15.4628 10.511
15.4780 10.039
15.4932 10.427
15.5084 10.183
15.5235 10.096
15.5387 10.069
15.5539 9.781
15.5691 10.026
15.5842 10.024
15.5994 10.032
15.6146 9.839
15.6298 10.090
15.6449 9.853
15.6601 9.631
15.6753 9.703
15.6905 9.676
15.7056 10.118
15.7208 9.864
15.7360 9.521
15.7512 9.607
15.7663 9.634
15.7815 9.738
15.7967 9.746
15.8119 9.611
15.8270 9.780
15.8422 9.586
15.8574 9.682
15.8726 9.804
15.8877 9.599
15.9029 9.747
15.9181 9.617
15.9333 9.388
15.9484 9.517
15.9636 9.603
15.9788 9.980
15.9940 9.672
16.0091 9.683
16.0243 9.573
16.0395 9.631
16.0547 9.709
16.0698 9.741
16.0850 9.630
16.1002 9.644
16.1154 9.767
16.1305 9.610
16.1457 9.692
16.1609 9.738
16.1761 10.076
16.1912 9.747
16.2064 9.663
16.2216 9.756
16.2368 9.830
16.2519 9.540
16.2671 9.679
16.2823 9.863
16.2975 9.911
16.3126 9.908
16.3278 9.922
16.3430 9.801
16.3582 9.842
16.3733 9.993
16.3885 10.002
16.4037 9.810
16.4189 9.975
16.4340 9.986
16.4492 9.696
16.4644 9.748
16.4796 9.775
16.4947 9.859
16.5099 9.773
16.5251 9.678
16.5403 9.889
16.5554 9.655
16.5706 9.538
16.5858 9.626
16.6010 9.605
16.6161 9.833
16.6313 9.733
16.6465 10.051
16.6617 9.890
16.6768 9.633
16.6920 9.873
16.7072 10.083
16.7224 9.886
16.7375 9.988
16.7527 10.018
16.7679 9.959
16.7831 9.913
16.7982 9.953
16.8134 9.889
16.8286 9.944
16.8438 9.725
16.8589 9.706
16.8741 9.655
16.8893 9.634
16.9045 9.731
16.9196 9.748
16.9348 9.779
16.9500 9.965
16.9652 9.870
16.9803 9.845
16.9955 9.873
17.0107 9.928
17.0259 9.987
17.0410 10.003
17.0562 10.200
17.0714 10.469
17.0866 10.476
17.1017 10.482
17.1169 10.724
17.1321 10.983
17.1473 11.409
17.1624 11.915
17.1776 12.506
17.1928 13.218
17.2080 14.037
17.2231 15.164
17.2383 16.551
17.2535 17.601
17.2687 18.503
17.2838 18.528
17.2990 17.879
17.3142 17.108
17.3294 16.065
17.3445 15.924
17.3597 15.982
17.3749 15.760
17.3901 15.304
17.4052 14.302
17.4204 13.293
17.4356 12.478
17.4508 11.995
17.4659 11.896
17.4811 11.910
17.4963 11.586
17.5115 11.131
17.5266 10.858
17.5418 11.025
17.5570 11.104
17.5722 10.958
17.5873 11.119
17.6025 11.070
17.6177 11.126
17.6329 11.166
17.6480 11.324
17.6632 11.561
17.6784 11.588
17.6936 11.640
17.7087 11.371
17.7239 11.346
17.7391 11.410
17.7543 11.066
17.7694 10.880
17.7846 11.131
17.7998 10.924
17.8150 10.757
17.8301 10.763
17.8453 10.243
17.8605 10.134
17.8757 10.256
17.8908 10.257
17.9060 10.405
17.9212 10.428
17.9364 10.221
17.9515 9.973
17.9667 9.986
17.9819 10.183
17.9971 10.466
18.0122 10.317
18.0274 10.066
18.0426 10.234
18.0578 10.106
18.0729 9.908
18.0881 9.997
18.1033 10.109
18.1185 10.123
18.1336 10.071
18.1488 10.215
18.1640 10.238
18.1792 10.086
18.1943 9.951
18.2095 9.926
18.2247 9.889
18.2399 9.888
18.2550 9.844
18.2702 9.983
18.2854 9.777
18.3006 9.728
18.3157 9.664
18.3309 9.676
18.3461 9.856
18.3613 9.818
18.3764 9.873
18.3916 9.712
18.4068 9.706
18.4220 9.828
18.4371 9.702
18.4523 9.530
18.4675 9.595
18.4827 9.727
18.4978 10.049
18.5130 9.950
18.5282 9.861
18.5434 9.924
18.5585 9.742
18.5737 9.847
18.5889 9.985
18.6041 9.658
18.6192 9.405
18.6344 9.581
18.6496 9.926
18.6648 9.889
18.6799 9.786
18.6951 10.100
18.7103 10.072
18.7255 9.860
18.7406 9.792
18.7558 9.863
18.7710 9.943
18.7862 9.708
18.8013 9.575
18.8165 9.561
18.8317 9.782
18.8469 9.858
18.8620 9.974
18.8772 9.947
18.8924 9.711
18.9076 9.814
18.9227 10.050
18.9379 10.098
18.9531 9.909
18.9683 10.002
18.9834 10.135
18.9986 9.912
19.0138 9.883
19.0290 10.040
19.0441 10.039
19.0593 10.203
19.0745 10.102
19.0897 10.188
19.1048 10.503
19.1200 10.551
19.1352 10.496
19.1504 10.640
19.1655 10.693
19.1807 10.739
19.1959 10.722
19.2111 10.395
19.2262 10.575
19.2414 10.679
19.2566 10.672
19.2718 10.732
19.2869 10.835
19.3021 10.803
19.3173 10.758
19.3325 10.645
19.3476 10.779
19.3628 11.011
19.3780 10.853
19.3932 10.979
19.4083 11.313
19.4235 11.188
19.4387 11.131
19.4539 11.273
19.4690 11.299
19.4842 11.161
19.4994 11.171
19.5146 11.454
19.5297 11.429
19.5449 11.357
19.5601 11.547
19.5753 11.630
19.5904 11.885
19.6056 11.710
19.6208 11.444
19.6360 11.564
19.6511 11.502
19.6663 11.739
19.6815 11.938
19.6967 11.959
19.7118 11.946
19.7270 11.835
19.7422 11.862
19.7574 11.684
19.7725 11.681
19.7877 11.727
19.8029 11.828
19.8180 12.009
19.8332 12.003
19.8484 11.977
19.8636 12.205
19.8787 12.363
19.8939 12.537
19.9091 12.921
19.9243 13.502
19.9394 13.831
19.9546 14.037
19.9698 14.275
19.9850 14.326
20.0001 14.381
20.0153 14.061
20.0305 14.058
20.0457 14.152
20.0608 13.928
20.0760 13.558
20.0912 13.704
20.1064 13.776
20.1215 13.532
20.1367 13.430
20.1519 13.234
20.1671 13.094
20.1822 12.985
20.1974 12.907
20.2126 12.980
20.2278 13.011
20.2429 12.786
20.2581 12.455
20.2733 12.110
20.2885 11.674
20.3036 11.798
20.3188 11.970
20.3340 12.013
20.3492 12.069
20.3643 12.186
20.3795 11.984
20.3947 11.835
20.4099 11.764
20.4250 11.946
20.4402 12.078
20.4554 12.012
20.4706 11.922
20.4857 11.730
20.5009 11.584
20.5161 11.263
20.5313 11.503
20.5464 11.522
20.5616 11.283
20.5768 11.269
20.5920 11.270
20.6071 11.067
20.6223 10.918
20.6375 10.879
20.6527 10.933
20.6678 10.866
20.6830 10.755
20.6982 10.334
20.7134 10.451
20.7285 10.665
20.7437 10.491
20.7589 10.358
20.7741 10.346
20.7892 10.214
20.8044 10.107
20.8196 10.256
20.8348 10.281
20.8499 9.931
20.8651 9.981
20.8803 10.273
20.8955 10.013
20.9106 10.054
20.9258 10.263
20.9410 10.170
20.9562 9.778
20.9713 10.061
20.9865 10.095
21.0017 10.042
21.0169 9.590
21.0320 9.899
21.0472 10.023
21.0624 9.982
21.0776 10.143
21.0927 9.714
21.1079 9.821
21.1231 9.810
21.1383 9.582
21.1534 9.905
21.1686 9.957
21.1838 9.809
21.1990 9.898
21.2141 9.398
21.2293 9.876
21.2445 9.631
21.2597 9.629
21.2748 9.646
21.2900 9.574
21.3052 9.763
21.3204 9.682
21.3355 9.737
21.3507 9.763
21.3659 9.390
21.3811 9.658
21.3962 9.375
21.4114 9.415
21.4266 9.474
21.4418 9.559
21.4569 9.491
21.4721 9.361
21.4873 9.338
21.5025 9.202
21.5176 9.414
21.5328 9.416
21.5480 9.147
21.5632 9.497
21.5783 9.355
21.5935 9.430
21.6087 9.371
21.6239 9.216
21.6390 9.056
21.6542 9.323
21.6694 9.168
21.6846 9.403
21.6997 9.215
21.7149 9.055
21.7301 9.028
21.7453 9.279
21.7604 9.097
21.7756 8.960
21.7908 9.050
21.8060 8.930
21.8211 9.103
21.8363 8.918
21.8515 8.784
21.8667 8.828
21.8818 8.896
21.8970 8.922
21.9122 8.880
21.9274 9.088
21.9425 9.032
21.9577 8.930
21.9729 9.017
21.9881 9.029
22.0032 8.860
22.0184 8.812
22.0336 8.818
22.0488 8.771
22.0639 8.762
22.0791 8.639
22.0943 8.630
22.1095 8.782
22.1246 8.745
22.1398 8.630
22.1550 8.703
22.1702 8.570
22.1853 8.437
22.2005 8.609
22.2157 8.513
22.2309 8.578
22.2460 8.745
22.2612 8.631
22.2764 8.570
22.2916 8.214
22.3067 8.448
22.3219 8.509
22.3371 8.539
22.3523 8.305
22.3674 8.479
22.3826 8.498
22.3978 8.483
22.4130 8.419
22.4281 8.456
22.4433 8.383
22.4585 8.441
22.4737 8.423
22.4888 8.381
22.5040 8.383
22.5192 8.400
22.5344 8.433
22.5495 8.534
22.5647 8.235
22.5799 8.108
22.5951 8.437
22.6102 8.330
22.6254 8.777
22.6406 8.260
22.6558 8.624
22.6709 8.351
22.6861 8.396
22.7013 8.136
22.7165 7.837
22.7316 6.280
