'Id: "" Comment: "" Operator: "Lab Manager" Anode: "Mo" Scantype: "Still (Eiger2R_500K (1D mode))" TimePerStep: "300" X: "11.8" Y: "9.4" Z: "11.284" 
7.2532 19.166
7.2684 18.629
7.2836 19.046
7.2987 18.689
7.3139 19.141
7.3291 19.367
7.3443 19.349
7.3594 19.126
7.3746 19.469
7.3898 19.137
7.4050 19.229
7.4201 19.551
7.4353 19.411
7.4505 19.499
7.4657 19.830
7.4808 19.733
7.4960 19.902
7.5112 19.439
7.5264 19.740
7.5415 19.724
7.5567 19.940
7.5719 20.067
7.5871 20.131
7.6022 19.973
7.6174 19.911
7.6326 19.701
7.6478 20.043
7.6629 20.122
7.6781 20.030
7.6933 20.105
7.7085 20.557
7.7236 20.529
7.7388 20.299
7.7540 20.402
7.7692 20.652
7.7843 20.626
7.7995 20.397
7.8147 20.283
7.8299 20.265
7.8450 20.403
7.8602 20.517
7.8754 20.822
7.8905 20.750
7.9057 20.807
7.9209 21.025
7.9361 20.836
7.9512 20.710
7.9664 21.149
7.9816 21.070
7.9968 21.064
8.0119 21.165
8.0271 21.342
8.0423 21.563
8.0575 21.452
8.0726 21.382
8.0878 21.199
8.1030 21.323
8.1182 21.247
8.1333 21.151
8.1485 21.499
8.1637 21.644
8.1789 21.607
8.1940 21.542
8.2092 21.546
8.2244 21.815
8.2396 21.925
8.2547 22.043
8.2699 21.796
8.2851 21.951
8.3003 21.890
8.3154 21.900
8.3306 21.596
8.3458 22.128
8.3610 22.039
8.3761 21.930
8.3913 21.959
8.4065 22.439
8.4217 22.031
8.4368 21.846
8.4520 22.348
8.4672 22.034
8.4824 22.106
8.4975 21.952
8.5127 21.880
8.5279 22.279
8.5431 21.972
8.5582 22.431
8.5734 22.281
8.5886 22.447
8.6038 21.933
8.6189 22.861
8.6341 22.406
8.6493 22.444
8.6645 22.271
8.6796 22.819
8.6948 22.254
8.7100 22.206
8.7252 22.062
8.7403 22.215
8.7555 22.323
8.7707 22.544
8.7859 22.394
8.8010 22.650
8.8162 22.445
8.8314 22.934
8.8466 22.747
8.8617 22.433
8.8769 22.945
8.8921 22.301
8.9073 22.457
8.9224 22.556
8.9376 22.916
8.9528 22.579
8.9680 22.680
8.9831 22.523
8.9983 22.619
9.0135 22.563
9.0287 22.641
9.0438 22.809
9.0590 22.812
9.0742 22.602
9.0894 22.823
9.1045 22.652
9.1197 22.673
9.1349 22.582
9.1501 22.520
9.1652 22.919
9.1804 23.111
9.1956 23.108
9.2108 23.032
9.2259 23.104
9.2411 22.919
9.2563 22.959
9.2715 23.010
9.2866 22.954
9.3018 23.342
9.3170 23.021
9.3322 23.019
9.3473 23.219
9.3625 23.174
9.3777 23.116
9.3929 22.851
9.4080 22.889
9.4232 23.091
9.4384 23.315
9.4536 23.349
9.4687 23.297
9.4839 23.383
9.4991 23.350
9.5143 23.168
9.5294 23.243
9.5446 23.132
9.5598 23.283
9.5750 23.569
9.5901 23.510
9.6053 23.312
9.6205 23.314
9.6357 23.522
9.6508 23.633
9.6660 23.793
9.6812 23.718
9.6964 23.854
9.7115 24.055
9.7267 24.141
9.7419 24.159
9.7571 23.744
9.7722 23.619
9.7874 23.977
9.8026 23.844
9.8178 23.697
9.8329 23.675
9.8481 23.549
9.8633 23.379
9.8785 23.261
9.8936 23.599
9.9088 23.683
9.9240 23.492
9.9392 23.324
9.9543 23.396
9.9695 23.301
9.9847 23.194
9.9999 23.320
10.0150 23.137
10.0302 23.121
10.0454 23.424
10.0606 23.311
10.0757 23.518
10.0909 23.493
10.1061 23.585
10.1213 23.704
10.1364 23.766
10.1516 23.984
10.1668 23.764
10.1820 23.505
10.1971 23.504
10.2123 23.213
10.2275 23.244
10.2427 23.300
10.2578 23.120
10.2730 22.917
10.2882 22.955
10.3034 23.275
10.3185 23.163
10.3337 22.925
10.3489 22.802
10.3641 22.988
10.3792 22.984
10.3944 22.792
10.4096 22.553
10.4248 22.940
10.4399 23.023
10.4551 23.240
10.4703 23.028
10.4855 22.982
10.5006 22.844
10.5158 22.604
10.5310 22.717
10.5462 22.761
10.5613 22.752
10.5765 22.639
10.5917 22.448
10.6069 22.243
10.6220 22.515
10.6372 22.744
10.6524 22.965
10.6676 22.899
10.6827 22.956
10.6979 22.645
10.7131 22.711
10.7283 22.703
10.7434 22.825
10.7586 22.584
10.7738 22.304
10.7890 22.111
10.8041 22.217
10.8193 22.322
10.8345 22.076
10.8497 22.011
10.8648 22.187
10.8800 22.490
10.8952 22.581
10.9104 22.432
10.9255 22.607
10.9407 22.576
10.9559 22.234
10.9711 22.211
10.9862 22.204
11.0014 22.543
11.0166 22.280
11.0318 22.226
11.0469 22.100
11.0621 22.334
11.0773 21.934
11.0925 21.760
11.1076 21.734
11.1228 21.785
11.1380 21.683
11.1532 21.943
11.1683 22.086
11.1835 21.574
11.1987 21.794
11.2139 21.941
11.2290 21.756
11.2442 21.831
11.2594 21.693
11.2746 21.828
11.2897 21.727
11.3049 21.613
11.3201 21.737
11.3353 21.822
11.3504 21.600
11.3656 21.552
11.3808 21.693
11.3960 21.567
11.4111 21.285
11.4263 21.339
11.4415 21.635
11.4567 21.265
11.4718 21.203
11.4870 21.087
11.5022 21.156
11.5174 21.322
11.5325 21.311
11.5477 21.243
11.5629 20.922
11.5781 20.985
11.5932 20.898
11.6084 21.065
11.6236 20.862
11.6388 20.906
11.6539 20.749
11.6691 20.708
11.6843 20.503
11.6995 20.489
11.7146 20.804
11.7298 20.606
11.7450 20.395
11.7602 20.471
11.7753 20.499
11.7905 20.276
11.8057 20.271
11.8209 20.149
11.8360 20.250
11.8512 20.137
11.8664 19.658
11.8816 19.693
11.8967 19.666
11.9119 19.675
11.9271 19.799
11.9423 19.855
11.9574 19.709
11.9726 19.426
11.9878 19.240
12.0030 19.621
12.0181 19.575
12.0333 18.928
12.0485 19.024
12.0637 18.884
12.0788 19.031
12.0940 18.950
12.1092 19.014
12.1244 18.959
12.1395 18.765
12.1547 18.390
12.1699 18.385
12.1851 18.300
12.2002 18.287
12.2154 18.124
12.2306 18.028
12.2458 17.772
12.2609 17.396
12.2761 17.479
12.2913 17.872
12.3065 17.866
12.3216 18.133
12.3368 17.855
12.3520 17.692
12.3672 17.459
12.3823 17.388
12.3975 17.174
12.4127 16.943
12.4279 17.073
12.4430 17.014
12.4582 17.244
12.4734 16.999
12.4886 16.731
12.5037 16.599
12.5189 16.627
12.5341 16.670
12.5493 16.560
12.5644 16.213
12.5796 16.075
12.5948 16.179
12.6100 16.177
12.6251 16.186
12.6403 16.185
12.6555 16.011
12.6707 15.808
12.6858 15.649
12.7010 15.787
12.7162 15.824
12.7314 15.592
12.7465 15.578
12.7617 15.570
12.7769 15.286
12.7921 15.288
12.8072 15.274
12.8224 15.211
12.8376 15.066
12.8528 15.134
12.8679 15.066
12.8831 14.813
12.8983 14.648
12.9135 14.591
12.9286 14.729
12.9438 14.659
12.9590 14.492
12.9742 14.360
12.9893 14.521
13.0045 14.293
13.0197 13.818
13.0349 13.915
13.0500 14.127
13.0652 14.088
13.0804 14.030
13.0956 14.208
13.1107 14.165
13.1259 14.039
13.1411 13.792
13.1563 13.339
13.1714 13.275
13.1866 13.568
13.2018 13.763
13.2170 13.619
13.2321 13.629
13.2473 13.648
13.2625 13.597
13.2777 13.581
13.2928 13.289
13.3080 13.300
13.3232 13.562
13.3384 13.664
13.3535 13.554
13.3687 13.242
13.3839 13.139
13.3991 13.189
13.4142 13.169
13.4294 12.979
13.4446 12.841
13.4598 12.854
13.4749 12.506
13.4901 12.553
13.5053 12.662
13.5205 12.613
13.5356 12.634
13.5508 12.587
13.5660 12.487
13.5812 12.333
13.5963 12.342
13.6115 12.313
13.6267 12.119
13.6419 12.195
13.6570 12.300
13.6722 12.290
13.6874 12.206
13.7026 12.106
13.7177 11.835
13.7329 11.949
13.7481 12.170
13.7633 12.269
13.7784 12.435
13.7936 12.128
13.8088 11.991
13.8239 12.100
13.8391 12.308
13.8543 12.357
13.8695 12.381
13.8846 12.339
13.8998 12.242
13.9150 12.063
13.9302 11.753
13.9453 11.935
13.9605 11.973
13.9757 11.886
13.9909 11.869
14.0060 11.767
14.0212 11.674
14.0364 11.674
14.0516 11.703
14.0667 11.432
14.0819 11.446
14.0971 11.414
14.1123 11.592
14.1274 11.475
14.1426 11.491
14.1578 11.757
14.1730 11.689
14.1881 11.548
14.2033 11.312
14.2185 11.425
14.2337 11.557
14.2488 11.509
14.2640 11.617
14.2792 11.894
14.2944 11.638
14.3095 11.812
14.3247 12.361
14.3399 12.620
14.3551 12.907
14.3702 12.836
14.3854 13.366
14.4006 13.422
14.4158 13.544
14.4309 13.370
14.4461 12.913
14.4613 12.877
14.4765 12.841
14.4916 12.573
14.5068 12.331
14.5220 11.977
14.5372 11.662
14.5523 11.350
14.5675 11.532
14.5827 11.209
14.5979 11.233
14.6130 11.122
14.6282 11.048
14.6434 10.946
14.6586 10.888
14.6737 10.864
14.6889 11.357
14.7041 11.227
14.7193 10.824
14.7344 10.729
14.7496 10.889
14.7648 11.073
14.7800 10.601
14.7951 10.630
14.8103 10.746
14.8255 10.499
14.8407 10.248
14.8558 10.684
14.8710 10.723
14.8862 10.899
14.9014 10.628
14.9165 10.812
14.9317 10.773
14.9469 10.799
14.9621 10.376
14.9772 10.505
14.9924 10.324
15.0076 10.279
15.0228 10.972
15.0379 10.364
15.0531 10.472
15.0683 10.594
15.0835 9.990
15.0986 10.649
15.1138 10.240
15.1290 10.118
15.1442 10.828
15.1593 10.342
15.1745 10.289
15.1897 10.433
15.2049 10.311
15.2200 10.436
15.2352 10.518
15.2504 10.143
15.2656 10.320
15.2807 10.260
15.2959 10.096
15.3111 10.261
15.3263 10.359
15.3414 10.520
15.3566 10.392
15.3718 10.119
15.3870 10.258
15.4021 10.380
15.4173 10.632
15.4325 10.540
15.4477 10.344
15.4628 10.273
15.4780 10.737
15.4932 9.994
15.5084 10.265
15.5235 10.190
15.5387 10.158
15.5539 10.128
15.5691 10.209
15.5842 10.021
15.5994 10.004
15.6146 9.858
15.6298 10.005
15.6449 9.780
15.6601 9.876
15.6753 10.145
15.6905 9.774
15.7056 9.936
15.7208 9.844
15.7360 10.051
15.7512 9.792
15.7663 9.995
15.7815 9.802
15.7967 9.775
15.8119 10.076
15.8270 9.874
15.8422 9.868
15.8574 10.031
15.8726 9.905
15.8877 9.808
15.9029 9.714
15.9181 9.705
15.9333 9.899
15.9484 9.785
15.9636 9.756
15.9788 10.120
15.9940 9.784
16.0091 9.931
16.0243 10.001
16.0395 9.678
16.0547 9.766
16.0698 9.846
16.0850 9.872
16.1002 9.855
16.1154 9.530
16.1305 9.693
16.1457 9.599
16.1609 9.495
16.1761 9.784
16.1912 9.573
16.2064 9.848
16.2216 9.937
16.2368 9.728
16.2519 9.834
16.2671 10.194
16.2823 10.195
16.2975 10.174
16.3126 9.987
16.3278 10.009
16.3430 9.905
16.3582 10.064
16.3733 10.111
16.3885 10.235
16.4037 10.046
16.4189 9.950
16.4340 9.951
16.4492 10.103
16.4644 9.877
16.4796 9.923
16.4947 10.047
16.5099 10.008
16.5251 9.814
16.5403 9.611
16.5554 9.736
16.5706 9.695
16.5858 9.607
16.6010 9.929
16.6161 10.015
16.6313 9.768
16.6465 9.832
16.6617 10.006
16.6768 10.098
16.6920 10.149
16.7072 10.057
16.7224 10.025
16.7375 10.044
16.7527 10.135
16.7679 10.103
16.7831 10.049
16.7982 9.991
16.8134 9.953
16.8286 9.801
16.8438 9.850
16.8589 9.886
16.8741 9.822
16.8893 9.702
16.9045 9.560
16.9196 9.771
16.9348 9.828
16.9500 9.785
16.9652 10.098
16.9803 10.069
16.9955 10.111
17.0107 10.149
17.0259 10.004
17.0410 9.996
17.0562 9.993
17.0714 10.251
17.0866 10.407
17.1017 10.376
17.1169 10.580
17.1321 11.063
17.1473 11.525
17.1624 11.993
17.1776 12.508
17.1928 13.239
17.2080 14.158
17.2231 15.081
17.2383 16.330
17.2535 17.866
17.2687 18.704
17.2838 18.872
17.2990 18.037
17.3142 17.020
17.3294 16.519
17.3445 15.996
17.3597 15.863
17.3749 15.644
17.3901 15.026
17.4052 14.247
17.4204 13.355
17.4356 12.634
17.4508 12.157
17.4659 11.659
17.4811 11.266
17.4963 11.194
17.5115 10.930
17.5266 10.597
17.5418 10.536
17.5570 10.490
17.5722 10.749
17.5873 10.981
17.6025 10.961
17.6177 10.933
17.6329 10.977
17.6480 11.246
17.6632 11.561
17.6784 11.793
17.6936 11.999
17.7087 11.767
17.7239 11.429
17.7391 11.351
17.7543 11.216
17.7694 11.229
17.7846 11.413
17.7998 11.141
17.8150 10.822
17.8301 10.722
17.8453 10.514
17.8605 10.522
17.8757 10.573
17.8908 10.481
17.9060 10.418
17.9212 10.372
17.9364 10.410
17.9515 10.334
17.9667 10.144
17.9819 10.250
17.9971 10.451
18.0122 10.522
18.0274 10.461
18.0426 10.384
18.0578 10.111
18.0729 9.993
18.0881 10.074
18.1033 9.930
18.1185 9.773
18.1336 10.118
18.1488 9.974
18.1640 9.957
18.1792 9.941
18.1943 9.995
18.2095 10.098
18.2247 10.156
18.2399 9.832
18.2550 9.692
18.2702 9.755
18.2854 9.843
18.3006 9.745
18.3157 9.922
18.3309 10.075
18.3461 10.002
18.3613 9.915
18.3764 9.669
18.3916 9.788
18.4068 9.953
18.4220 9.738
18.4371 9.748
18.4523 9.702
18.4675 9.710
18.4827 9.709
18.4978 9.616
18.5130 9.661
18.5282 9.764
18.5434 9.827
18.5585 9.671
18.5737 9.663
18.5889 9.877
18.6041 9.942
18.6192 10.004
18.6344 9.851
18.6496 9.812
18.6648 9.799
18.6799 9.777
18.6951 9.748
18.7103 9.769
18.7255 9.785
18.7406 9.757
18.7558 9.989
18.7710 9.923
18.7862 9.922
18.8013 9.870
18.8165 9.608
18.8317 10.118
18.8469 10.135
18.8620 9.920
18.8772 9.828
18.8924 9.907
18.9076 10.149
18.9227 9.841
18.9379 9.721
18.9531 10.044
18.9683 10.129
18.9834 10.028
18.9986 9.786
19.0138 9.981
19.0290 10.255
19.0441 10.323
19.0593 10.413
19.0745 10.149
19.0897 10.204
19.1048 10.338
19.1200 10.473
19.1352 10.688
19.1504 10.628
19.1655 10.443
19.1807 10.417
19.1959 10.686
19.2111 10.659
19.2262 10.648
19.2414 10.722
19.2566 10.651
19.2718 10.813
19.2869 10.956
19.3021 10.904
19.3173 10.974
19.3325 10.816
19.3476 11.021
19.3628 11.206
19.3780 11.289
19.3932 11.250
19.4083 11.118
19.4235 11.128
19.4387 11.224
19.4539 11.237
19.4690 11.086
19.4842 11.310
19.4994 11.145
19.5146 11.086
19.5297 11.520
19.5449 11.669
19.5601 11.637
19.5753 11.641
19.5904 11.602
19.6056 11.785
19.6208 11.842
19.6360 11.555
19.6511 11.528
19.6663 11.579
19.6815 11.640
19.6967 11.620
19.7118 11.582
19.7270 11.705
19.7422 12.012
19.7574 11.979
19.7725 11.714
19.7877 11.799
19.8029 12.083
19.8180 12.081
19.8332 11.913
19.8484 11.968
19.8636 12.135
19.8787 12.592
19.8939 12.954
19.9091 12.945
19.9243 13.348
19.9394 14.108
19.9546 14.251
19.9698 14.197
19.9850 14.377
20.0001 14.525
20.0153 14.528
20.0305 14.182
20.0457 13.825
20.0608 14.044
20.0760 13.978
20.0912 13.744
20.1064 13.795
20.1215 13.671
20.1367 13.251
20.1519 12.877
20.1671 12.878
20.1822 12.765
20.1974 12.792
20.2126 12.802
20.2278 12.624
20.2429 12.330
20.2581 12.120
20.2733 11.905
20.2885 12.127
20.3036 12.253
20.3188 11.851
20.3340 11.941
20.3492 11.935
20.3643 11.963
20.3795 11.682
20.3947 11.619
20.4099 11.621
20.4250 11.681
20.4402 11.792
20.4554 11.899
20.4706 11.710
20.4857 11.752
20.5009 11.553
20.5161 11.409
20.5313 11.607
20.5464 11.710
20.5616 11.396
20.5768 11.542
20.5920 11.441
20.6071 11.032
20.6223 10.783
20.6375 10.617
20.6527 10.889
20.6678 10.893
20.6830 10.513
20.6982 10.556
20.7134 10.587
20.7285 10.552
20.7437 10.478
20.7589 10.465
20.7741 10.251
20.7892 10.391
20.8044 10.830
20.8196 10.200
20.8348 10.461
20.8499 10.364
20.8651 10.147
20.8803 10.461
20.8955 10.360
20.9106 10.192
20.9258 9.989
20.9410 10.132
20.9562 10.449
20.9713 10.152
20.9865 9.884
21.0017 10.179
21.0169 9.978
21.0320 9.819
21.0472 9.802
21.0624 9.943
21.0776 9.922
21.0927 9.691
21.1079 9.710
21.1231 9.910
21.1383 9.513
21.1534 10.154
21.1686 9.762
21.1838 9.776
21.1990 9.627
21.2141 9.622
21.2293 9.986
21.2445 9.756
21.2597 9.615
21.2748 9.827
21.2900 9.759
21.3052 9.597
21.3204 9.737
21.3355 9.503
21.3507 9.517
21.3659 9.554
21.3811 9.610
21.3962 9.626
21.4114 9.644
21.4266 9.436
21.4418 9.584
21.4569 9.554
21.4721 9.545
21.4873 9.540
21.5025 9.334
21.5176 9.350
21.5328 9.267
21.5480 9.462
21.5632 9.504
21.5783 9.492
21.5935 9.102
21.6087 8.994
21.6239 9.052
21.6390 9.437
21.6542 9.321
21.6694 9.414
21.6846 9.117
21.6997 9.054
21.7149 9.004
21.7301 8.909
21.7453 8.918
21.7604 8.985
21.7756 8.992
21.7908 8.908
21.8060 8.885
21.8211 9.153
21.8363 9.125
21.8515 8.845
21.8667 9.104
21.8818 9.140
21.8970 9.072
21.9122 9.137
21.9274 9.047
21.9425 8.888
21.9577 8.828
21.9729 8.729
21.9881 8.676
22.0032 8.753
22.0184 8.797
22.0336 8.811
22.0488 8.764
22.0639 8.748
22.0791 8.715
22.0943 8.847
22.1095 8.884
22.1246 8.845
22.1398 8.815
22.1550 8.780
22.1702 8.704
22.1853 8.576
22.2005 8.468
22.2157 8.572
22.2309 8.574
22.2460 8.412
22.2612 8.442
22.2764 8.525
22.2916 8.593
22.3067 8.529
22.3219 8.792
22.3371 8.613
22.3523 8.609
22.3674 8.696
22.3826 8.474
22.3978 8.584
22.4130 8.346
22.4281 8.330
22.4433 8.290
22.4585 8.671
22.4737 8.491
22.4888 8.426
22.5040 8.339
22.5192 8.527
22.5344 8.388
22.5495 8.460
22.5647 8.506
22.5799 8.535
22.5951 8.505
22.6102 8.347
22.6254 8.140
22.6406 8.671
22.6558 8.166
22.6709 8.358
22.6861 8.668
22.7013 8.040
22.7165 7.850
22.7316 6.506
