'Id: "" Comment: "" Operator: "Lab Manager" Anode: "Mo" Scantype: "Still (Eiger2R_500K (1D mode))" TimePerStep: "300" X: "11.8" Y: "9.4" Z: "11.284" 
7.2532 18.396
7.2684 18.738
7.2836 19.040
7.2987 19.106
7.3139 18.981
7.3291 18.873
7.3443 19.161
7.3594 19.496
7.3746 18.930
7.3898 18.951
7.4050 19.199
7.4201 19.210
7.4353 19.398
7.4505 19.554
7.4657 19.579
7.4808 19.593
7.4960 19.971
7.5112 19.655
7.5264 19.505
7.5415 19.706
7.5567 19.798
7.5719 20.047
7.5871 20.140
7.6022 20.139
7.6174 20.007
7.6326 20.175
7.6478 19.860
7.6629 19.925
7.6781 19.986
7.6933 20.198
7.7085 20.336
7.7236 20.315
7.7388 20.389
7.7540 20.209
7.7692 20.095
7.7843 20.365
7.7995 20.543
7.8147 20.584
7.8299 20.591
7.8450 21.033
7.8602 20.913
7.8754 20.521
7.8905 20.504
7.9057 20.692
7.9209 21.071
7.9361 20.577
7.9512 20.687
7.9664 21.090
7.9816 20.698
7.9968 20.635
8.0119 20.885
8.0271 21.111
8.0423 20.955
8.0575 21.234
8.0726 21.428
8.0878 20.985
8.1030 20.946
8.1182 21.262
8.1333 20.855
8.1485 21.411
8.1637 21.409
8.1789 21.469
8.1940 21.277
8.2092 21.278
8.2244 21.260
8.2396 21.351
8.2547 21.060
8.2699 21.408
8.2851 21.256
8.3003 21.477
8.3154 21.545
8.3306 22.029
8.3458 21.752
8.3610 21.519
8.3761 21.879
8.3913 21.861
8.4065 21.570
8.4217 22.039
8.4368 21.879
8.4520 21.475
8.4672 21.787
8.4824 22.008
8.4975 22.039
8.5127 22.090
8.5279 22.049
8.5431 22.133
8.5582 22.066
8.5734 22.419
8.5886 22.459
8.6038 21.653
8.6189 22.159
8.6341 22.012
8.6493 22.184
8.6645 22.364
8.6796 22.436
8.6948 22.204
8.7100 22.135
8.7252 22.218
8.7403 22.379
8.7555 22.415
8.7707 22.430
8.7859 22.312
8.8010 22.766
8.8162 22.413
8.8314 22.426
8.8466 22.413
8.8617 22.978
8.8769 22.390
8.8921 22.611
8.9073 22.954
8.9224 22.522
8.9376 22.615
8.9528 22.670
8.9680 22.619
8.9831 22.255
8.9983 22.670
9.0135 22.895
9.0287 22.403
9.0438 22.720
9.0590 22.658
9.0742 22.715
9.0894 23.069
9.1045 23.013
9.1197 23.184
9.1349 22.677
9.1501 22.631
9.1652 22.762
9.1804 22.842
9.1956 23.173
9.2108 23.464
9.2259 23.073
9.2411 22.980
9.2563 22.508
9.2715 22.615
9.2866 22.494
9.3018 22.681
9.3170 23.039
9.3322 22.716
9.3473 22.784
9.3625 23.204
9.3777 22.904
9.3929 22.773
9.4080 22.676
9.4232 23.005
9.4384 23.106
9.4536 23.050
9.4687 22.845
9.4839 22.714
9.4991 23.135
9.5143 23.540
9.5294 23.235
9.5446 23.109
9.5598 23.425
9.5750 23.176
9.5901 23.167
9.6053 23.468
9.6205 23.352
9.6357 23.039
9.6508 23.470
9.6660 23.950
9.6812 23.798
9.6964 23.980
9.7115 23.954
9.7267 23.921
9.7419 24.040
9.7571 23.626
9.7722 23.578
9.7874 23.787
9.8026 23.662
9.8178 23.432
9.8329 23.425
9.8481 23.519
9.8633 23.324
9.8785 23.170
9.8936 23.158
9.9088 23.405
9.9240 23.450
9.9392 23.494
9.9543 23.563
9.9695 23.451
9.9847 23.367
9.9999 23.265
10.0150 23.218
10.0302 23.254
10.0454 23.338
10.0606 23.391
10.0757 23.314
10.0909 23.437
10.1061 23.818
10.1213 23.615
10.1364 23.523
10.1516 23.368
10.1668 23.299
10.1820 23.172
10.1971 22.906
10.2123 23.101
10.2275 23.306
10.2427 23.245
10.2578 23.010
10.2730 22.797
10.2882 23.110
10.3034 23.052
10.3185 23.034
10.3337 23.099
10.3489 22.939
10.3641 22.965
10.3792 22.634
10.3944 22.496
10.4096 23.031
10.4248 22.943
10.4399 22.976
10.4551 22.663
10.4703 22.615
10.4855 22.753
10.5006 22.955
10.5158 22.687
10.5310 22.597
10.5462 22.736
10.5613 22.935
10.5765 22.788
10.5917 22.531
10.6069 22.618
10.6220 22.802
10.6372 23.080
10.6524 22.506
10.6676 22.528
10.6827 22.827
10.6979 22.590
10.7131 22.308
10.7283 22.362
10.7434 22.363
10.7586 22.240
10.7738 22.578
10.7890 22.313
10.8041 22.211
10.8193 21.987
10.8345 22.272
10.8497 22.349
10.8648 22.441
10.8800 22.396
10.8952 21.934
10.9104 22.092
10.9255 22.056
10.9407 22.480
10.9559 22.404
10.9711 21.940
10.9862 22.028
11.0014 22.079
11.0166 21.913
11.0318 21.725
11.0469 22.059
11.0621 22.165
11.0773 21.721
11.0925 21.807
11.1076 22.074
11.1228 22.235
11.1380 22.280
11.1532 22.044
11.1683 22.014
11.1835 22.021
11.1987 21.786
11.2139 21.637
11.2290 21.465
11.2442 21.633
11.2594 21.567
11.2746 21.417
11.2897 21.628
11.3049 21.156
11.3201 21.349
11.3353 21.563
11.3504 21.479
11.3656 21.395
11.3808 21.309
11.3960 21.588
11.4111 21.599
11.4263 21.501
11.4415 21.563
11.4567 21.283
11.4718 21.493
11.4870 21.309
11.5022 21.309
11.5174 21.089
11.5325 21.007
11.5477 21.143
11.5629 21.293
11.5781 21.284
11.5932 20.822
11.6084 20.927
11.6236 21.084
11.6388 20.806
11.6539 20.632
11.6691 20.674
11.6843 20.639
11.6995 20.717
11.7146 21.057
11.7298 20.976
11.7450 20.216
11.7602 20.267
11.7753 20.091
11.7905 20.061
11.8057 20.103
11.8209 20.001
11.8360 19.819
11.8512 20.137
11.8664 19.934
11.8816 19.800
11.8967 19.894
11.9119 19.662
11.9271 19.613
11.9423 19.449
11.9574 19.273
11.9726 19.345
11.9878 18.898
12.0030 18.966
12.0181 18.935
12.0333 18.913
12.0485 19.237
12.0637 19.245
12.0788 18.835
12.0940 18.803
12.1092 18.774
12.1244 18.836
12.1395 18.612
12.1547 18.321
12.1699 18.235
12.1851 18.303
12.2002 18.382
12.2154 18.303
12.2306 17.910
12.2458 17.953
12.2609 17.812
12.2761 17.824
12.2913 17.817
12.3065 17.788
12.3216 17.859
12.3368 17.416
12.3520 17.311
12.3672 17.512
12.3823 17.774
12.3975 17.737
12.4127 17.211
12.4279 17.092
12.4430 17.454
12.4582 17.365
12.4734 17.201
12.4886 16.733
12.5037 16.438
12.5189 16.397
12.5341 16.658
12.5493 16.623
12.5644 16.599
12.5796 16.412
12.5948 16.184
12.6100 15.908
12.6251 15.878
12.6403 15.832
12.6555 15.502
12.6707 15.753
12.6858 15.804
12.7010 15.492
12.7162 15.620
12.7314 15.599
12.7465 15.549
12.7617 15.188
12.7769 15.340
12.7921 15.273
12.8072 15.202
12.8224 15.560
12.8376 15.195
12.8528 14.865
12.8679 14.887
12.8831 14.789
12.8983 14.696
12.9135 14.498
12.9286 14.369
12.9438 14.590
12.9590 14.544
12.9742 14.428
12.9893 14.353
13.0045 14.331
13.0197 14.320
13.0349 14.584
13.0500 14.249
13.0652 13.941
13.0804 14.325
13.0956 14.156
13.1107 13.867
13.1259 13.874
13.1411 13.973
13.1563 13.979
13.1714 13.579
13.1866 13.432
13.2018 13.467
13.2170 13.335
13.2321 13.449
13.2473 13.476
13.2625 13.422
13.2777 13.360
13.2928 13.372
13.3080 13.395
13.3232 13.122
13.3384 12.897
13.3535 13.076
13.3687 13.195
13.3839 13.150
13.3991 13.141
13.4142 13.181
13.4294 13.012
13.4446 12.790
13.4598 12.752
13.4749 12.778
13.4901 12.858
13.5053 12.978
13.5205 12.933
13.5356 12.668
13.5508 12.572
13.5660 12.410
13.5812 12.289
13.5963 12.369
13.6115 12.389
13.6267 12.482
13.6419 12.448
13.6570 12.377
13.6722 12.361
13.6874 12.216
13.7026 12.265
13.7177 12.196
13.7329 12.047
13.7481 11.841
13.7633 12.128
13.7784 12.232
13.7936 12.093
13.8088 12.043
13.8239 12.181
13.8391 12.279
13.8543 12.242
13.8695 12.186
13.8846 12.289
13.8998 12.137
13.9150 12.168
13.9302 12.100
13.9453 12.252
13.9605 12.115
13.9757 11.757
13.9909 11.631
14.0060 11.576
14.0212 11.749
14.0364 11.741
14.0516 11.654
14.0667 11.364
14.0819 11.289
14.0971 11.611
14.1123 11.577
14.1274 11.363
14.1426 11.434
14.1578 11.384
14.1730 11.438
14.1881 11.430
14.2033 11.799
14.2185 11.709
14.2337 11.568
14.2488 12.198
14.2640 11.993
14.2792 12.389
14.2944 12.071
14.3095 12.047
14.3247 12.245
14.3399 12.639
14.3551 12.577
14.3702 12.714
14.3854 13.189
14.4006 13.061
14.4158 13.224
14.4309 12.982
14.4461 12.800
14.4613 12.490
14.4765 12.361
14.4916 12.363
14.5068 12.397
14.5220 11.907
14.5372 11.595
14.5523 11.128
14.5675 10.922
14.5827 11.095
14.5979 11.124
14.6130 10.977
14.6282 10.809
14.6434 10.801
14.6586 11.122
14.6737 10.787
14.6889 10.861
14.7041 10.889
14.7193 10.829
14.7344 10.852
14.7496 10.502
14.7648 10.623
14.7800 10.736
14.7951 10.265
14.8103 10.478
14.8255 10.364
14.8407 10.125
14.8558 10.595
14.8710 10.726
14.8862 10.429
14.9014 10.671
14.9165 10.916
14.9317 10.553
14.9469 10.759
14.9621 10.512
14.9772 10.181
14.9924 10.493
15.0076 10.477
15.0228 10.387
15.0379 10.628
15.0531 10.627
15.0683 10.592
15.0835 10.204
15.0986 10.379
15.1138 10.410
15.1290 10.553
15.1442 10.180
15.1593 9.975
15.1745 10.170
15.1897 10.299
15.2049 10.404
15.2200 10.496
15.2352 10.415
15.2504 10.146
15.2656 10.355
15.2807 9.998
15.2959 9.944
15.3111 10.173
15.3263 10.317
15.3414 10.205
15.3566 10.312
15.3718 10.277
15.3870 10.132
15.4021 10.187
15.4173 10.371
15.4325 10.603
15.4477 9.997
15.4628 10.231
15.4780 10.503
15.4932 10.583
15.5084 10.084
15.5235 10.257
15.5387 9.957
15.5539 10.173
15.5691 9.959
15.5842 10.172
15.5994 10.140
15.6146 9.896
15.6298 9.776
15.6449 9.863
15.6601 9.929
15.6753 9.906
15.6905 9.953
15.7056 9.936
15.7208 9.672
15.7360 9.595
15.7512 9.899
15.7663 9.660
15.7815 9.739
15.7967 9.685
15.8119 9.492
15.8270 9.925
15.8422 9.759
15.8574 10.017
15.8726 9.555
15.8877 9.615
15.9029 9.641
15.9181 9.531
15.9333 10.061
15.9484 9.758
15.9636 9.700
15.9788 9.837
15.9940 9.707
16.0091 9.596
16.0243 9.702
16.0395 9.934
16.0547 9.589
16.0698 9.680
16.0850 9.552
16.1002 9.515
16.1154 9.518
16.1305 9.571
16.1457 9.703
16.1609 9.788
16.1761 10.001
16.1912 9.889
16.2064 9.704
16.2216 9.606
16.2368 9.642
16.2519 9.776
16.2671 9.847
16.2823 9.877
16.2975 10.085
16.3126 9.909
16.3278 9.923
16.3430 9.867
16.3582 9.738
16.3733 9.774
16.3885 9.929
16.4037 9.833
16.4189 9.742
16.4340 9.863
16.4492 9.970
16.4644 9.970
16.4796 10.052
16.4947 9.997
16.5099 9.819
16.5251 9.561
16.5403 9.581
16.5554 9.553
16.5706 9.726
16.5858 9.746
16.6010 9.660
16.6161 9.736
16.6313 9.930
16.6465 9.935
16.6617 10.006
16.6768 9.741
16.6920 9.642
16.7072 9.864
16.7224 9.888
16.7375 9.880
16.7527 9.937
16.7679 9.946
16.7831 9.994
16.7982 9.903
16.8134 9.706
16.8286 9.780
16.8438 9.847
16.8589 9.705
16.8741 9.814
16.8893 9.830
16.9045 9.933
16.9196 10.057
16.9348 10.064
16.9500 9.859
16.9652 9.722
16.9803 9.916
16.9955 9.918
17.0107 9.921
17.0259 9.927
17.0410 10.078
17.0562 10.259
17.0714 10.124
17.0866 10.457
17.1017 10.794
17.1169 10.616
17.1321 10.894
17.1473 11.526
17.1624 11.884
17.1776 12.230
17.1928 12.950
17.2080 13.982
17.2231 15.203
17.2383 16.499
17.2535 17.730
17.2687 18.498
17.2838 18.986
17.2990 18.358
17.3142 17.163
17.3294 16.463
17.3445 16.279
17.3597 16.344
17.3749 15.984
17.3901 15.216
17.4052 14.225
17.4204 13.374
17.4356 12.546
17.4508 12.038
17.4659 12.002
17.4811 11.754
17.4963 11.551
17.5115 11.557
17.5266 11.184
17.5418 11.078
17.5570 11.251
17.5722 11.170
17.5873 11.251
17.6025 11.305
17.6177 11.346
17.6329 11.436
17.6480 11.447
17.6632 11.581
17.6784 11.580
17.6936 11.586
17.7087 11.376
17.7239 11.260
17.7391 11.351
17.7543 11.123
17.7694 10.978
17.7846 11.102
17.7998 11.181
17.8150 10.870
17.8301 10.694
17.8453 10.471
17.8605 10.504
17.8757 10.494
17.8908 10.455
17.9060 10.431
17.9212 10.298
17.9364 10.049
17.9515 9.989
17.9667 10.178
17.9819 10.165
17.9971 10.213
18.0122 10.316
18.0274 10.173
18.0426 10.016
18.0578 10.102
18.0729 10.204
18.0881 10.072
18.1033 9.811
18.1185 9.727
18.1336 9.858
18.1488 9.766
18.1640 10.002
18.1792 10.249
18.1943 9.839
18.2095 9.570
18.2247 9.699
18.2399 10.030
18.2550 9.930
18.2702 9.824
18.2854 10.049
18.3006 9.912
18.3157 9.840
18.3309 10.054
18.3461 10.050
18.3613 9.791
18.3764 9.740
18.3916 9.955
18.4068 9.988
18.4220 9.683
18.4371 9.731
18.4523 9.753
18.4675 10.114
18.4827 10.227
18.4978 9.963
18.5130 10.061
18.5282 9.746
18.5434 9.682
18.5585 9.715
18.5737 9.841
18.5889 9.863
18.6041 9.862
18.6192 9.765
18.6344 9.697
18.6496 9.880
18.6648 9.997
18.6799 10.011
18.6951 9.800
18.7103 9.616
18.7255 9.861
18.7406 9.882
18.7558 9.734
18.7710 9.708
18.7862 9.857
18.8013 9.600
18.8165 9.704
18.8317 9.957
18.8469 10.060
18.8620 9.973
18.8772 9.825
18.8924 10.031
18.9076 10.236
18.9227 10.099
18.9379 9.935
18.9531 9.909
18.9683 9.956
18.9834 9.966
18.9986 10.153
19.0138 10.349
19.0290 10.374
19.0441 10.269
19.0593 10.106
19.0745 10.179
19.0897 10.354
19.1048 10.263
19.1200 10.472
19.1352 10.546
19.1504 10.510
19.1655 10.427
19.1807 10.454
19.1959 10.791
19.2111 10.809
19.2262 10.798
19.2414 10.843
19.2566 10.884
19.2718 10.766
19.2869 10.827
19.3021 10.977
19.3173 10.929
19.3325 10.900
19.3476 10.988
19.3628 11.049
19.3780 11.157
19.3932 11.081
19.4083 11.078
19.4235 11.480
19.4387 11.331
19.4539 11.113
19.4690 11.153
19.4842 11.202
19.4994 11.407
19.5146 11.296
19.5297 11.380
19.5449 11.477
19.5601 11.548
19.5753 11.556
19.5904 11.601
19.6056 11.606
19.6208 11.588
19.6360 11.695
19.6511 11.770
19.6663 11.699
19.6815 11.687
19.6967 11.950
19.7118 11.828
19.7270 11.604
19.7422 11.622
19.7574 11.767
19.7725 11.748
19.7877 11.728
19.8029 11.940
19.8180 12.096
19.8332 12.063
19.8484 12.168
19.8636 12.395
19.8787 12.636
19.8939 13.061
19.9091 13.136
19.9243 13.423
19.9394 13.867
19.9546 14.104
19.9698 14.293
19.9850 14.532
20.0001 14.609
20.0153 14.282
20.0305 14.055
20.0457 13.865
20.0608 13.410
20.0760 13.210
20.0912 13.463
20.1064 13.704
20.1215 13.491
20.1367 13.234
20.1519 13.014
20.1671 12.915
20.1822 12.989
20.1974 12.915
20.2126 12.679
20.2278 12.681
20.2429 12.664
20.2581 12.621
20.2733 12.452
20.2885 12.020
20.3036 12.134
20.3188 12.259
20.3340 12.074
20.3492 12.142
20.3643 12.027
20.3795 11.751
20.3947 11.720
20.4099 11.724
20.4250 11.887
20.4402 11.869
20.4554 12.265
20.4706 12.170
20.4857 11.951
20.5009 11.784
20.5161 11.431
20.5313 11.326
20.5464 11.564
20.5616 11.798
20.5768 11.784
20.5920 11.224
20.6071 11.059
20.6223 11.020
20.6375 10.995
20.6527 10.753
20.6678 10.573
20.6830 10.615
20.6982 10.699
20.7134 10.644
20.7285 10.580
20.7437 10.285
20.7589 10.428
20.7741 10.305
20.7892 10.240
20.8044 10.406
20.8196 10.210
20.8348 10.440
20.8499 10.152
20.8651 10.235
20.8803 10.527
20.8955 10.291
20.9106 10.010
20.9258 10.184
20.9410 10.367
20.9562 10.099
20.9713 9.896
20.9865 10.102
21.0017 10.140
21.0169 10.042
21.0320 10.041
21.0472 10.083
21.0624 9.653
21.0776 9.779
21.0927 9.729
21.1079 10.171
21.1231 10.141
21.1383 10.087
21.1534 10.111
21.1686 9.906
21.1838 9.827
21.1990 9.669
21.2141 9.554
21.2293 10.046
21.2445 9.861
21.2597 9.687
21.2748 9.687
21.2900 9.780
21.3052 9.592
21.3204 9.597
21.3355 9.849
21.3507 9.588
21.3659 9.523
21.3811 9.782
21.3962 9.644
21.4114 9.677
21.4266 9.078
21.4418 9.562
21.4569 9.407
21.4721 9.240
21.4873 9.226
21.5025 9.352
21.5176 9.472
21.5328 9.542
21.5480 9.530
21.5632 9.309
21.5783 9.353
21.5935 9.232
21.6087 9.528
21.6239 9.309
21.6390 9.374
21.6542 9.322
21.6694 9.281
21.6846 9.128
21.6997 9.250
21.7149 9.222
21.7301 8.993
21.7453 9.062
21.7604 9.082
21.7756 9.061
21.7908 9.011
21.8060 9.065
21.8211 9.110
21.8363 9.007
21.8515 9.204
21.8667 9.075
21.8818 8.829
21.8970 8.824
21.9122 8.958
21.9274 9.144
21.9425 8.787
21.9577 8.677
21.9729 9.000
21.9881 8.900
22.0032 8.839
22.0184 8.896
22.0336 8.686
22.0488 8.626
22.0639 8.660
22.0791 8.723
22.0943 8.695
22.1095 8.657
22.1246 8.800
22.1398 8.571
22.1550 8.382
22.1702 8.598
22.1853 8.689
22.2005 8.538
22.2157 8.380
22.2309 8.497
22.2460 8.580
22.2612 8.785
22.2764 8.988
22.2916 8.731
22.3067 8.515
22.3219 8.558
22.3371 8.441
22.3523 8.578
22.3674 8.259
22.3826 8.334
22.3978 8.526
22.4130 8.583
22.4281 8.617
22.4433 8.417
22.4585 8.364
22.4737 8.213
22.4888 8.394
22.5040 8.522
22.5192 8.390
22.5344 8.565
22.5495 8.495
22.5647 8.394
22.5799 8.373
22.5951 8.458
22.6102 8.468
22.6254 8.511
22.6406 8.395
22.6558 8.476
22.6709 8.621
22.6861 8.260
22.7013 8.258
22.7165 7.873
22.7316 6.429
