'Id: "" Comment: "" Operator: "Lab Manager" Anode: "Mo" Scantype: "Still (Eiger2R_500K (1D mode))" TimePerStep: "300" X: "11.8" Y: "9.4" Z: "11.284" 
7.2532 18.759
7.2684 18.890
7.2836 18.835
7.2987 18.878
7.3139 18.716
7.3291 18.850
7.3443 18.626
7.3594 19.374
7.3746 19.021
7.3898 19.340
7.4050 19.303
7.4201 19.103
7.4353 19.508
7.4505 19.355
7.4657 19.340
7.4808 19.248
7.4960 19.287
7.5112 19.724
7.5264 19.903
7.5415 19.534
7.5567 19.585
7.5719 19.897
7.5871 19.914
7.6022 19.764
7.6174 19.817
7.6326 19.643
7.6478 19.695
7.6629 19.991
7.6781 20.072
7.6933 19.705
7.7085 19.715
7.7236 19.881
7.7388 20.277
7.7540 20.155
7.7692 20.101
7.7843 20.575
7.7995 20.532
7.8147 20.463
7.8299 20.525
7.8450 20.367
7.8602 20.224
7.8754 20.614
7.8905 20.718
7.9057 20.623
7.9209 20.560
7.9361 20.684
7.9512 20.867
7.9664 21.066
7.9816 20.900
7.9968 20.899
8.0119 20.728
8.0271 20.638
8.0423 20.784
8.0575 20.904
8.0726 21.104
8.0878 20.917
8.1030 20.764
8.1182 21.163
8.1333 21.113
8.1485 21.334
8.1637 21.199
8.1789 20.832
8.1940 21.310
8.2092 21.547
8.2244 21.263
8.2396 21.035
8.2547 21.488
8.2699 21.743
8.2851 21.734
8.3003 22.000
8.3154 21.529
8.3306 21.658
8.3458 21.615
8.3610 21.143
8.3761 21.722
8.3913 22.025
8.4065 21.646
8.4217 21.567
8.4368 22.119
8.4520 21.377
8.4672 22.101
8.4824 21.816
8.4975 22.028
8.5127 22.039
8.5279 22.303
8.5431 21.906
8.5582 22.179
8.5734 22.002
8.5886 22.298
8.6038 22.058
8.6189 21.761
8.6341 21.539
8.6493 21.710
8.6645 22.055
8.6796 22.338
8.6948 22.121
8.7100 22.310
8.7252 22.264
8.7403 22.735
8.7555 22.591
8.7707 22.337
8.7859 22.026
8.8010 22.200
8.8162 22.295
8.8314 22.092
8.8466 22.303
8.8617 22.175
8.8769 22.272
8.8921 22.524
8.9073 22.055
8.9224 22.210
8.9376 22.264
8.9528 22.538
8.9680 22.566
8.9831 22.469
8.9983 22.372
9.0135 22.933
9.0287 22.920
9.0438 22.527
9.0590 22.689
9.0742 22.820
9.0894 22.716
9.1045 22.414
9.1197 22.634
9.1349 22.668
9.1501 22.827
9.1652 23.229
9.1804 22.903
9.1956 22.547
9.2108 22.176
9.2259 22.403
9.2411 22.734
9.2563 22.875
9.2715 22.924
9.2866 22.788
9.3018 22.640
9.3170 22.643
9.3322 22.598
9.3473 23.200
9.3625 23.247
9.3777 22.920
9.3929 23.003
9.4080 23.163
9.4232 22.731
9.4384 22.538
9.4536 22.608
9.4687 22.722
9.4839 23.185
9.4991 23.113
9.5143 22.807
9.5294 22.967
9.5446 23.296
9.5598 23.330
9.5750 23.558
9.5901 23.462
9.6053 23.390
9.6205 23.328
9.6357 23.176
9.6508 23.469
9.6660 23.475
9.6812 23.706
9.6964 23.819
9.7115 23.767
9.7267 23.770
9.7419 24.112
9.7571 23.881
9.7722 23.422
9.7874 23.768
9.8026 23.747
9.8178 23.462
9.8329 23.458
9.8481 23.150
9.8633 23.082
9.8785 23.075
9.8936 23.041
9.9088 23.236
9.9240 23.056
9.9392 23.092
9.9543 23.334
9.9695 23.276
9.9847 23.028
9.9999 23.040
10.0150 23.358
10.0302 23.279
10.0454 23.404
10.0606 23.464
10.0757 23.307
10.0909 23.297
10.1061 23.136
10.1213 23.336
10.1364 23.376
10.1516 23.455
10.1668 23.498
10.1820 23.495
10.1971 23.106
10.2123 22.863
10.2275 22.690
10.2427 22.456
10.2578 22.691
10.2730 22.857
10.2882 22.648
10.3034 22.715
10.3185 22.875
10.3337 23.006
10.3489 22.944
10.3641 22.615
10.3792 22.711
10.3944 22.682
10.4096 22.732
10.4248 22.631
10.4399 22.628
10.4551 22.692
10.4703 22.409
10.4855 22.629
10.5006 22.459
10.5158 22.426
10.5310 22.267
10.5462 22.089
10.5613 22.729
10.5765 22.733
10.5917 22.575
10.6069 22.462
10.6220 22.362
10.6372 22.656
10.6524 22.649
10.6676 22.477
10.6827 22.244
10.6979 22.103
10.7131 22.257
10.7283 22.079
10.7434 21.845
10.7586 22.183
10.7738 22.397
10.7890 22.214
10.8041 22.178
10.8193 21.842
10.8345 21.836
10.8497 22.089
10.8648 21.875
10.8800 21.870
10.8952 21.913
10.9104 22.200
10.9255 21.876
10.9407 21.516
10.9559 21.472
10.9711 21.381
10.9862 21.890
11.0014 21.938
11.0166 22.154
11.0318 22.245
11.0469 22.023
11.0621 21.835
11.0773 22.196
11.0925 21.722
11.1076 21.918
11.1228 21.728
11.1380 21.887
11.1532 21.864
11.1683 21.756
11.1835 21.805
11.1987 21.595
11.2139 21.585
11.2290 21.691
11.2442 21.545
11.2594 21.211
11.2746 21.454
11.2897 21.429
11.3049 21.247
11.3201 21.372
11.3353 21.336
11.3504 21.211
11.3656 21.291
11.3808 21.281
11.3960 21.312
11.4111 21.173
11.4263 21.282
11.4415 20.957
11.4567 21.481
11.4718 21.456
11.4870 21.292
11.5022 21.353
11.5174 21.191
11.5325 20.874
11.5477 20.908
11.5629 20.756
11.5781 20.838
11.5932 20.920
11.6084 20.997
11.6236 20.675
11.6388 20.561
11.6539 20.546
11.6691 20.647
11.6843 20.684
11.6995 20.425
11.7146 20.440
11.7298 20.372
11.7450 20.221
11.7602 20.088
11.7753 19.813
11.7905 19.947
11.8057 20.005
11.8209 19.998
11.8360 19.942
11.8512 19.642
11.8664 19.810
11.8816 20.001
11.8967 19.723
11.9119 19.564
11.9271 19.736
11.9423 19.449
11.9574 19.328
11.9726 19.140
11.9878 19.179
12.0030 19.683
12.0181 19.377
12.0333 18.671
12.0485 19.161
12.0637 19.189
12.0788 19.061
12.0940 18.948
12.1092 18.934
12.1244 18.644
12.1395 18.433
12.1547 18.609
12.1699 18.445
12.1851 18.305
12.2002 18.265
12.2154 18.213
12.2306 18.041
12.2458 17.580
12.2609 17.822
12.2761 18.116
12.2913 18.083
12.3065 17.873
12.3216 17.796
12.3368 17.451
12.3520 16.986
12.3672 17.000
12.3823 17.024
12.3975 17.140
12.4127 17.111
12.4279 16.926
12.4430 17.045
12.4582 17.191
12.4734 16.910
12.4886 16.657
12.5037 16.694
12.5189 16.720
12.5341 16.511
12.5493 16.695
12.5644 16.572
12.5796 16.193
12.5948 15.989
12.6100 16.114
12.6251 16.179
12.6403 15.925
12.6555 15.840
12.6707 15.936
12.6858 15.794
12.7010 15.681
12.7162 15.460
12.7314 15.370
12.7465 15.450
12.7617 15.430
12.7769 15.231
12.7921 15.274
12.8072 15.340
12.8224 15.304
12.8376 15.199
12.8528 14.940
12.8679 14.675
12.8831 14.737
12.8983 14.775
12.9135 14.765
12.9286 14.745
12.9438 14.381
12.9590 14.383
12.9742 14.334
12.9893 14.439
13.0045 14.510
13.0197 14.294
13.0349 14.241
13.0500 13.772
13.0652 13.413
13.0804 13.620
13.0956 13.867
13.1107 13.581
13.1259 13.372
13.1411 13.703
13.1563 13.712
13.1714 13.520
13.1866 13.605
13.2018 13.543
13.2170 13.194
13.2321 13.302
13.2473 13.655
13.2625 13.522
13.2777 13.538
13.2928 13.484
13.3080 13.155
13.3232 13.210
13.3384 13.199
13.3535 13.135
13.3687 13.228
13.3839 13.330
13.3991 13.102
13.4142 12.765
13.4294 12.806
13.4446 12.760
13.4598 12.602
13.4749 12.671
13.4901 12.655
13.5053 12.528
13.5205 12.619
13.5356 12.588
13.5508 12.371
13.5660 12.483
13.5812 12.594
13.5963 12.406
13.6115 12.286
13.6267 12.440
13.6419 12.351
13.6570 12.383
13.6722 12.327
13.6874 12.195
13.7026 12.204
13.7177 12.338
13.7329 12.326
13.7481 11.945
13.7633 11.871
13.7784 12.066
13.7936 12.192
13.8088 12.263
13.8239 12.163
13.8391 12.413
13.8543 12.178
13.8695 12.056
13.8846 12.212
13.8998 12.255
13.9150 12.180
13.9302 12.158
13.9453 12.133
13.9605 12.243
13.9757 11.862
13.9909 11.822
14.0060 11.563
14.0212 11.446
14.0364 11.714
14.0516 11.703
14.0667 11.515
14.0819 11.462
14.0971 11.691
14.1123 11.571
14.1274 11.794
14.1426 11.749
14.1578 11.683
14.1730 11.578
14.1881 11.438
14.2033 11.465
14.2185 11.550
14.2337 11.721
14.2488 11.672
14.2640 11.810
14.2792 12.127
14.2944 11.848
14.3095 11.979
14.3247 12.387
14.3399 12.718
14.3551 12.299
14.3702 12.312
14.3854 12.946
14.4006 12.971
14.4158 12.968
14.4309 12.706
14.4461 12.810
14.4613 12.469
14.4765 12.256
14.4916 12.105
14.5068 11.655
14.5220 11.619
14.5372 11.272
14.5523 11.456
14.5675 11.531
14.5827 11.057
14.5979 10.587
14.6130 10.607
14.6282 10.675
14.6434 10.653
14.6586 10.838
14.6737 10.745
14.6889 10.534
14.7041 10.478
14.7193 11.040
14.7344 10.970
14.7496 10.273
14.7648 10.461
14.7800 10.464
14.7951 10.564
14.8103 10.389
14.8255 10.452
14.8407 10.403
14.8558 10.545
14.8710 10.512
14.8862 10.427
14.9014 10.495
14.9165 10.698
14.9317 10.867
14.9469 10.136
14.9621 10.227
14.9772 10.437
14.9924 9.956
15.0076 10.355
15.0228 9.795
15.0379 10.238
15.0531 10.199
15.0683 10.311
15.0835 10.064
15.0986 10.224
15.1138 10.017
15.1290 10.146
15.1442 10.470
15.1593 10.051
15.1745 10.559
15.1897 10.144
15.2049 9.971
15.2200 9.865
15.2352 10.287
15.2504 9.733
15.2656 10.155
15.2807 10.029
15.2959 10.174
15.3111 9.790
15.3263 10.235
15.3414 10.238
15.3566 9.996
15.3718 10.250
15.3870 10.064
15.4021 10.221
15.4173 10.091
15.4325 10.052
15.4477 10.143
15.4628 10.147
15.4780 10.087
15.4932 10.306
15.5084 9.841
15.5235 9.983
15.5387 10.186
15.5539 9.996
15.5691 10.213
15.5842 10.092
15.5994 9.675
15.6146 9.828
15.6298 9.963
15.6449 9.733
15.6601 9.722
15.6753 9.782
15.6905 9.841
15.7056 9.731
15.7208 9.430
15.7360 9.783
15.7512 9.575
15.7663 9.532
15.7815 9.784
15.7967 9.550
15.8119 9.572
15.8270 9.805
15.8422 9.660
15.8574 9.262
15.8726 9.621
15.8877 9.637
15.9029 9.502
15.9181 9.556
15.9333 9.514
15.9484 9.728
15.9636 9.692
15.9788 9.669
15.9940 9.863
16.0091 9.628
16.0243 9.661
16.0395 9.517
16.0547 9.556
16.0698 9.174
16.0850 9.595
16.1002 9.542
16.1154 9.414
16.1305 9.737
16.1457 9.819
16.1609 9.357
16.1761 9.031
16.1912 9.351
16.2064 9.697
16.2216 9.607
16.2368 9.654
16.2519 9.615
16.2671 9.739
16.2823 9.550
16.2975 9.733
16.3126 9.602
16.3278 9.614
16.3430 9.885
16.3582 10.032
16.3733 9.834
16.3885 9.599
16.4037 9.833
16.4189 9.823
16.4340 9.691
16.4492 9.735
16.4644 9.710
16.4796 9.718
16.4947 9.686
16.5099 9.597
16.5251 9.671
16.5403 9.969
16.5554 9.551
16.5706 9.553
16.5858 9.761
16.6010 9.762
16.6161 9.618
16.6313 9.658
16.6465 9.604
16.6617 9.687
16.6768 9.823
16.6920 9.848
16.7072 9.913
16.7224 9.826
16.7375 9.947
16.7527 9.945
16.7679 9.832
16.7831 9.890
16.7982 9.710
16.8134 9.787
16.8286 9.876
16.8438 9.788
16.8589 9.711
16.8741 9.709
16.8893 9.593
16.9045 9.634
16.9196 9.726
16.9348 9.671
16.9500 9.908
16.9652 9.871
16.9803 9.530
16.9955 9.664
17.0107 9.913
17.0259 9.910
17.0410 10.014
17.0562 10.252
17.0714 10.326
17.0866 10.264
17.1017 10.287
17.1169 10.602
17.1321 11.032
17.1473 11.407
17.1624 11.627
17.1776 12.253
17.1928 13.018
17.2080 13.906
17.2231 15.098
17.2383 16.253
17.2535 17.524
17.2687 18.570
17.2838 18.758
17.2990 18.021
17.3142 16.867
17.3294 16.229
17.3445 16.161
17.3597 16.055
17.3749 15.659
17.3901 15.194
17.4052 14.477
17.4204 13.339
17.4356 12.398
17.4508 11.959
17.4659 11.604
17.4811 11.457
17.4963 11.545
17.5115 11.408
17.5266 11.191
17.5418 11.068
17.5570 10.914
17.5722 10.832
17.5873 10.973
17.6025 11.026
17.6177 11.176
17.6329 11.334
17.6480 11.389
17.6632 11.314
17.6784 11.328
17.6936 11.353
17.7087 11.290
17.7239 11.169
17.7391 10.930
17.7543 10.804
17.7694 10.760
17.7846 10.590
17.7998 10.633
17.8150 10.778
17.8301 10.715
17.8453 10.375
17.8605 10.245
17.8757 10.401
17.8908 10.272
17.9060 10.318
17.9212 10.374
17.9364 10.264
17.9515 9.968
17.9667 10.033
17.9819 10.264
17.9971 10.231
18.0122 10.079
18.0274 9.770
18.0426 10.037
18.0578 10.327
18.0729 10.065
18.0881 10.034
18.1033 10.037
18.1185 9.813
18.1336 9.804
18.1488 9.914
18.1640 9.876
18.1792 9.779
18.1943 9.687
18.2095 9.837
18.2247 9.818
18.2399 9.677
18.2550 9.703
18.2702 9.660
18.2854 9.806
18.3006 9.948
18.3157 9.645
18.3309 9.619
18.3461 9.899
18.3613 9.896
18.3764 9.743
18.3916 9.659
18.4068 9.760
18.4220 9.721
18.4371 9.798
18.4523 10.035
18.4675 9.885
18.4827 9.552
18.4978 9.605
18.5130 9.926
18.5282 9.956
18.5434 9.881
18.5585 9.690
18.5737 9.889
18.5889 9.757
18.6041 9.683
18.6192 9.734
18.6344 9.834
18.6496 9.950
18.6648 10.069
18.6799 9.907
18.6951 9.745
18.7103 9.829
18.7255 9.822
18.7406 9.821
18.7558 9.733
18.7710 9.728
18.7862 10.028
18.8013 9.896
18.8165 9.742
18.8317 9.851
18.8469 9.773
18.8620 9.899
18.8772 9.980
18.8924 9.903
18.9076 9.858
18.9227 9.919
18.9379 9.805
18.9531 9.772
18.9683 10.094
18.9834 10.200
18.9986 10.173
19.0138 10.092
19.0290 10.201
19.0441 10.125
19.0593 10.182
19.0745 10.340
19.0897 10.323
19.1048 10.313
19.1200 10.508
19.1352 10.224
19.1504 10.297
19.1655 10.420
19.1807 10.436
19.1959 10.448
19.2111 10.633
19.2262 10.698
19.2414 10.683
19.2566 10.924
19.2718 10.971
19.2869 10.909
19.3021 11.008
19.3173 11.209
19.3325 11.204
19.3476 11.243
19.3628 11.117
19.3780 11.096
19.3932 11.109
19.4083 11.149
19.4235 11.215
19.4387 11.396
19.4539 11.382
19.4690 11.398
19.4842 11.348
19.4994 11.398
19.5146 11.501
19.5297 11.448
19.5449 11.556
19.5601 11.699
19.5753 11.716
19.5904 11.618
19.6056 11.646
19.6208 11.740
19.6360 11.738
19.6511 11.903
19.6663 11.879
19.6815 11.791
19.6967 11.658
19.7118 11.690
19.7270 11.825
19.7422 11.739
19.7574 11.819
19.7725 11.980
19.7877 12.056
19.8029 12.093
19.8180 12.126
19.8332 12.310
19.8484 12.425
19.8636 12.520
19.8787 12.992
19.8939 13.102
19.9091 12.967
19.9243 13.455
19.9394 13.871
19.9546 14.126
19.9698 14.275
19.9850 14.751
20.0001 14.652
20.0153 14.227
20.0305 14.186
20.0457 13.799
20.0608 13.776
20.0760 13.939
20.0912 13.888
20.1064 13.872
20.1215 13.701
20.1367 13.497
20.1519 13.120
20.1671 12.822
20.1822 12.749
20.1974 12.759
20.2126 12.721
20.2278 12.580
20.2429 12.447
20.2581 12.309
20.2733 12.182
20.2885 11.981
20.3036 11.922
20.3188 11.992
20.3340 12.188
20.3492 11.981
20.3643 12.130
20.3795 12.248
20.3947 12.062
20.4099 11.883
20.4250 11.867
20.4402 12.052
20.4554 11.767
20.4706 11.529
20.4857 11.471
20.5009 11.511
20.5161 11.343
20.5313 11.361
20.5464 11.407
20.5616 11.565
20.5768 11.446
20.5920 11.106
20.6071 11.148
20.6223 11.045
20.6375 10.809
20.6527 10.879
20.6678 10.630
20.6830 10.603
20.6982 10.590
20.7134 10.804
20.7285 10.529
20.7437 10.673
20.7589 10.458
20.7741 10.433
20.7892 10.568
20.8044 10.404
20.8196 10.300
20.8348 10.159
20.8499 10.530
20.8651 10.325
20.8803 10.504
20.8955 10.453
20.9106 10.534
20.9258 10.832
20.9410 10.177
20.9562 10.163
20.9713 10.391
20.9865 10.138
21.0017 10.232
21.0169 9.860
21.0320 9.860
21.0472 10.019
21.0624 10.176
21.0776 9.839
21.0927 9.930
21.1079 9.788
21.1231 9.844
21.1383 9.881
21.1534 10.308
21.1686 9.808
21.1838 10.122
21.1990 10.086
21.2141 9.996
21.2293 9.664
21.2445 9.721
21.2597 9.657
21.2748 9.377
21.2900 9.834
21.3052 9.889
21.3204 9.781
21.3355 9.745
21.3507 9.562
21.3659 9.822
21.3811 9.552
21.3962 9.755
21.4114 9.600
21.4266 9.424
21.4418 9.464
21.4569 9.538
21.4721 9.357
21.4873 9.611
21.5025 9.519
21.5176 9.316
21.5328 9.203
21.5480 8.978
21.5632 9.124
21.5783 9.041
21.5935 9.010
21.6087 9.281
21.6239 9.250
21.6390 9.357
21.6542 9.103
21.6694 9.052
21.6846 9.083
21.6997 9.115
21.7149 9.076
21.7301 9.226
21.7453 9.141
21.7604 8.905
21.7756 8.906
21.7908 9.018
21.8060 9.018
21.8211 9.130
21.8363 9.175
21.8515 8.843
21.8667 8.874
21.8818 9.227
21.8970 9.246
21.9122 8.962
21.9274 8.824
21.9425 9.000
21.9577 9.022
21.9729 9.024
21.9881 9.058
22.0032 8.847
22.0184 8.661
22.0336 8.740
22.0488 8.937
22.0639 8.906
22.0791 8.732
22.0943 8.799
22.1095 8.823
22.1246 8.804
22.1398 8.811
22.1550 8.657
22.1702 8.686
22.1853 8.658
22.2005 8.441
22.2157 8.478
22.2309 8.638
22.2460 8.587
22.2612 8.459
22.2764 8.455
22.2916 8.565
22.3067 8.580
22.3219 8.461
22.3371 8.501
22.3523 8.661
22.3674 8.481
22.3826 8.376
22.3978 8.407
22.4130 8.310
22.4281 8.568
22.4433 8.483
22.4585 8.291
22.4737 8.250
22.4888 8.590
22.5040 8.441
22.5192 8.439
22.5344 8.514
22.5495 8.346
22.5647 8.232
22.5799 8.124
22.5951 8.524
22.6102 8.738
22.6254 8.624
22.6406 8.635
22.6558 8.292
22.6709 8.450
22.6861 8.306
22.7013 8.229
22.7165 7.968
22.7316 6.481
