'Id: "" Comment: "" Operator: "Lab Manager" Anode: "Mo" Scantype: "Still (Eiger2R_500K (1D mode))" TimePerStep: "300" X: "11.8" Y: "9.4" Z: "11.284" 
7.2532 18.844
7.2684 19.010
7.2836 19.073
7.2987 18.770
7.3139 19.247
7.3291 19.223
7.3443 18.942
7.3594 19.217
7.3746 19.047
7.3898 19.202
7.4050 19.173
7.4201 19.787
7.4353 19.219
7.4505 19.421
7.4657 19.585
7.4808 19.305
7.4960 19.477
7.5112 19.655
7.5264 19.959
7.5415 19.772
7.5567 19.774
7.5719 19.736
7.5871 19.808
7.6022 20.083
7.6174 19.849
7.6326 19.932
7.6478 20.411
7.6629 20.622
7.6781 20.492
7.6933 20.556
7.7085 20.428
7.7236 20.562
7.7388 20.651
7.7540 20.770
7.7692 20.928
7.7843 20.793
7.7995 20.512
7.8147 20.842
7.8299 21.022
7.8450 20.658
7.8602 20.943
7.8754 21.327
7.8905 21.034
7.9057 20.726
7.9209 20.898
7.9361 20.722
7.9512 20.844
7.9664 21.140
7.9816 20.806
7.9968 20.968
8.0119 21.392
8.0271 21.241
8.0423 21.116
8.0575 20.949
8.0726 21.136
8.0878 21.410
8.1030 21.506
8.1182 21.480
8.1333 21.403
8.1485 21.411
8.1637 21.491
8.1789 21.428
8.1940 21.901
8.2092 21.626
8.2244 21.341
8.2396 21.773
8.2547 21.920
8.2699 21.711
8.2851 21.991
8.3003 21.948
8.3154 21.817
8.3306 21.887
8.3458 22.012
8.3610 21.829
8.3761 21.796
8.3913 21.846
8.4065 21.817
8.4217 22.107
8.4368 22.305
8.4520 22.504
8.4672 21.989
8.4824 22.331
8.4975 21.713
8.5127 21.997
8.5279 22.185
8.5431 22.171
8.5582 22.324
8.5734 22.455
8.5886 22.205
8.6038 22.505
8.6189 22.308
8.6341 22.830
8.6493 22.232
8.6645 22.977
8.6796 23.158
8.6948 22.520
8.7100 23.276
8.7252 22.779
8.7403 23.069
8.7555 22.485
8.7707 23.020
8.7859 23.017
8.8010 22.961
8.8162 22.650
8.8314 22.478
8.8466 22.678
8.8617 22.554
8.8769 22.643
8.8921 22.082
8.9073 22.458
8.9224 22.841
8.9376 22.999
8.9528 22.902
8.9680 22.507
8.9831 23.108
8.9983 22.642
9.0135 22.503
9.0287 23.096
9.0438 22.916
9.0590 23.412
9.0742 22.807
9.0894 22.775
9.1045 22.864
9.1197 22.585
9.1349 22.748
9.1501 23.138
9.1652 22.840
9.1804 22.838
9.1956 23.011
9.2108 23.676
9.2259 22.976
9.2411 22.617
9.2563 22.769
9.2715 22.945
9.2866 23.173
9.3018 23.332
9.3170 23.211
9.3322 23.025
9.3473 22.962
9.3625 23.216
9.3777 23.215
9.3929 23.236
9.4080 23.301
9.4232 23.431
9.4384 23.352
9.4536 23.443
9.4687 23.499
9.4839 23.221
9.4991 22.860
9.5143 23.226
9.5294 23.641
9.5446 23.536
9.5598 23.243
9.5750 23.307
9.5901 23.243
9.6053 23.274
9.6205 23.420
9.6357 23.557
9.6508 23.618
9.6660 23.690
9.6812 23.517
9.6964 23.606
9.7115 23.979
9.7267 24.151
9.7419 24.256
9.7571 24.282
9.7722 24.015
9.7874 23.837
9.8026 24.049
9.8178 24.109
9.8329 23.972
9.8481 23.736
9.8633 23.491
9.8785 23.629
9.8936 23.558
9.9088 23.247
9.9240 23.563
9.9392 23.512
9.9543 23.197
9.9695 23.329
9.9847 23.443
9.9999 23.521
10.0150 23.534
10.0302 23.402
10.0454 23.575
10.0606 23.454
10.0757 23.221
10.0909 23.346
10.1061 23.419
10.1213 23.652
10.1364 23.636
10.1516 23.497
10.1668 23.860
10.1820 23.864
10.1971 23.805
10.2123 23.982
10.2275 24.400
10.2427 24.392
10.2578 24.098
10.2730 23.623
10.2882 23.442
10.3034 23.772
10.3185 23.373
10.3337 23.189
10.3489 23.124
10.3641 23.059
10.3792 23.151
10.3944 22.776
10.4096 22.683
10.4248 22.610
10.4399 22.825
10.4551 22.872
10.4703 22.662
10.4855 22.916
10.5006 22.810
10.5158 22.795
10.5310 22.630
10.5462 22.641
10.5613 22.356
10.5765 22.748
10.5917 22.564
10.6069 22.616
10.6220 22.784
10.6372 22.772
10.6524 22.596
10.6676 22.742
10.6827 22.616
10.6979 22.541
10.7131 22.947
10.7283 22.342
10.7434 22.261
10.7586 22.383
10.7738 22.487
10.7890 22.205
10.8041 22.349
10.8193 22.448
10.8345 22.263
10.8497 22.615
10.8648 22.701
10.8800 22.581
10.8952 22.383
10.9104 22.124
10.9255 21.961
10.9407 22.148
10.9559 22.132
10.9711 22.127
10.9862 22.223
11.0014 22.150
11.0166 22.408
11.0318 22.702
11.0469 22.257
11.0621 22.281
11.0773 21.973
11.0925 22.092
11.1076 21.745
11.1228 21.873
11.1380 21.860
11.1532 22.104
11.1683 22.134
11.1835 22.168
11.1987 22.007
11.2139 21.932
11.2290 21.878
11.2442 22.042
11.2594 21.909
11.2746 22.018
11.2897 22.057
11.3049 21.852
11.3201 21.847
11.3353 22.026
11.3504 21.636
11.3656 21.643
11.3808 21.618
11.3960 21.519
11.4111 21.629
11.4263 21.396
11.4415 21.339
11.4567 21.020
11.4718 21.174
11.4870 21.157
11.5022 21.072
11.5174 20.753
11.5325 20.991
11.5477 21.329
11.5629 21.201
11.5781 21.013
11.5932 20.719
11.6084 20.449
11.6236 20.519
11.6388 20.819
11.6539 20.831
11.6691 21.052
11.6843 21.002
11.6995 20.698
11.7146 20.870
11.7298 20.693
11.7450 20.307
11.7602 20.054
11.7753 20.567
11.7905 20.300
11.8057 20.664
11.8209 20.590
11.8360 20.287
11.8512 19.981
11.8664 19.792
11.8816 19.545
11.8967 20.266
11.9119 20.116
11.9271 19.657
11.9423 19.538
11.9574 19.809
11.9726 19.503
11.9878 19.425
12.0030 19.310
12.0181 19.298
12.0333 19.323
12.0485 19.235
12.0637 19.108
12.0788 18.809
12.0940 18.764
12.1092 18.888
12.1244 18.826
12.1395 18.560
12.1547 18.725
12.1699 18.608
12.1851 18.684
12.2002 18.035
12.2154 17.833
12.2306 18.242
12.2458 18.276
12.2609 18.254
12.2761 17.944
12.2913 17.773
12.3065 17.515
12.3216 17.530
12.3368 17.384
12.3520 17.595
12.3672 17.318
12.3823 17.249
12.3975 17.237
12.4127 17.425
12.4279 17.205
12.4430 16.859
12.4582 16.820
12.4734 17.159
12.4886 16.987
12.5037 17.002
12.5189 16.989
12.5341 16.871
12.5493 16.676
12.5644 16.791
12.5796 16.541
12.5948 16.511
12.6100 16.452
12.6251 16.008
12.6403 15.812
12.6555 15.998
12.6707 15.968
12.6858 15.742
12.7010 15.527
12.7162 15.881
12.7314 15.841
12.7465 15.569
12.7617 15.413
12.7769 15.339
12.7921 15.413
12.8072 15.529
12.8224 15.457
12.8376 15.337
12.8528 15.292
12.8679 14.870
12.8831 14.691
12.8983 14.836
12.9135 14.938
12.9286 14.963
12.9438 14.607
12.9590 14.650
12.9742 14.760
12.9893 14.433
13.0045 14.443
13.0197 14.604
13.0349 14.386
13.0500 14.243
13.0652 14.247
13.0804 14.102
13.0956 13.912
13.1107 13.789
13.1259 13.766
13.1411 13.556
13.1563 13.655
13.1714 13.904
13.1866 13.610
13.2018 13.377
13.2170 13.498
13.2321 13.504
13.2473 13.434
13.2625 13.344
13.2777 13.152
13.2928 13.136
13.3080 12.935
13.3232 12.866
13.3384 12.942
13.3535 12.743
13.3687 12.759
13.3839 12.964
13.3991 13.088
13.4142 13.128
13.4294 13.001
13.4446 12.836
13.4598 12.747
13.4749 12.534
13.4901 12.605
13.5053 12.574
13.5205 12.494
13.5356 12.524
13.5508 12.489
13.5660 12.432
13.5812 12.428
13.5963 12.432
13.6115 12.441
13.6267 12.368
13.6419 12.081
13.6570 12.126
13.6722 12.144
13.6874 11.925
13.7026 11.670
13.7177 11.742
13.7329 12.112
13.7481 12.359
13.7633 12.543
13.7784 12.117
13.7936 12.041
13.8088 12.469
13.8239 12.381
13.8391 12.225
13.8543 12.418
13.8695 12.116
13.8846 12.072
13.8998 12.048
13.9150 12.199
13.9302 12.370
13.9453 12.041
13.9605 11.661
13.9757 11.759
13.9909 11.583
14.0060 11.618
14.0212 11.555
14.0364 11.827
14.0516 11.553
14.0667 11.441
14.0819 11.509
14.0971 11.452
14.1123 11.635
14.1274 11.371
14.1426 11.698
14.1578 11.646
14.1730 12.003
14.1881 11.731
14.2033 11.681
14.2185 11.785
14.2337 11.967
14.2488 12.084
14.2640 11.956
14.2792 12.224
14.2944 12.341
14.3095 12.163
14.3247 11.973
14.3399 12.311
14.3551 12.235
14.3702 12.648
14.3854 13.242
14.4006 13.107
14.4158 12.619
14.4309 12.988
14.4461 12.599
14.4613 12.464
14.4765 12.525
14.4916 12.384
14.5068 11.978
14.5220 11.846
14.5372 11.634
14.5523 11.318
14.5675 11.716
14.5827 11.266
14.5979 11.053
14.6130 11.214
14.6282 11.003
14.6434 11.343
14.6586 11.416
14.6737 11.303
14.6889 11.154
14.7041 10.864
14.7193 10.833
14.7344 10.848
14.7496 10.812
14.7648 10.907
14.7800 10.847
14.7951 11.035
14.8103 10.666
14.8255 10.590
14.8407 10.467
14.8558 10.714
14.8710 10.858
14.8862 10.870
14.9014 10.582
14.9165 10.789
14.9317 11.033
14.9469 10.618
14.9621 10.592
14.9772 10.291
14.9924 10.150
15.0076 10.570
15.0228 10.789
15.0379 10.549
15.0531 10.152
15.0683 10.552
15.0835 10.560
15.0986 10.361
15.1138 10.313
15.1290 10.480
15.1442 10.497
15.1593 10.725
15.1745 10.443
15.1897 10.646
15.2049 10.581
15.2200 10.498
15.2352 10.192
15.2504 10.443
15.2656 10.115
15.2807 10.223
15.2959 10.289
15.3111 10.412
15.3263 10.082
15.3414 10.051
15.3566 10.204
15.3718 10.259
15.3870 10.516
15.4021 10.504
15.4173 10.616
15.4325 10.499
15.4477 10.235
15.4628 10.506
15.4780 10.395
15.4932 10.351
15.5084 10.507
15.5235 10.378
15.5387 10.616
15.5539 10.330
15.5691 10.345
15.5842 10.270
15.5994 9.822
15.6146 9.831
15.6298 10.127
15.6449 10.658
15.6601 9.833
15.6753 10.114
15.6905 9.927
15.7056 9.909
15.7208 10.187
15.7360 9.729
15.7512 10.053
15.7663 9.864
15.7815 9.892
15.7967 9.965
15.8119 9.751
15.8270 9.957
15.8422 9.911
15.8574 9.807
15.8726 9.700
15.8877 9.922
15.9029 9.928
15.9181 9.845
15.9333 9.805
15.9484 9.985
15.9636 9.585
15.9788 9.776
15.9940 9.900
16.0091 9.766
16.0243 9.891
16.0395 9.810
16.0547 9.831
16.0698 9.754
16.0850 9.651
16.1002 9.735
16.1154 9.683
16.1305 9.478
16.1457 9.809
16.1609 9.876
16.1761 9.991
16.1912 9.739
16.2064 9.746
16.2216 9.635
16.2368 9.782
16.2519 9.962
16.2671 10.032
16.2823 10.145
16.2975 10.107
16.3126 9.852
16.3278 9.939
16.3430 10.033
16.3582 10.000
16.3733 10.154
16.3885 10.119
16.4037 9.863
16.4189 9.841
16.4340 9.896
16.4492 9.825
16.4644 9.923
16.4796 9.881
16.4947 9.645
16.5099 9.609
16.5251 9.607
16.5403 9.801
16.5554 9.752
16.5706 9.829
16.5858 9.968
16.6010 9.721
16.6161 10.114
16.6313 10.171
16.6465 9.931
16.6617 9.751
16.6768 9.741
16.6920 9.977
16.7072 10.015
16.7224 10.160
16.7375 9.963
16.7527 10.124
16.7679 10.339
16.7831 10.044
16.7982 9.908
16.8134 9.983
16.8286 9.784
16.8438 9.733
16.8589 9.856
16.8741 9.828
16.8893 9.828
16.9045 9.661
16.9196 9.676
16.9348 9.907
16.9500 9.989
16.9652 9.790
16.9803 9.843
16.9955 10.088
17.0107 9.912
17.0259 9.774
17.0410 9.629
17.0562 10.025
17.0714 10.266
17.0866 10.205
17.1017 10.412
17.1169 10.542
17.1321 10.649
17.1473 11.119
17.1624 11.616
17.1776 12.235
17.1928 13.153
17.2080 14.026
17.2231 15.061
17.2383 16.206
17.2535 17.430
17.2687 18.398
17.2838 18.385
17.2990 17.592
17.3142 16.903
17.3294 16.672
17.3445 16.498
17.3597 16.139
17.3749 15.716
17.3901 15.155
17.4052 14.276
17.4204 13.261
17.4356 12.698
17.4508 12.288
17.4659 11.918
17.4811 11.850
17.4963 11.654
17.5115 11.407
17.5266 11.237
17.5418 11.201
17.5570 11.400
17.5722 11.514
17.5873 11.481
17.6025 11.561
17.6177 11.503
17.6329 11.183
17.6480 11.130
17.6632 11.059
17.6784 10.816
17.6936 10.947
17.7087 10.937
17.7239 10.751
17.7391 10.558
17.7543 10.353
17.7694 10.290
17.7846 10.466
17.7998 10.296
17.8150 10.163
17.8301 10.373
17.8453 10.547
17.8605 10.357
17.8757 10.144
17.8908 10.195
17.9060 10.401
17.9212 10.386
17.9364 10.402
17.9515 10.310
17.9667 10.294
17.9819 10.483
17.9971 10.491
18.0122 10.570
18.0274 10.634
18.0426 10.158
18.0578 10.132
18.0729 10.224
18.0881 10.104
18.1033 10.023
18.1185 10.157
18.1336 10.076
18.1488 9.905
18.1640 9.923
18.1792 10.069
18.1943 10.030
18.2095 9.757
18.2247 9.716
18.2399 9.993
18.2550 10.105
18.2702 9.954
18.2854 9.827
18.3006 9.899
18.3157 10.012
18.3309 9.932
18.3461 9.874
18.3613 9.961
18.3764 9.963
18.3916 9.889
18.4068 9.689
18.4220 9.694
18.4371 9.783
18.4523 9.961
18.4675 9.806
18.4827 9.754
18.4978 9.804
18.5130 9.833
18.5282 9.845
18.5434 10.031
18.5585 9.806
18.5737 9.687
18.5889 9.829
18.6041 9.749
18.6192 9.584
18.6344 9.649
18.6496 9.881
18.6648 9.709
18.6799 9.576
18.6951 9.838
18.7103 9.742
18.7255 9.649
18.7406 9.734
18.7558 9.857
18.7710 9.777
18.7862 9.748
18.8013 9.798
18.8165 9.633
18.8317 9.863
18.8469 9.931
18.8620 9.826
18.8772 9.988
18.8924 9.917
18.9076 9.870
18.9227 9.979
18.9379 9.802
18.9531 9.804
18.9683 10.046
18.9834 10.276
18.9986 10.095
19.0138 9.900
19.0290 9.939
19.0441 10.072
19.0593 10.244
19.0745 10.121
19.0897 10.226
19.1048 10.275
19.1200 10.259
19.1352 10.390
19.1504 10.428
19.1655 10.406
19.1807 10.332
19.1959 10.334
19.2111 10.630
19.2262 10.908
19.2414 10.783
19.2566 10.688
19.2718 10.618
19.2869 10.849
19.3021 10.967
19.3173 10.805
19.3325 11.004
19.3476 11.196
19.3628 11.060
19.3780 11.045
19.3932 11.235
19.4083 11.261
19.4235 11.162
19.4387 11.227
19.4539 11.220
19.4690 11.422
19.4842 11.533
19.4994 11.479
19.5146 11.481
19.5297 11.474
19.5449 11.373
19.5601 11.538
19.5753 11.567
19.5904 11.502
19.6056 11.592
19.6208 11.730
19.6360 11.797
19.6511 11.755
19.6663 11.457
19.6815 11.416
19.6967 11.631
19.7118 11.679
19.7270 11.650
19.7422 11.901
19.7574 11.966
19.7725 11.895
19.7877 11.854
19.8029 11.810
19.8180 11.933
19.8332 11.937
19.8484 12.211
19.8636 12.470
19.8787 12.580
19.8939 12.651
19.9091 12.871
19.9243 13.412
19.9394 13.749
19.9546 13.908
19.9698 14.190
19.9850 14.537
20.0001 14.602
20.0153 14.216
20.0305 13.811
20.0457 13.741
20.0608 13.656
20.0760 13.496
20.0912 13.485
20.1064 13.528
20.1215 13.423
20.1367 13.030
20.1519 13.209
20.1671 13.006
20.1822 12.969
20.1974 13.077
20.2126 13.001
20.2278 13.063
20.2429 12.764
20.2581 12.482
20.2733 12.320
20.2885 12.083
20.3036 11.963
20.3188 12.041
20.3340 11.761
20.3492 11.746
20.3643 11.391
20.3795 11.059
20.3947 11.140
20.4099 10.856
20.4250 10.809
20.4402 10.702
20.4554 10.839
20.4706 10.917
20.4857 10.826
20.5009 10.520
20.5161 10.755
20.5313 10.875
20.5464 10.874
20.5616 10.641
20.5768 10.596
20.5920 10.860
20.6071 10.769
20.6223 10.701
20.6375 10.816
20.6527 10.723
20.6678 10.642
20.6830 10.665
20.6982 10.703
20.7134 10.724
20.7285 10.585
20.7437 10.628
20.7589 10.755
20.7741 10.676
20.7892 10.530
20.8044 10.351
20.8196 10.117
20.8348 10.251
20.8499 10.180
20.8651 10.331
20.8803 10.343
20.8955 10.191
20.9106 10.213
20.9258 10.142
20.9410 10.124
20.9562 10.100
20.9713 9.860
20.9865 10.256
21.0017 9.887
21.0169 9.839
21.0320 9.998
21.0472 9.881
21.0624 9.940
21.0776 9.943
21.0927 9.908
21.1079 9.728
21.1231 9.743
21.1383 9.589
21.1534 9.803
21.1686 9.906
21.1838 9.453
21.1990 10.131
21.2141 9.645
21.2293 10.018
21.2445 9.526
21.2597 10.063
21.2748 9.706
21.2900 9.351
21.3052 9.585
21.3204 9.784
21.3355 9.339
21.3507 9.488
21.3659 9.595
21.3811 9.304
21.3962 9.617
21.4114 9.263
21.4266 9.497
21.4418 9.406
21.4569 9.563
21.4721 9.804
21.4873 9.563
21.5025 9.562
21.5176 9.275
21.5328 9.472
21.5480 9.369
21.5632 9.365
21.5783 9.413
21.5935 9.390
21.6087 9.430
21.6239 9.485
21.6390 9.038
21.6542 9.116
21.6694 9.285
21.6846 9.354
21.6997 9.124
21.7149 9.132
21.7301 9.101
21.7453 8.892
21.7604 9.162
21.7756 9.007
21.7908 8.919
21.8060 8.995
21.8211 8.883
21.8363 8.976
21.8515 8.929
21.8667 8.879
21.8818 9.238
21.8970 9.080
21.9122 8.974
21.9274 8.966
21.9425 9.054
21.9577 9.019
21.9729 8.898
21.9881 9.115
22.0032 8.988
22.0184 9.018
22.0336 8.941
22.0488 8.811
22.0639 8.718
22.0791 8.694
22.0943 8.840
22.1095 8.974
22.1246 8.988
22.1398 8.790
22.1550 8.590
22.1702 8.800
22.1853 8.804
22.2005 8.566
22.2157 8.579
22.2309 8.773
22.2460 8.785
22.2612 8.671
22.2764 8.474
22.2916 8.672
22.3067 8.586
22.3219 8.553
22.3371 8.579
22.3523 8.645
22.3674 8.518
22.3826 8.403
22.3978 8.482
22.4130 8.488
22.4281 8.543
22.4433 8.446
22.4585 8.444
22.4737 8.597
22.4888 8.515
22.5040 8.690
22.5192 8.301
22.5344 8.735
22.5495 8.777
22.5647 8.532
22.5799 8.227
22.5951 8.908
22.6102 8.460
22.6254 8.769
22.6406 8.772
22.6558 8.433
22.6709 8.500
22.6861 8.081
22.7013 8.532
22.7165 8.217
22.7316 6.477
