'Id: "" Comment: "" Operator: "Lab Manager" Anode: "Mo" Scantype: "Still (Eiger2R_500K (1D mode))" TimePerStep: "300" X: "11.8" Y: "9.4" Z: "11.284" 
7.2532 19.112
7.2684 19.008
7.2836 18.879
7.2987 19.030
7.3139 19.110
7.3291 19.047
7.3443 19.209
7.3594 19.365
7.3746 18.920
7.3898 18.935
7.4050 19.243
7.4201 19.340
7.4353 19.401
7.4505 19.486
7.4657 19.682
7.4808 19.645
7.4960 19.613
7.5112 19.983
7.5264 19.841
7.5415 19.598
7.5567 19.823
7.5719 19.738
7.5871 19.973
7.6022 20.261
7.6174 20.313
7.6326 19.984
7.6478 19.997
7.6629 20.247
7.6781 20.212
7.6933 20.194
7.7085 20.337
7.7236 20.210
7.7388 20.334
7.7540 20.320
7.7692 20.427
7.7843 20.877
7.7995 20.903
7.8147 20.752
7.8299 20.603
7.8450 20.719
7.8602 20.962
7.8754 21.099
7.8905 21.231
7.9057 21.084
7.9209 21.091
7.9361 21.165
7.9512 20.862
7.9664 20.829
7.9816 21.453
7.9968 21.429
8.0119 21.238
8.0271 21.369
8.0423 21.360
8.0575 21.428
8.0726 21.769
8.0878 21.330
8.1030 21.444
8.1182 21.239
8.1333 21.244
8.1485 21.329
8.1637 21.505
8.1789 21.334
8.1940 21.463
8.2092 21.606
8.2244 21.673
8.2396 21.468
8.2547 21.736
8.2699 21.666
8.2851 21.535
8.3003 22.061
8.3154 21.866
8.3306 22.079
8.3458 21.984
8.3610 21.632
8.3761 21.852
8.3913 21.803
8.4065 21.610
8.4217 21.961
8.4368 22.101
8.4520 22.143
8.4672 22.299
8.4824 22.108
8.4975 22.288
8.5127 21.747
8.5279 22.270
8.5431 22.315
8.5582 22.221
8.5734 22.268
8.5886 21.951
8.6038 22.157
8.6189 22.093
8.6341 22.079
8.6493 22.764
8.6645 22.695
8.6796 22.529
8.6948 22.960
8.7100 22.522
8.7252 22.890
8.7403 23.000
8.7555 22.677
8.7707 22.567
8.7859 22.852
8.8010 22.554
8.8162 22.871
8.8314 22.236
8.8466 22.133
8.8617 22.434
8.8769 22.711
8.8921 22.739
8.9073 22.826
8.9224 22.945
8.9376 22.810
8.9528 23.181
8.9680 22.720
8.9831 22.977
8.9983 22.633
9.0135 22.621
9.0287 23.294
9.0438 22.603
9.0590 23.046
9.0742 22.812
9.0894 23.052
9.1045 23.073
9.1197 23.333
9.1349 23.298
9.1501 22.709
9.1652 22.737
9.1804 22.754
9.1956 23.079
9.2108 22.842
9.2259 22.841
9.2411 23.058
9.2563 23.201
9.2715 23.192
9.2866 23.079
9.3018 23.433
9.3170 23.246
9.3322 23.204
9.3473 22.938
9.3625 23.154
9.3777 23.287
9.3929 23.061
9.4080 23.331
9.4232 23.295
9.4384 23.224
9.4536 23.298
9.4687 23.431
9.4839 23.521
9.4991 23.434
9.5143 23.428
9.5294 23.189
9.5446 23.534
9.5598 23.478
9.5750 23.178
9.5901 23.428
9.6053 23.321
9.6205 23.491
9.6357 23.693
9.6508 23.569
9.6660 23.422
9.6812 23.447
9.6964 23.754
9.7115 23.821
9.7267 24.042
9.7419 24.125
9.7571 24.002
9.7722 24.109
9.7874 23.996
9.8026 24.083
9.8178 24.154
9.8329 23.695
9.8481 23.336
9.8633 23.559
9.8785 23.516
9.8936 23.341
9.9088 23.341
9.9240 23.551
9.9392 23.525
9.9543 23.305
9.9695 23.254
9.9847 22.930
9.9999 23.085
10.0150 23.589
10.0302 23.504
10.0454 23.557
10.0606 23.305
10.0757 23.226
10.0909 23.486
10.1061 23.500
10.1213 23.684
10.1364 23.331
10.1516 23.282
10.1668 23.404
10.1820 23.490
10.1971 23.357
10.2123 23.586
10.2275 23.804
10.2427 23.838
10.2578 23.522
10.2730 23.538
10.2882 23.822
10.3034 23.501
10.3185 23.044
10.3337 23.361
10.3489 23.362
10.3641 23.005
10.3792 23.129
10.3944 22.920
10.4096 22.699
10.4248 22.771
10.4399 22.893
10.4551 22.840
10.4703 22.834
10.4855 22.912
10.5006 22.861
10.5158 22.619
10.5310 22.562
10.5462 22.619
10.5613 22.324
10.5765 22.529
10.5917 22.955
10.6069 22.851
10.6220 22.671
10.6372 22.656
10.6524 22.368
10.6676 22.315
10.6827 22.826
10.6979 22.821
10.7131 22.396
10.7283 22.724
10.7434 22.494
10.7586 22.595
10.7738 22.846
10.7890 22.414
10.8041 22.459
10.8193 22.354
10.8345 22.079
10.8497 22.063
10.8648 22.240
10.8800 22.355
10.8952 22.318
10.9104 22.427
10.9255 22.198
10.9407 22.091
10.9559 22.210
10.9711 22.416
10.9862 22.500
11.0014 22.671
11.0166 22.494
11.0318 22.324
11.0469 22.016
11.0621 21.852
11.0773 22.220
11.0925 22.597
11.1076 22.568
11.1228 21.961
11.1380 21.616
11.1532 21.613
11.1683 21.755
11.1835 21.964
11.1987 22.403
11.2139 22.206
11.2290 22.233
11.2442 22.210
11.2594 21.830
11.2746 21.897
11.2897 21.817
11.3049 21.834
11.3201 21.611
11.3353 21.693
11.3504 21.867
11.3656 21.661
11.3808 21.326
11.3960 21.064
11.4111 21.173
11.4263 21.304
11.4415 21.146
11.4567 20.907
11.4718 21.429
11.4870 21.256
11.5022 21.103
11.5174 21.462
11.5325 21.051
11.5477 21.137
11.5629 20.923
11.5781 21.197
11.5932 20.990
11.6084 20.528
11.6236 20.862
11.6388 21.014
11.6539 20.912
11.6691 20.624
11.6843 20.643
11.6995 20.680
11.7146 20.335
11.7298 20.457
11.7450 20.656
11.7602 20.335
11.7753 20.144
11.7905 19.949
11.8057 20.173
11.8209 20.490
11.8360 20.193
11.8512 20.046
11.8664 19.989
11.8816 19.672
11.8967 19.713
11.9119 19.662
11.9271 20.009
11.9423 19.861
11.9574 19.698
11.9726 19.409
11.9878 19.345
12.0030 19.370
12.0181 19.358
12.0333 19.278
12.0485 19.336
12.0637 19.070
12.0788 18.697
12.0940 19.127
12.1092 19.065
12.1244 18.802
12.1395 18.726
12.1547 18.385
12.1699 18.319
12.1851 18.164
12.2002 18.197
12.2154 18.326
12.2306 17.963
12.2458 17.933
12.2609 18.089
12.2761 17.866
12.2913 17.671
12.3065 17.561
12.3216 17.391
12.3368 17.559
12.3520 17.506
12.3672 17.549
12.3823 17.228
12.3975 17.154
12.4127 17.452
12.4279 17.377
12.4430 16.865
12.4582 17.187
12.4734 17.327
12.4886 17.198
12.5037 17.163
12.5189 16.953
12.5341 16.633
12.5493 16.695
12.5644 16.795
12.5796 16.711
12.5948 16.488
12.6100 16.224
12.6251 16.100
12.6403 16.041
12.6555 15.785
12.6707 15.729
12.6858 15.845
12.7010 15.723
12.7162 15.565
12.7314 15.451
12.7465 15.531
12.7617 15.643
12.7769 15.445
12.7921 15.509
12.8072 15.456
12.8224 15.108
12.8376 15.310
12.8528 15.271
12.8679 15.125
12.8831 15.062
12.8983 14.851
12.9135 14.563
12.9286 14.462
12.9438 14.450
12.9590 14.476
12.9742 14.575
12.9893 14.515
13.0045 14.585
13.0197 14.459
13.0349 14.291
13.0500 14.407
13.0652 14.309
13.0804 14.042
13.0956 14.092
13.1107 14.157
13.1259 13.840
13.1411 13.712
13.1563 13.718
13.1714 13.727
13.1866 13.716
13.2018 13.624
13.2170 13.495
13.2321 13.606
13.2473 13.660
13.2625 13.354
13.2777 13.344
13.2928 13.394
13.3080 13.342
13.3232 13.284
13.3384 13.312
13.3535 13.287
13.3687 13.054
13.3839 12.912
13.3991 13.022
13.4142 13.048
13.4294 12.880
13.4446 12.852
13.4598 12.907
13.4749 12.601
13.4901 12.656
13.5053 12.643
13.5205 12.450
13.5356 12.563
13.5508 12.419
13.5660 12.265
13.5812 12.375
13.5963 12.200
13.6115 12.292
13.6267 12.246
13.6419 12.466
13.6570 12.402
13.6722 12.205
13.6874 12.098
13.7026 11.950
13.7177 12.160
13.7329 12.190
13.7481 12.039
13.7633 12.089
13.7784 12.183
13.7936 12.246
13.8088 12.212
13.8239 12.284
13.8391 12.322
13.8543 12.327
13.8695 12.397
13.8846 12.635
13.8998 12.470
13.9150 12.266
13.9302 12.182
13.9453 12.016
13.9605 11.866
13.9757 11.857
13.9909 11.662
14.0060 11.754
14.0212 11.817
14.0364 11.645
14.0516 11.798
14.0667 11.613
14.0819 11.596
14.0971 11.299
14.1123 11.448
14.1274 11.910
14.1426 11.692
14.1578 11.829
14.1730 11.655
14.1881 12.059
14.2033 11.804
14.2185 11.866
14.2337 11.920
14.2488 11.910
14.2640 11.858
14.2792 11.731
14.2944 12.130
14.3095 12.085
14.3247 11.986
14.3399 12.119
14.3551 12.287
14.3702 12.201
14.3854 12.872
14.4006 12.823
14.4158 12.295
14.4309 12.220
14.4461 12.410
14.4613 12.170
14.4765 12.139
14.4916 11.902
14.5068 11.606
14.5220 11.366
14.5372 11.766
14.5523 11.524
14.5675 11.376
14.5827 11.060
14.5979 10.998
14.6130 11.230
14.6282 10.934
14.6434 10.878
14.6586 11.627
14.6737 10.789
14.6889 10.854
14.7041 11.017
14.7193 10.853
14.7344 10.686
14.7496 10.828
14.7648 10.654
14.7800 11.142
14.7951 11.014
14.8103 10.553
14.8255 10.665
14.8407 10.645
14.8558 10.752
14.8710 10.762
14.8862 11.060
14.9014 10.490
14.9165 10.698
14.9317 10.796
14.9469 10.573
14.9621 10.902
14.9772 10.351
14.9924 10.558
15.0076 10.669
15.0228 10.475
15.0379 10.747
15.0531 10.697
15.0683 10.386
15.0835 10.398
15.0986 10.569
15.1138 10.813
15.1290 10.921
15.1442 10.514
15.1593 10.229
15.1745 10.334
15.1897 10.261
15.2049 10.275
15.2200 10.432
15.2352 10.552
15.2504 10.441
15.2656 10.671
15.2807 10.496
15.2959 10.393
15.3111 10.066
15.3263 10.645
15.3414 9.895
15.3566 10.279
15.3718 10.066
15.3870 10.369
15.4021 10.259
15.4173 10.274
15.4325 10.625
15.4477 10.516
15.4628 10.422
15.4780 10.556
15.4932 10.439
15.5084 10.377
15.5235 10.417
15.5387 10.388
15.5539 10.407
15.5691 10.301
15.5842 10.105
15.5994 10.043
15.6146 10.103
15.6298 10.153
15.6449 10.086
15.6601 9.883
15.6753 10.069
15.6905 10.057
15.7056 10.010
15.7208 10.106
15.7360 9.780
15.7512 9.825
15.7663 9.809
15.7815 9.716
15.7967 9.659
15.8119 9.943
15.8270 9.915
15.8422 10.154
15.8574 10.001
15.8726 9.717
15.8877 9.919
15.9029 10.059
15.9181 10.116
15.9333 9.962
15.9484 9.894
15.9636 9.865
15.9788 9.689
15.9940 9.847
16.0091 9.701
16.0243 9.753
16.0395 9.738
16.0547 9.483
16.0698 9.790
16.0850 9.732
16.1002 9.966
16.1154 9.786
16.1305 9.714
16.1457 9.673
16.1609 9.584
16.1761 9.598
16.1912 9.731
16.2064 9.766
16.2216 9.900
16.2368 9.947
16.2519 10.212
16.2671 10.101
16.2823 10.184
16.2975 10.257
16.3126 10.006
16.3278 9.856
16.3430 10.163
16.3582 10.222
16.3733 10.277
16.3885 10.141
16.4037 10.188
16.4189 10.194
16.4340 9.903
16.4492 9.963
16.4644 9.867
16.4796 9.811
16.4947 9.839
16.5099 9.813
16.5251 9.837
16.5403 9.866
16.5554 9.840
16.5706 9.755
16.5858 9.795
16.6010 9.744
16.6161 9.792
16.6313 9.723
16.6465 9.812
16.6617 10.011
16.6768 10.037
16.6920 9.952
16.7072 9.920
16.7224 10.136
16.7375 10.360
16.7527 10.141
16.7679 10.011
16.7831 10.193
16.7982 9.998
16.8134 9.916
16.8286 9.769
16.8438 9.749
16.8589 9.864
16.8741 9.890
16.8893 9.774
16.9045 9.863
16.9196 9.884
16.9348 9.924
16.9500 9.995
16.9652 9.962
16.9803 9.954
16.9955 10.125
17.0107 9.974
17.0259 9.768
17.0410 9.902
17.0562 9.974
17.0714 10.316
17.0866 10.464
17.1017 10.546
17.1169 10.754
17.1321 10.997
17.1473 11.354
17.1624 11.825
17.1776 12.357
17.1928 12.984
17.2080 14.005
17.2231 15.153
17.2383 16.348
17.2535 17.672
17.2687 18.781
17.2838 18.997
17.2990 18.186
17.3142 17.037
17.3294 16.420
17.3445 16.346
17.3597 16.617
17.3749 16.365
17.3901 15.312
17.4052 14.183
17.4204 13.341
17.4356 12.735
17.4508 12.123
17.4659 11.675
17.4811 11.658
17.4963 11.607
17.5115 11.228
17.5266 11.104
17.5418 11.192
17.5570 11.304
17.5722 11.323
17.5873 11.444
17.6025 11.491
17.6177 11.280
17.6329 11.246
17.6480 11.294
17.6632 10.974
17.6784 10.784
17.6936 10.823
17.7087 10.716
17.7239 10.408
17.7391 10.280
17.7543 10.302
17.7694 10.279
17.7846 10.426
17.7998 10.401
17.8150 10.066
17.8301 10.009
17.8453 10.099
17.8605 10.164
17.8757 10.307
17.8908 10.219
17.9060 10.201
17.9212 10.170
17.9364 10.317
17.9515 10.360
17.9667 10.149
17.9819 10.018
17.9971 10.098
18.0122 10.241
18.0274 10.316
18.0426 10.507
18.0578 10.470
18.0729 10.102
18.0881 10.023
18.1033 10.177
18.1185 10.068
18.1336 9.983
18.1488 9.951
18.1640 9.836
18.1792 10.108
18.1943 10.050
18.2095 9.877
18.2247 9.949
18.2399 9.919
18.2550 9.928
18.2702 9.844
18.2854 9.948
18.3006 9.899
18.3157 9.610
18.3309 9.606
18.3461 9.738
18.3613 9.734
18.3764 9.681
18.3916 9.814
18.4068 9.762
18.4220 9.845
18.4371 9.730
18.4523 9.748
18.4675 9.799
18.4827 9.849
18.4978 9.860
18.5130 9.662
18.5282 9.853
18.5434 9.691
18.5585 9.747
18.5737 9.745
18.5889 9.656
18.6041 9.846
18.6192 9.784
18.6344 9.744
18.6496 9.738
18.6648 9.621
18.6799 9.797
18.6951 9.902
18.7103 9.814
18.7255 9.805
18.7406 9.871
18.7558 9.906
18.7710 9.793
18.7862 9.677
18.8013 9.626
18.8165 9.674
18.8317 9.770
18.8469 9.878
18.8620 9.965
18.8772 10.056
18.8924 9.674
18.9076 9.705
18.9227 10.000
18.9379 9.916
18.9531 9.863
18.9683 9.850
18.9834 9.993
18.9986 10.167
19.0138 10.077
19.0290 10.071
19.0441 10.247
19.0593 10.511
19.0745 10.269
19.0897 10.387
19.1048 10.594
19.1200 10.480
19.1352 10.419
19.1504 10.319
19.1655 10.362
19.1807 10.529
19.1959 10.662
19.2111 10.661
19.2262 10.698
19.2414 10.651
19.2566 10.636
19.2718 10.909
19.2869 11.104
19.3021 11.106
19.3173 11.135
19.3325 10.954
19.3476 10.819
19.3628 11.169
19.3780 11.063
19.3932 10.893
19.4083 11.106
19.4235 11.413
19.4387 11.286
19.4539 11.257
19.4690 11.293
19.4842 11.245
19.4994 11.410
19.5146 11.330
19.5297 11.385
19.5449 11.450
19.5601 11.558
19.5753 11.562
19.5904 11.489
19.6056 11.635
19.6208 11.616
19.6360 11.775
19.6511 11.837
19.6663 11.590
19.6815 11.758
19.6967 12.047
19.7118 11.752
19.7270 11.427
19.7422 11.698
19.7574 11.825
19.7725 11.500
19.7877 11.666
19.8029 11.877
19.8180 11.980
19.8332 11.984
19.8484 11.982
19.8636 12.518
19.8787 12.750
19.8939 12.786
19.9091 13.188
19.9243 13.745
19.9394 13.938
19.9546 13.959
19.9698 14.223
19.9850 14.363
20.0001 14.455
20.0153 14.173
20.0305 13.829
20.0457 13.646
20.0608 13.723
20.0760 13.969
20.0912 13.877
20.1064 13.739
20.1215 13.538
20.1367 13.435
20.1519 13.294
20.1671 13.037
20.1822 12.810
20.1974 12.767
20.2126 12.582
20.2278 12.447
20.2429 12.831
20.2581 12.528
20.2733 12.084
20.2885 12.047
20.3036 12.041
20.3188 11.792
20.3340 11.952
20.3492 11.627
20.3643 11.383
20.3795 11.301
20.3947 11.086
20.4099 10.862
20.4250 10.836
20.4402 10.762
20.4554 10.817
20.4706 10.729
20.4857 10.747
20.5009 10.564
20.5161 10.661
20.5313 10.620
20.5464 10.599
20.5616 10.564
20.5768 10.663
20.5920 10.718
20.6071 10.613
20.6223 10.424
20.6375 10.702
20.6527 10.845
20.6678 10.540
20.6830 10.408
20.6982 10.488
20.7134 10.503
20.7285 10.463
20.7437 10.450
20.7589 10.210
20.7741 10.380
20.7892 10.587
20.8044 10.638
20.8196 10.414
20.8348 10.411
20.8499 9.855
20.8651 9.701
20.8803 9.921
20.8955 10.047
20.9106 10.090
20.9258 10.322
20.9410 9.961
20.9562 10.270
20.9713 10.084
20.9865 10.009
21.0017 10.232
21.0169 10.278
21.0320 10.065
21.0472 10.065
21.0624 10.062
21.0776 9.923
21.0927 9.913
21.1079 10.309
21.1231 9.782
21.1383 9.656
21.1534 9.660
21.1686 9.785
21.1838 9.780
21.1990 9.861
21.2141 9.557
21.2293 9.842
21.2445 9.755
21.2597 9.889
21.2748 10.130
21.2900 9.523
21.3052 9.658
21.3204 9.694
21.3355 9.249
21.3507 9.694
21.3659 9.517
21.3811 9.532
21.3962 9.506
21.4114 9.214
21.4266 9.630
21.4418 9.214
21.4569 9.641
21.4721 9.636
21.4873 9.329
21.5025 9.357
21.5176 9.528
21.5328 9.527
21.5480 9.152
21.5632 9.287
21.5783 9.013
21.5935 9.104
21.6087 9.224
21.6239 9.047
21.6390 8.960
21.6542 8.942
21.6694 9.278
21.6846 9.299
21.6997 9.229
21.7149 8.875
21.7301 9.118
21.7453 9.170
21.7604 9.129
21.7756 9.250
21.7908 9.177
21.8060 9.259
21.8211 9.195
21.8363 9.113
21.8515 8.998
21.8667 9.120
21.8818 9.073
21.8970 8.959
21.9122 9.090
21.9274 9.217
21.9425 8.992
21.9577 8.930
21.9729 8.898
21.9881 8.765
22.0032 8.672
22.0184 8.694
22.0336 8.799
22.0488 8.851
22.0639 8.828
22.0791 8.941
22.0943 9.018
22.1095 9.021
22.1246 8.854
22.1398 8.618
22.1550 8.536
22.1702 8.241
22.1853 8.422
22.2005 8.693
22.2157 8.708
22.2309 8.703
22.2460 8.529
22.2612 8.692
22.2764 8.741
22.2916 8.416
22.3067 8.633
22.3219 8.766
22.3371 8.356
22.3523 8.598
22.3674 8.699
22.3826 8.552
22.3978 8.494
22.4130 8.634
22.4281 8.720
22.4433 8.691
22.4585 8.483
22.4737 8.437
22.4888 8.522
22.5040 8.327
22.5192 8.534
22.5344 8.630
22.5495 8.776
22.5647 8.843
22.5799 8.652
22.5951 8.459
22.6102 8.629
22.6254 8.379
22.6406 8.343
22.6558 8.532
22.6709 8.424
22.6861 8.326
22.7013 8.406
22.7165 8.149
22.7316 6.515
