'Id: "" Comment: "" Operator: "Lab Manager" Anode: "Mo" Scantype: "Still (Eiger2R_500K (1D mode))" TimePerStep: "300" X: "11.8" Y: "9.4" Z: "11.284" 
7.2532 19.051
7.2684 18.850
7.2836 19.446
7.2987 19.374
7.3139 19.260
7.3291 19.338
7.3443 19.454
7.3594 19.387
7.3746 19.160
7.3898 19.234
7.4050 19.171
7.4201 19.148
7.4353 19.319
7.4505 19.595
7.4657 19.623
7.4808 19.656
7.4960 19.443
7.5112 19.902
7.5264 19.787
7.5415 19.825
7.5567 19.848
7.5719 19.773
7.5871 19.899
7.6022 20.075
7.6174 19.948
7.6326 20.128
7.6478 20.307
7.6629 20.340
7.6781 20.340
7.6933 20.311
7.7085 20.435
7.7236 20.182
7.7388 20.071
7.7540 20.507
7.7692 20.649
7.7843 20.328
7.7995 20.413
7.8147 20.780
7.8299 20.696
7.8450 20.541
7.8602 20.412
7.8754 20.648
7.8905 20.848
7.9057 20.985
7.9209 20.723
7.9361 20.746
7.9512 20.836
7.9664 20.657
7.9816 20.836
7.9968 21.146
8.0119 21.053
8.0271 21.256
8.0423 21.402
8.0575 21.408
8.0726 21.126
8.0878 21.235
8.1030 21.505
8.1182 21.834
8.1333 21.971
8.1485 21.649
8.1637 21.669
8.1789 21.787
8.1940 21.727
8.2092 22.047
8.2244 21.878
8.2396 21.452
8.2547 21.570
8.2699 21.600
8.2851 22.045
8.3003 21.521
8.3154 21.573
8.3306 21.586
8.3458 21.631
8.3610 21.910
8.3761 21.994
8.3913 22.240
8.4065 22.158
8.4217 21.623
8.4368 22.157
8.4520 22.169
8.4672 22.023
8.4824 22.242
8.4975 22.297
8.5127 21.791
8.5279 22.027
8.5431 22.041
8.5582 22.296
8.5734 22.143
8.5886 22.133
8.6038 22.401
8.6189 22.420
8.6341 22.203
8.6493 22.011
8.6645 22.610
8.6796 22.432
8.6948 22.617
8.7100 22.316
8.7252 22.755
8.7403 22.459
8.7555 22.622
8.7707 22.760
8.7859 22.485
8.8010 22.131
8.8162 22.635
8.8314 22.640
8.8466 22.395
8.8617 22.456
8.8769 22.828
8.8921 22.904
8.9073 22.127
8.9224 22.668
8.9376 23.026
8.9528 22.636
8.9680 22.498
8.9831 22.856
8.9983 23.095
9.0135 22.833
9.0287 22.588
9.0438 22.761
9.0590 22.970
9.0742 23.239
9.0894 23.004
9.1045 22.754
9.1197 22.717
9.1349 22.822
9.1501 22.740
9.1652 23.181
9.1804 23.133
9.1956 22.779
9.2108 22.927
9.2259 22.575
9.2411 22.844
9.2563 23.166
9.2715 22.950
9.2866 22.745
9.3018 22.975
9.3170 23.098
9.3322 23.040
9.3473 23.041
9.3625 23.080
9.3777 23.021
9.3929 23.207
9.4080 23.227
9.4232 22.864
9.4384 22.850
9.4536 23.201
9.4687 23.204
9.4839 22.955
9.4991 23.033
9.5143 22.979
9.5294 23.182
9.5446 23.358
9.5598 23.175
9.5750 23.135
9.5901 23.156
9.6053 23.267
9.6205 23.413
9.6357 23.686
9.6508 23.848
9.6660 23.670
9.6812 23.797
9.6964 23.545
9.7115 23.505
9.7267 23.839
9.7419 23.942
9.7571 23.809
9.7722 24.044
9.7874 23.970
9.8026 23.918
9.8178 23.838
9.8329 23.636
9.8481 23.728
9.8633 23.374
9.8785 23.342
9.8936 23.505
9.9088 23.333
9.9240 23.310
9.9392 23.496
9.9543 23.455
9.9695 23.298
9.9847 23.474
9.9999 23.423
10.0150 23.414
10.0302 23.429
10.0454 23.603
10.0606 23.251
10.0757 22.974
10.0909 23.195
10.1061 23.518
10.1213 23.517
10.1364 23.735
10.1516 24.027
10.1668 23.689
10.1820 23.193
10.1971 23.133
10.2123 23.251
10.2275 23.418
10.2427 23.750
10.2578 23.203
10.2730 23.120
10.2882 23.319
10.3034 23.045
10.3185 23.226
10.3337 23.063
10.3489 22.974
10.3641 23.091
10.3792 22.826
10.3944 22.932
10.4096 22.841
10.4248 22.867
10.4399 22.791
10.4551 22.553
10.4703 22.535
10.4855 22.617
10.5006 22.662
10.5158 22.796
10.5310 22.734
10.5462 22.871
10.5613 22.758
10.5765 22.523
10.5917 22.285
10.6069 22.183
10.6220 22.669
10.6372 22.908
10.6524 22.911
10.6676 22.442
10.6827 22.305
10.6979 22.589
10.7131 22.415
10.7283 22.361
10.7434 22.720
10.7586 22.451
10.7738 22.372
10.7890 22.334
10.8041 22.295
10.8193 22.203
10.8345 21.847
10.8497 22.732
10.8648 22.230
10.8800 22.379
10.8952 22.159
10.9104 22.165
10.9255 21.979
10.9407 22.198
10.9559 22.619
10.9711 22.156
10.9862 22.207
11.0014 22.186
11.0166 22.012
11.0318 22.174
11.0469 21.828
11.0621 21.773
11.0773 21.647
11.0925 21.842
11.1076 22.230
11.1228 22.225
11.1380 22.146
11.1532 21.743
11.1683 21.766
11.1835 21.858
11.1987 21.611
11.2139 21.979
11.2290 21.813
11.2442 21.537
11.2594 21.595
11.2746 21.718
11.2897 21.154
11.3049 21.327
11.3201 21.552
11.3353 21.525
11.3504 21.426
11.3656 21.500
11.3808 21.523
11.3960 21.610
11.4111 21.615
11.4263 21.281
11.4415 21.172
11.4567 21.378
11.4718 21.545
11.4870 21.393
11.5022 21.123
11.5174 21.215
11.5325 21.443
11.5477 20.998
11.5629 21.009
11.5781 20.918
11.5932 20.935
11.6084 20.714
11.6236 20.706
11.6388 20.848
11.6539 20.935
11.6691 20.891
11.6843 20.830
11.6995 20.643
11.7146 20.471
11.7298 20.513
11.7450 20.261
11.7602 20.081
11.7753 20.112
11.7905 20.283
11.8057 20.119
11.8209 19.982
11.8360 20.235
11.8512 20.185
11.8664 19.966
11.8816 19.917
11.8967 20.057
11.9119 19.810
11.9271 19.691
11.9423 19.550
11.9574 19.344
11.9726 19.444
11.9878 19.419
12.0030 19.201
12.0181 19.307
12.0333 19.068
12.0485 18.911
12.0637 19.042
12.0788 18.935
12.0940 18.952
12.1092 19.191
12.1244 18.840
12.1395 18.572
12.1547 18.660
12.1699 18.916
12.1851 18.456
12.2002 18.424
12.2154 18.530
12.2306 18.435
12.2458 18.127
12.2609 17.982
12.2761 17.836
12.2913 17.935
12.3065 17.763
12.3216 17.494
12.3368 17.260
12.3520 17.441
12.3672 17.462
12.3823 17.379
12.3975 17.156
12.4127 17.198
12.4279 17.180
12.4430 16.835
12.4582 17.096
12.4734 16.896
12.4886 16.555
12.5037 16.519
12.5189 16.583
12.5341 16.854
12.5493 16.496
12.5644 16.116
12.5796 16.313
12.5948 16.532
12.6100 16.161
12.6251 16.004
12.6403 15.954
12.6555 15.744
12.6707 15.862
12.6858 15.620
12.7010 15.683
12.7162 15.750
12.7314 15.558
12.7465 15.455
12.7617 15.195
12.7769 15.044
12.7921 15.269
12.8072 15.328
12.8224 15.225
12.8376 15.039
12.8528 14.792
12.8679 14.849
12.8831 14.995
12.8983 14.974
12.9135 14.724
12.9286 14.524
12.9438 14.280
12.9590 14.171
12.9742 14.281
12.9893 14.222
13.0045 14.241
13.0197 14.273
13.0349 14.344
13.0500 14.391
13.0652 14.285
13.0804 14.056
13.0956 13.916
13.1107 13.870
13.1259 13.798
13.1411 13.865
13.1563 13.747
13.1714 13.551
13.1866 13.474
13.2018 13.439
13.2170 13.465
13.2321 13.557
13.2473 13.644
13.2625 13.486
13.2777 13.218
13.2928 13.408
13.3080 13.470
13.3232 13.150
13.3384 13.349
13.3535 13.354
13.3687 13.050
13.3839 12.974
13.3991 13.078
13.4142 13.093
13.4294 12.923
13.4446 12.886
13.4598 12.699
13.4749 12.604
13.4901 12.711
13.5053 12.707
13.5205 12.657
13.5356 12.536
13.5508 12.425
13.5660 12.491
13.5812 12.642
13.5963 12.514
13.6115 12.361
13.6267 12.188
13.6419 12.130
13.6570 12.286
13.6722 12.186
13.6874 12.187
13.7026 12.241
13.7177 12.153
13.7329 12.341
13.7481 12.445
13.7633 12.301
13.7784 12.281
13.7936 12.220
13.8088 11.981
13.8239 12.308
13.8391 12.637
13.8543 12.676
13.8695 12.607
13.8846 12.471
13.8998 12.370
13.9150 12.158
13.9302 12.240
13.9453 12.187
13.9605 11.951
13.9757 11.790
13.9909 11.873
14.0060 11.560
14.0212 11.577
14.0364 11.664
14.0516 11.656
14.0667 11.721
14.0819 11.638
14.0971 11.477
14.1123 11.508
14.1274 11.412
14.1426 11.103
14.1578 11.556
14.1730 11.441
14.1881 11.665
14.2033 11.924
14.2185 11.413
14.2337 11.462
14.2488 11.468
14.2640 11.555
14.2792 11.300
14.2944 11.562
14.3095 11.480
14.3247 11.671
14.3399 12.277
14.3551 12.598
14.3702 12.700
14.3854 12.923
14.4006 13.294
14.4158 13.383
14.4309 13.097
14.4461 13.052
14.4613 12.980
14.4765 12.737
14.4916 12.611
14.5068 12.419
14.5220 12.082
14.5372 11.759
14.5523 11.521
14.5675 11.079
14.5827 10.992
14.5979 10.816
14.6130 10.970
14.6282 11.098
14.6434 11.099
14.6586 10.859
14.6737 10.930
14.6889 11.024
14.7041 11.025
14.7193 11.033
14.7344 10.810
14.7496 10.774
14.7648 10.963
14.7800 10.574
14.7951 11.052
14.8103 11.035
14.8255 10.700
14.8407 10.604
14.8558 10.923
14.8710 10.769
14.8862 10.714
14.9014 10.793
14.9165 11.149
14.9317 10.929
14.9469 10.470
14.9621 10.588
14.9772 10.288
14.9924 10.576
15.0076 10.432
15.0228 10.660
15.0379 10.698
15.0531 10.468
15.0683 10.269
15.0835 10.407
15.0986 10.451
15.1138 10.163
15.1290 10.248
15.1442 10.278
15.1593 10.232
15.1745 10.160
15.1897 10.180
15.2049 10.138
15.2200 10.504
15.2352 10.217
15.2504 10.380
15.2656 9.955
15.2807 10.084
15.2959 10.188
15.3111 10.488
15.3263 10.270
15.3414 10.048
15.3566 10.302
15.3718 10.202
15.3870 10.468
15.4021 10.421
15.4173 10.573
15.4325 10.256
15.4477 10.624
15.4628 10.249
15.4780 10.186
15.4932 10.397
15.5084 10.545
15.5235 10.452
15.5387 10.331
15.5539 10.203
15.5691 10.123
15.5842 10.010
15.5994 10.172
15.6146 10.275
15.6298 9.854
15.6449 9.966
15.6601 9.600
15.6753 9.833
15.6905 9.960
15.7056 10.095
15.7208 10.051
15.7360 9.730
15.7512 10.029
15.7663 9.485
15.7815 9.698
15.7967 9.965
15.8119 9.853
15.8270 9.888
15.8422 10.191
15.8574 9.976
15.8726 9.799
15.8877 9.928
15.9029 9.635
15.9181 9.826
15.9333 9.772
15.9484 9.812
15.9636 9.984
15.9788 9.645
15.9940 9.909
16.0091 9.859
16.0243 9.671
16.0395 9.721
16.0547 9.830
16.0698 10.135
16.0850 9.884
16.1002 9.683
16.1154 9.541
16.1305 9.552
16.1457 9.733
16.1609 9.701
16.1761 9.687
16.1912 9.745
16.2064 9.887
16.2216 9.813
16.2368 9.688
16.2519 9.717
16.2671 10.051
16.2823 9.868
16.2975 10.106
16.3126 10.151
16.3278 10.327
16.3430 10.099
16.3582 10.335
16.3733 10.462
16.3885 10.304
16.4037 10.038
16.4189 9.991
16.4340 9.876
16.4492 9.805
16.4644 9.918
16.4796 10.045
16.4947 10.144
16.5099 9.646
16.5251 9.620
16.5403 9.862
16.5554 9.739
16.5706 9.743
16.5858 9.859
16.6010 9.855
16.6161 10.075
16.6313 9.948
16.6465 9.922
16.6617 9.808
16.6768 9.869
16.6920 9.988
16.7072 10.042
16.7224 9.985
16.7375 9.955
16.7527 10.132
16.7679 10.137
16.7831 9.955
16.7982 9.979
16.8134 10.216
16.8286 9.950
16.8438 9.840
16.8589 10.064
16.8741 10.141
16.8893 10.195
16.9045 9.953
16.9196 9.770
16.9348 9.918
16.9500 9.919
16.9652 9.853
16.9803 9.960
16.9955 9.873
17.0107 9.854
17.0259 9.861
17.0410 10.243
17.0562 10.381
17.0714 10.371
17.0866 10.485
17.1017 10.506
17.1169 10.711
17.1321 10.942
17.1473 11.516
17.1624 11.972
17.1776 12.356
17.1928 13.179
17.2080 14.182
17.2231 15.267
17.2383 16.383
17.2535 17.677
17.2687 18.610
17.2838 18.571
17.2990 18.018
17.3142 17.197
17.3294 16.555
17.3445 16.143
17.3597 16.077
17.3749 15.910
17.3901 14.973
17.4052 13.882
17.4204 12.880
17.4356 12.159
17.4508 11.735
17.4659 11.403
17.4811 11.158
17.4963 11.293
17.5115 11.378
17.5266 10.959
17.5418 10.570
17.5570 10.532
17.5722 10.694
17.5873 10.782
17.6025 10.762
17.6177 10.792
17.6329 10.866
17.6480 10.942
17.6632 11.148
17.6784 11.314
17.6936 11.274
17.7087 10.987
17.7239 10.933
17.7391 10.983
17.7543 10.941
17.7694 11.120
17.7846 11.168
17.7998 11.195
17.8150 11.148
17.8301 10.898
17.8453 10.830
17.8605 10.612
17.8757 10.636
17.8908 10.878
17.9060 10.832
17.9212 10.655
17.9364 10.515
17.9515 10.399
17.9667 10.225
17.9819 10.450
17.9971 10.274
18.0122 10.291
18.0274 10.624
18.0426 10.459
18.0578 10.124
18.0729 10.080
18.0881 10.060
18.1033 9.970
18.1185 9.911
18.1336 9.948
18.1488 10.173
18.1640 10.136
18.1792 9.848
18.1943 9.813
18.2095 9.898
18.2247 9.974
18.2399 10.125
18.2550 10.071
18.2702 9.965
18.2854 9.852
18.3006 9.681
18.3157 9.736
18.3309 9.819
18.3461 9.986
18.3613 9.826
18.3764 9.630
18.3916 9.928
18.4068 9.961
18.4220 9.956
18.4371 9.787
18.4523 9.806
18.4675 9.940
18.4827 9.867
18.4978 9.718
18.5130 9.770
18.5282 9.795
18.5434 9.831
18.5585 9.967
18.5737 9.773
18.5889 9.571
18.6041 9.827
18.6192 9.975
18.6344 10.034
18.6496 9.896
18.6648 9.865
18.6799 9.823
18.6951 9.713
18.7103 9.692
18.7255 9.692
18.7406 9.604
18.7558 9.678
18.7710 9.663
18.7862 9.853
18.8013 9.782
18.8165 9.606
18.8317 9.864
18.8469 9.871
18.8620 9.827
18.8772 9.820
18.8924 9.978
18.9076 10.100
18.9227 9.819
18.9379 9.858
18.9531 9.917
18.9683 9.794
18.9834 9.761
18.9986 9.953
19.0138 9.903
19.0290 9.924
19.0441 10.061
19.0593 10.228
19.0745 10.232
19.0897 10.319
19.1048 10.359
19.1200 10.491
19.1352 10.510
19.1504 10.419
19.1655 10.707
19.1807 10.784
19.1959 10.767
19.2111 10.892
19.2262 10.848
19.2414 11.049
19.2566 10.960
19.2718 10.837
19.2869 10.989
19.3021 10.863
19.3173 10.702
19.3325 10.958
19.3476 11.189
19.3628 11.169
19.3780 11.032
19.3932 11.193
19.4083 11.226
19.4235 11.281
19.4387 11.359
19.4539 11.211
19.4690 11.347
19.4842 11.432
19.4994 11.506
19.5146 11.448
19.5297 11.362
19.5449 11.537
19.5601 11.649
19.5753 11.656
19.5904 11.623
19.6056 11.779
19.6208 11.726
19.6360 11.658
19.6511 11.642
19.6663 11.705
19.6815 11.756
19.6967 11.663
19.7118 11.635
19.7270 11.735
19.7422 11.910
19.7574 11.806
19.7725 11.695
19.7877 11.783
19.8029 11.908
19.8180 12.154
19.8332 12.090
19.8484 11.831
19.8636 12.006
19.8787 12.383
19.8939 12.719
19.9091 12.911
19.9243 13.374
19.9394 13.676
19.9546 13.969
19.9698 14.333
19.9850 14.318
20.0001 14.205
20.0153 14.067
20.0305 13.855
20.0457 13.795
20.0608 13.669
20.0760 13.715
20.0912 13.595
20.1064 13.521
20.1215 13.611
20.1367 13.279
20.1519 12.831
20.1671 12.800
20.1822 12.713
20.1974 12.608
20.2126 12.671
20.2278 12.542
20.2429 12.214
20.2581 12.005
20.2733 11.851
20.2885 11.957
20.3036 11.919
20.3188 11.934
20.3340 11.847
20.3492 11.868
20.3643 11.575
20.3795 11.657
20.3947 11.576
20.4099 11.333
20.4250 11.241
20.4402 11.300
20.4554 11.088
20.4706 11.429
20.4857 11.337
20.5009 11.068
20.5161 11.176
20.5313 11.382
20.5464 11.075
20.5616 11.115
20.5768 10.980
20.5920 11.039
20.6071 10.868
20.6223 10.703
20.6375 10.653
20.6527 10.609
20.6678 10.340
20.6830 10.273
20.6982 10.457
20.7134 10.579
20.7285 10.426
20.7437 10.717
20.7589 10.294
20.7741 10.304
20.7892 10.204
20.8044 10.392
20.8196 10.246
20.8348 10.429
20.8499 10.500
20.8651 10.345
20.8803 10.682
20.8955 10.415
20.9106 10.242
20.9258 10.320
20.9410 10.266
20.9562 10.144
20.9713 10.426
20.9865 10.324
21.0017 10.187
21.0169 10.048
21.0320 9.963
21.0472 9.917
21.0624 10.263
21.0776 10.204
21.0927 9.991
21.1079 10.044
21.1231 9.723
21.1383 10.013
21.1534 10.026
21.1686 9.866
21.1838 9.819
21.1990 9.682
21.2141 9.480
21.2293 9.828
21.2445 9.472
21.2597 9.412
21.2748 9.209
21.2900 9.469
21.3052 9.572
21.3204 9.802
21.3355 9.287
21.3507 9.629
21.3659 9.450
21.3811 9.361
21.3962 9.498
21.4114 9.745
21.4266 9.400
21.4418 9.658
21.4569 9.318
21.4721 9.582
21.4873 9.442
21.5025 9.408
21.5176 9.383
21.5328 9.380
21.5480 9.211
21.5632 9.227
21.5783 9.084
21.5935 9.241
21.6087 9.330
21.6239 9.350
21.6390 9.440
21.6542 9.087
21.6694 9.100
21.6846 9.033
21.6997 9.032
21.7149 9.036
21.7301 9.195
21.7453 9.411
21.7604 9.298
21.7756 9.175
21.7908 9.254
21.8060 9.104
21.8211 9.003
21.8363 8.842
21.8515 8.977
21.8667 9.077
21.8818 9.130
21.8970 9.130
21.9122 9.034
21.9274 8.892
21.9425 9.049
21.9577 8.991
21.9729 9.017
21.9881 9.019
22.0032 8.865
22.0184 8.589
22.0336 8.716
22.0488 8.795
22.0639 8.612
22.0791 8.572
22.0943 8.749
22.1095 8.957
22.1246 8.937
22.1398 8.647
22.1550 8.600
22.1702 8.687
22.1853 8.691
22.2005 8.811
22.2157 8.714
22.2309 8.635
22.2460 8.539
22.2612 8.342
22.2764 8.412
22.2916 8.574
22.3067 8.660
22.3219 8.718
22.3371 8.779
22.3523 8.650
22.3674 8.492
22.3826 8.572
22.3978 8.495
22.4130 8.189
22.4281 8.168
22.4433 8.391
22.4585 8.466
22.4737 8.602
22.4888 8.297
22.5040 8.513
22.5192 8.579
22.5344 8.748
22.5495 8.830
22.5647 8.600
22.5799 8.343
22.5951 8.588
22.6102 8.589
22.6254 8.533
22.6406 8.553
22.6558 8.446
22.6709 8.358
22.6861 8.618
22.7013 8.315
22.7165 8.149
22.7316 6.633
