'Id: "" Comment: "" Operator: "Lab Manager" Anode: "Mo" Scantype: "Still (Eiger2R_500K (1D mode))" TimePerStep: "300" X: "11.8" Y: "9.4" Z: "11.284" 
7.2532 18.653
7.2684 19.282
7.2836 18.354
7.2987 19.073
7.3139 18.776
7.3291 18.990
7.3443 19.082
7.3594 18.992
7.3746 19.294
7.3898 19.392
7.4050 19.103
7.4201 19.207
7.4353 19.101
7.4505 19.141
7.4657 19.136
7.4808 19.229
7.4960 19.634
7.5112 19.626
7.5264 19.281
7.5415 19.767
7.5567 19.727
7.5719 19.525
7.5871 19.809
7.6022 19.704
7.6174 19.905
7.6326 19.885
7.6478 20.107
7.6629 20.160
7.6781 20.291
7.6933 20.321
7.7085 19.976
7.7236 19.896
7.7388 19.966
7.7540 20.075
7.7692 20.314
7.7843 20.488
7.7995 20.502
7.8147 20.464
7.8299 20.705
7.8450 20.694
7.8602 20.741
7.8754 20.716
7.8905 20.440
7.9057 20.397
7.9209 20.916
7.9361 20.899
7.9512 20.732
7.9664 20.834
7.9816 21.125
7.9968 21.076
8.0119 21.410
8.0271 21.107
8.0423 21.175
8.0575 21.221
8.0726 21.498
8.0878 21.548
8.1030 21.082
8.1182 21.141
8.1333 21.131
8.1485 21.192
8.1637 21.286
8.1789 21.222
8.1940 21.110
8.2092 21.616
8.2244 21.670
8.2396 21.401
8.2547 21.851
8.2699 22.026
8.2851 21.825
8.3003 21.346
8.3154 21.507
8.3306 21.582
8.3458 21.877
8.3610 21.948
8.3761 21.730
8.3913 21.737
8.4065 21.445
8.4217 21.684
8.4368 21.333
8.4520 21.915
8.4672 21.921
8.4824 21.987
8.4975 22.046
8.5127 21.717
8.5279 22.157
8.5431 21.795
8.5582 22.469
8.5734 22.223
8.5886 22.025
8.6038 21.836
8.6189 21.829
8.6341 22.341
8.6493 22.042
8.6645 21.967
8.6796 22.551
8.6948 22.300
8.7100 22.333
8.7252 22.477
8.7403 21.962
8.7555 22.038
8.7707 22.006
8.7859 22.282
8.8010 22.687
8.8162 22.088
8.8314 22.180
8.8466 22.262
8.8617 22.356
8.8769 22.061
8.8921 22.394
8.9073 21.788
8.9224 21.945
8.9376 22.466
8.9528 22.320
8.9680 22.624
8.9831 22.564
8.9983 22.478
9.0135 22.577
9.0287 22.704
9.0438 22.267
9.0590 22.608
9.0742 22.389
9.0894 21.985
9.1045 22.317
9.1197 22.565
9.1349 22.966
9.1501 22.977
9.1652 22.780
9.1804 22.948
9.1956 22.832
9.2108 22.499
9.2259 22.504
9.2411 22.184
9.2563 22.785
9.2715 23.073
9.2866 22.959
9.3018 23.117
9.3170 22.839
9.3322 22.718
9.3473 23.147
9.3625 22.873
9.3777 23.147
9.3929 22.904
9.4080 22.909
9.4232 23.079
9.4384 23.126
9.4536 22.801
9.4687 22.978
9.4839 22.950
9.4991 23.008
9.5143 22.874
9.5294 22.829
9.5446 22.755
9.5598 22.746
9.5750 23.062
9.5901 22.984
9.6053 23.211
9.6205 23.304
9.6357 23.275
9.6508 23.274
9.6660 23.321
9.6812 23.523
9.6964 23.668
9.7115 23.782
9.7267 23.939
9.7419 24.082
9.7571 24.102
9.7722 23.833
9.7874 23.432
9.8026 23.201
9.8178 23.506
9.8329 23.537
9.8481 23.289
9.8633 23.062
9.8785 23.506
9.8936 23.742
9.9088 23.448
9.9240 23.329
9.9392 23.333
9.9543 23.220
9.9695 23.230
9.9847 23.261
9.9999 23.061
10.0150 22.834
10.0302 22.920
10.0454 23.165
10.0606 22.912
10.0757 23.055
10.0909 23.033
10.1061 23.123
10.1213 23.263
10.1364 22.857
10.1516 23.156
10.1668 23.417
10.1820 23.669
10.1971 23.075
10.2123 22.800
10.2275 22.947
10.2427 22.895
10.2578 23.065
10.2730 22.910
10.2882 23.158
10.3034 22.738
10.3185 22.415
10.3337 22.493
10.3489 22.563
10.3641 22.499
10.3792 22.217
10.3944 22.583
10.4096 22.637
10.4248 22.821
10.4399 22.458
10.4551 22.318
10.4703 22.263
10.4855 22.003
10.5006 22.347
10.5158 22.363
10.5310 22.515
10.5462 22.587
10.5613 22.398
10.5765 22.605
10.5917 22.423
10.6069 22.433
10.6220 22.376
10.6372 22.324
10.6524 22.184
10.6676 21.911
10.6827 22.449
10.6979 22.459
10.7131 22.123
10.7283 22.252
10.7434 22.486
10.7586 22.358
10.7738 22.210
10.7890 22.206
10.8041 22.396
10.8193 22.362
10.8345 22.190
10.8497 22.257
10.8648 22.261
10.8800 22.142
10.8952 21.992
10.9104 21.984
10.9255 22.226
10.9407 22.382
10.9559 22.313
10.9711 21.893
10.9862 21.928
11.0014 21.846
11.0166 21.788
11.0318 21.884
11.0469 21.803
11.0621 21.913
11.0773 21.948
11.0925 21.926
11.1076 21.643
11.1228 21.646
11.1380 21.666
11.1532 21.516
11.1683 21.737
11.1835 21.319
11.1987 21.711
11.2139 21.548
11.2290 21.589
11.2442 21.565
11.2594 21.329
11.2746 21.330
11.2897 21.331
11.3049 21.413
11.3201 21.478
11.3353 21.431
11.3504 21.044
11.3656 21.198
11.3808 21.542
11.3960 21.499
11.4111 21.547
11.4263 21.426
11.4415 20.978
11.4567 20.829
11.4718 20.895
11.4870 21.266
11.5022 21.307
11.5174 21.064
11.5325 20.829
11.5477 20.784
11.5629 21.094
11.5781 20.928
11.5932 20.541
11.6084 20.639
11.6236 21.147
11.6388 20.592
11.6539 20.605
11.6691 20.846
11.6843 20.311
11.6995 20.633
11.7146 20.463
11.7298 20.556
11.7450 20.198
11.7602 19.859
11.7753 19.913
11.7905 19.936
11.8057 20.121
11.8209 19.962
11.8360 19.628
11.8512 19.848
11.8664 19.901
11.8816 20.113
11.8967 19.812
11.9119 19.794
11.9271 19.750
11.9423 19.408
11.9574 19.582
11.9726 19.600
11.9878 19.218
12.0030 19.413
12.0181 19.349
12.0333 19.070
12.0485 19.077
12.0637 18.793
12.0788 18.925
12.0940 18.982
12.1092 19.095
12.1244 18.536
12.1395 18.380
12.1547 18.441
12.1699 18.595
12.1851 18.420
12.2002 18.061
12.2154 18.262
12.2306 18.171
12.2458 17.998
12.2609 17.753
12.2761 17.825
12.2913 17.892
12.3065 17.745
12.3216 17.458
12.3368 17.500
12.3520 17.189
12.3672 17.230
12.3823 17.394
12.3975 16.944
12.4127 17.051
12.4279 17.294
12.4430 16.993
12.4582 16.649
12.4734 16.549
12.4886 16.517
12.5037 16.478
12.5189 16.590
12.5341 16.730
12.5493 16.730
12.5644 16.575
12.5796 16.170
12.5948 16.294
12.6100 16.223
12.6251 16.161
12.6403 15.985
12.6555 15.603
12.6707 15.755
12.6858 15.618
12.7010 15.730
12.7162 15.636
12.7314 15.654
12.7465 15.677
12.7617 15.407
12.7769 15.295
12.7921 15.311
12.8072 15.248
12.8224 15.014
12.8376 15.132
12.8528 15.114
12.8679 14.998
12.8831 14.912
12.8983 14.938
12.9135 14.572
12.9286 14.352
12.9438 14.527
12.9590 14.647
12.9742 14.581
12.9893 14.443
13.0045 14.367
13.0197 13.920
13.0349 13.755
13.0500 13.984
13.0652 13.979
13.0804 13.820
13.0956 13.936
13.1107 13.891
13.1259 13.703
13.1411 13.602
13.1563 13.561
13.1714 13.643
13.1866 13.476
13.2018 13.651
13.2170 13.697
13.2321 13.361
13.2473 13.305
13.2625 13.459
13.2777 13.571
13.2928 13.125
13.3080 12.817
13.3232 12.944
13.3384 13.066
13.3535 13.214
13.3687 13.280
13.3839 13.220
13.3991 13.092
13.4142 12.953
13.4294 12.852
13.4446 12.894
13.4598 12.755
13.4749 12.522
13.4901 12.435
13.5053 12.493
13.5205 12.514
13.5356 12.480
13.5508 12.475
13.5660 12.399
13.5812 12.356
13.5963 12.255
13.6115 12.484
13.6267 12.443
13.6419 12.330
13.6570 12.002
13.6722 11.898
13.6874 12.227
13.7026 12.286
13.7177 12.263
13.7329 12.084
13.7481 11.961
13.7633 11.837
13.7784 12.081
13.7936 12.230
13.8088 12.206
13.8239 12.214
13.8391 12.237
13.8543 12.160
13.8695 12.141
13.8846 12.232
13.8998 12.246
13.9150 12.316
13.9302 12.024
13.9453 12.034
13.9605 12.125
13.9757 12.171
13.9909 11.773
14.0060 11.654
14.0212 11.734
14.0364 12.039
14.0516 11.806
14.0667 11.851
14.0819 11.844
14.0971 11.821
14.1123 11.851
14.1274 11.582
14.1426 11.550
14.1578 11.456
14.1730 11.475
14.1881 11.699
14.2033 11.604
14.2185 11.642
14.2337 11.780
14.2488 11.891
14.2640 11.877
14.2792 11.917
14.2944 11.875
14.3095 12.118
14.3247 12.589
14.3399 12.686
14.3551 12.477
14.3702 12.585
14.3854 12.953
14.4006 13.063
14.4158 12.943
14.4309 12.648
14.4461 12.572
14.4613 12.419
14.4765 12.336
14.4916 12.198
14.5068 12.083
14.5220 11.892
14.5372 11.652
14.5523 11.502
14.5675 11.372
14.5827 10.944
14.5979 10.963
14.6130 10.905
14.6282 11.009
14.6434 10.830
14.6586 10.706
14.6737 10.818
14.6889 10.693
14.7041 10.836
14.7193 10.472
14.7344 10.667
14.7496 10.798
14.7648 10.552
14.7800 10.424
14.7951 10.482
14.8103 10.548
14.8255 10.416
14.8407 10.377
14.8558 10.396
14.8710 10.487
14.8862 10.083
14.9014 10.479
14.9165 10.879
14.9317 10.763
14.9469 10.508
14.9621 10.795
14.9772 10.333
14.9924 10.199
15.0076 10.722
15.0228 10.424
15.0379 10.127
15.0531 9.886
15.0683 10.519
15.0835 10.101
15.0986 10.416
15.1138 10.181
15.1290 10.144
15.1442 10.102
15.1593 9.648
15.1745 10.038
15.1897 10.059
15.2049 10.184
15.2200 9.915
15.2352 10.073
15.2504 10.150
15.2656 10.077
15.2807 10.341
15.2959 9.965
15.3111 10.084
15.3263 9.819
15.3414 9.806
15.3566 9.646
15.3718 10.168
15.3870 10.034
15.4021 9.827
15.4173 10.148
15.4325 10.192
15.4477 9.960
15.4628 9.840
15.4780 9.662
15.4932 10.195
15.5084 10.393
15.5235 9.949
15.5387 9.756
15.5539 9.860
15.5691 10.114
15.5842 9.931
15.5994 9.667
15.6146 9.708
15.6298 9.886
15.6449 9.828
15.6601 9.837
15.6753 9.835
15.6905 10.377
15.7056 10.049
15.7208 9.978
15.7360 9.657
15.7512 9.550
15.7663 9.561
15.7815 9.544
15.7967 9.564
15.8119 9.642
15.8270 9.474
15.8422 9.570
15.8574 9.885
15.8726 9.856
15.8877 9.684
15.9029 9.621
15.9181 9.611
15.9333 9.603
15.9484 9.589
15.9636 9.576
15.9788 9.507
15.9940 9.579
16.0091 9.518
16.0243 9.373
16.0395 9.536
16.0547 9.357
16.0698 9.514
16.0850 9.768
16.1002 9.896
16.1154 9.450
16.1305 9.439
16.1457 9.500
16.1609 9.759
16.1761 9.915
16.1912 9.678
16.2064 9.522
16.2216 9.667
16.2368 9.902
16.2519 9.691
16.2671 9.700
16.2823 9.483
16.2975 9.669
16.3126 9.852
16.3278 10.035
16.3430 9.652
16.3582 10.041
16.3733 9.798
16.3885 9.795
16.4037 9.843
16.4189 9.565
16.4340 9.452
16.4492 9.493
16.4644 9.487
16.4796 9.559
16.4947 9.445
16.5099 9.585
16.5251 9.324
16.5403 9.479
16.5554 9.610
16.5706 9.378
16.5858 9.535
16.6010 9.379
16.6161 9.403
16.6313 9.503
16.6465 9.605
16.6617 9.882
16.6768 9.735
16.6920 9.647
16.7072 10.068
16.7224 10.217
16.7375 9.788
16.7527 9.784
16.7679 9.927
16.7831 9.949
16.7982 9.822
16.8134 9.648
16.8286 9.666
16.8438 9.748
16.8589 9.582
16.8741 9.477
16.8893 9.693
16.9045 9.747
16.9196 9.697
16.9348 9.593
16.9500 9.711
16.9652 9.805
16.9803 9.655
16.9955 9.792
17.0107 9.996
17.0259 9.900
17.0410 10.152
17.0562 10.264
17.0714 10.325
17.0866 10.504
17.1017 10.625
17.1169 10.761
17.1321 10.891
17.1473 10.967
17.1624 11.492
17.1776 12.132
17.1928 12.883
17.2080 13.849
17.2231 14.914
17.2383 16.314
17.2535 17.587
17.2687 18.454
17.2838 18.644
17.2990 17.957
17.3142 17.125
17.3294 16.288
17.3445 15.979
17.3597 16.392
17.3749 16.473
17.3901 15.576
17.4052 14.263
17.4204 13.099
17.4356 12.400
17.4508 12.104
17.4659 11.831
17.4811 11.711
17.4963 11.523
17.5115 11.295
17.5266 10.973
17.5418 10.956
17.5570 10.909
17.5722 10.828
17.5873 10.869
17.6025 10.877
17.6177 11.098
17.6329 11.074
17.6480 11.332
17.6632 11.603
17.6784 11.481
17.6936 11.315
17.7087 11.419
17.7239 11.434
17.7391 11.275
17.7543 11.219
17.7694 11.084
17.7846 11.015
17.7998 10.729
17.8150 10.689
17.8301 10.589
17.8453 10.300
17.8605 10.270
17.8757 10.326
17.8908 10.354
17.9060 10.403
17.9212 10.429
17.9364 10.414
17.9515 9.972
17.9667 9.937
17.9819 10.229
17.9971 10.180
18.0122 10.114
18.0274 10.118
18.0426 10.055
18.0578 10.076
18.0729 10.047
18.0881 9.889
18.1033 9.840
18.1185 10.268
18.1336 10.159
18.1488 9.991
18.1640 10.041
18.1792 10.175
18.1943 10.054
18.2095 9.876
18.2247 10.013
18.2399 9.998
18.2550 9.886
18.2702 9.848
18.2854 9.874
18.3006 10.019
18.3157 9.994
18.3309 9.970
18.3461 9.984
18.3613 9.761
18.3764 9.568
18.3916 9.658
18.4068 9.849
18.4220 9.677
18.4371 9.741
18.4523 9.711
18.4675 9.773
18.4827 9.840
18.4978 9.774
18.5130 9.606
18.5282 9.772
18.5434 9.862
18.5585 9.798
18.5737 10.036
18.5889 10.074
18.6041 9.834
18.6192 9.805
18.6344 9.657
18.6496 9.865
18.6648 9.888
18.6799 9.794
18.6951 9.988
18.7103 10.094
18.7255 9.967
18.7406 9.823
18.7558 9.973
18.7710 9.873
18.7862 9.753
18.8013 9.676
18.8165 9.575
18.8317 9.604
18.8469 9.707
18.8620 9.842
18.8772 9.966
18.8924 10.075
18.9076 10.046
18.9227 10.057
18.9379 9.970
18.9531 9.926
18.9683 10.001
18.9834 10.017
18.9986 10.067
19.0138 10.100
19.0290 10.033
19.0441 10.166
19.0593 10.233
19.0745 10.267
19.0897 10.225
19.1048 10.140
19.1200 10.162
19.1352 10.447
19.1504 10.343
19.1655 10.482
19.1807 10.433
19.1959 10.549
19.2111 10.672
19.2262 10.723
19.2414 10.860
19.2566 10.925
19.2718 10.868
19.2869 10.884
19.3021 11.123
19.3173 11.213
19.3325 11.286
19.3476 11.254
19.3628 11.248
19.3780 11.189
19.3932 11.127
19.4083 11.144
19.4235 11.173
19.4387 11.284
19.4539 11.524
19.4690 11.508
19.4842 11.454
19.4994 11.570
19.5146 11.436
19.5297 11.679
19.5449 11.815
19.5601 11.644
19.5753 11.851
19.5904 11.794
19.6056 11.861
19.6208 11.851
19.6360 11.781
19.6511 11.796
19.6663 11.777
19.6815 11.706
19.6967 11.673
19.7118 11.741
19.7270 11.833
19.7422 11.752
19.7574 11.860
19.7725 12.094
19.7877 12.113
19.8029 11.988
19.8180 12.063
19.8332 12.449
19.8484 12.615
19.8636 12.763
19.8787 12.983
19.8939 12.984
19.9091 13.060
19.9243 13.159
19.9394 13.757
19.9546 14.432
19.9698 14.319
19.9850 14.725
20.0001 14.680
20.0153 14.357
20.0305 14.265
20.0457 13.907
20.0608 13.957
20.0760 13.976
20.0912 13.751
20.1064 13.749
20.1215 13.724
20.1367 13.479
20.1519 13.279
20.1671 13.020
20.1822 13.004
20.1974 13.070
20.2126 12.995
20.2278 12.587
20.2429 12.621
20.2581 12.499
20.2733 12.344
20.2885 12.070
20.3036 11.940
20.3188 11.993
20.3340 12.207
20.3492 12.289
20.3643 12.165
20.3795 12.067
20.3947 11.712
20.4099 11.758
20.4250 11.923
20.4402 11.750
20.4554 11.827
20.4706 11.909
20.4857 11.748
20.5009 11.467
20.5161 11.330
20.5313 11.130
20.5464 11.465
20.5616 11.514
20.5768 11.219
20.5920 11.207
20.6071 11.384
20.6223 10.874
20.6375 10.620
20.6527 10.620
20.6678 10.703
20.6830 10.835
20.6982 10.565
20.7134 10.484
20.7285 10.439
20.7437 10.371
20.7589 10.524
20.7741 10.593
20.7892 10.353
20.8044 10.533
20.8196 10.311
20.8348 10.285
20.8499 10.259
20.8651 10.155
20.8803 10.435
20.8955 10.338
20.9106 10.495
20.9258 10.275
20.9410 10.468
20.9562 10.309
20.9713 10.069
20.9865 10.094
21.0017 10.293
21.0169 10.312
21.0320 10.362
21.0472 9.970
21.0624 10.088
21.0776 10.082
21.0927 9.990
21.1079 10.009
21.1231 9.833
21.1383 9.937
21.1534 10.008
21.1686 10.163
21.1838 9.926
21.1990 9.851
21.2141 9.561
21.2293 9.703
21.2445 9.733
21.2597 9.799
21.2748 9.579
21.2900 9.523
21.3052 9.928
21.3204 9.705
21.3355 9.932
21.3507 9.672
21.3659 9.383
21.3811 9.729
21.3962 9.494
21.4114 9.351
21.4266 9.453
21.4418 9.528
21.4569 9.633
21.4721 9.710
21.4873 9.350
21.5025 9.494
21.5176 9.665
21.5328 9.487
21.5480 9.111
21.5632 9.432
21.5783 8.986
21.5935 9.241
21.6087 9.232
21.6239 9.359
21.6390 9.183
21.6542 9.171
21.6694 9.193
21.6846 9.097
21.6997 9.133
21.7149 9.115
21.7301 9.110
21.7453 8.949
21.7604 8.880
21.7756 8.923
21.7908 8.890
21.8060 8.928
21.8211 9.008
21.8363 9.150
21.8515 9.034
21.8667 9.035
21.8818 9.256
21.8970 9.090
21.9122 8.992
21.9274 8.978
21.9425 9.077
21.9577 9.166
21.9729 8.912
21.9881 8.884
22.0032 8.940
22.0184 9.017
22.0336 8.987
22.0488 8.953
22.0639 8.938
22.0791 8.732
22.0943 8.623
22.1095 8.749
22.1246 8.649
22.1398 8.603
22.1550 8.664
22.1702 8.754
22.1853 8.635
22.2005 8.751
22.2157 8.721
22.2309 8.749
22.2460 8.733
22.2612 8.622
22.2764 8.593
22.2916 8.440
22.3067 8.548
22.3219 8.636
22.3371 8.469
22.3523 8.510
22.3674 8.623
22.3826 8.534
22.3978 8.597
22.4130 8.537
22.4281 8.738
22.4433 8.601
22.4585 8.467
22.4737 8.412
22.4888 8.333
22.5040 8.645
22.5192 8.632
22.5344 8.900
22.5495 8.472
22.5647 8.694
22.5799 8.556
22.5951 8.615
22.6102 8.257
22.6254 8.662
22.6406 8.425
22.6558 8.554
22.6709 8.615
22.6861 7.980
22.7013 7.936
22.7165 8.009
22.7316 6.357
