'Id: "" Comment: "" Operator: "Lab Manager" Anode: "Mo" Scantype: "Still (Eiger2R_500K (1D mode))" TimePerStep: "300" X: "11.8" Y: "9.4" Z: "11.284" 
7.2532 18.565
7.2684 18.880
7.2836 19.021
7.2987 18.987
7.3139 18.952
7.3291 19.017
7.3443 19.008
7.3594 19.073
7.3746 19.487
7.3898 18.934
7.4050 19.291
7.4201 19.081
7.4353 19.449
7.4505 19.527
7.4657 19.834
7.4808 19.840
7.4960 19.603
7.5112 19.679
7.5264 19.722
7.5415 19.680
7.5567 20.089
7.5719 19.901
7.5871 19.925
7.6022 20.009
7.6174 20.244
7.6326 19.985
7.6478 20.339
7.6629 20.334
7.6781 20.276
7.6933 20.043
7.7085 20.002
7.7236 20.330
7.7388 20.093
7.7540 20.111
7.7692 20.199
7.7843 20.015
7.7995 20.328
7.8147 20.557
7.8299 20.577
7.8450 20.670
7.8602 20.723
7.8754 20.703
7.8905 20.799
7.9057 20.839
7.9209 20.569
7.9361 20.852
7.9512 20.846
7.9664 20.756
7.9816 20.910
7.9968 21.021
8.0119 21.078
8.0271 21.027
8.0423 21.111
8.0575 20.964
8.0726 21.207
8.0878 21.308
8.1030 21.138
8.1182 21.154
8.1333 21.054
8.1485 21.114
8.1637 21.323
8.1789 21.204
8.1940 21.468
8.2092 21.200
8.2244 21.381
8.2396 21.360
8.2547 21.141
8.2699 21.413
8.2851 21.265
8.3003 21.545
8.3154 21.658
8.3306 22.061
8.3458 21.828
8.3610 21.664
8.3761 21.352
8.3913 21.392
8.4065 21.315
8.4217 20.896
8.4368 21.510
8.4520 21.637
8.4672 22.000
8.4824 22.122
8.4975 21.655
8.5127 22.042
8.5279 21.427
8.5431 22.202
8.5582 21.993
8.5734 21.388
8.5886 21.954
8.6038 22.239
8.6189 22.163
8.6341 22.713
8.6493 22.343
8.6645 22.523
8.6796 21.849
8.6948 22.114
8.7100 22.022
8.7252 22.353
8.7403 22.074
8.7555 22.434
8.7707 22.081
8.7859 22.365
8.8010 22.615
8.8162 22.509
8.8314 22.233
8.8466 22.084
8.8617 22.194
8.8769 22.828
8.8921 22.992
8.9073 22.607
8.9224 22.890
8.9376 22.525
8.9528 22.626
8.9680 22.765
8.9831 22.899
8.9983 22.890
9.0135 22.726
9.0287 22.149
9.0438 22.482
9.0590 22.954
9.0742 22.879
9.0894 22.811
9.1045 23.101
9.1197 22.860
9.1349 22.372
9.1501 22.557
9.1652 22.632
9.1804 22.721
9.1956 22.564
9.2108 22.443
9.2259 22.728
9.2411 22.788
9.2563 22.675
9.2715 22.928
9.2866 22.952
9.3018 23.392
9.3170 23.235
9.3322 23.113
9.3473 22.890
9.3625 22.957
9.3777 23.201
9.3929 23.406
9.4080 23.235
9.4232 22.786
9.4384 22.816
9.4536 22.985
9.4687 23.123
9.4839 23.048
9.4991 23.169
9.5143 23.053
9.5294 22.959
9.5446 23.038
9.5598 23.226
9.5750 23.002
9.5901 22.945
9.6053 23.287
9.6205 22.901
9.6357 22.947
9.6508 23.618
9.6660 23.720
9.6812 23.708
9.6964 23.694
9.7115 23.837
9.7267 24.006
9.7419 24.102
9.7571 23.915
9.7722 23.737
9.7874 23.564
9.8026 23.598
9.8178 23.360
9.8329 23.312
9.8481 23.158
9.8633 23.047
9.8785 23.363
9.8936 23.331
9.9088 23.209
9.9240 23.336
9.9392 23.652
9.9543 23.334
9.9695 23.218
9.9847 23.535
9.9999 23.076
10.0150 22.614
10.0302 22.826
10.0454 23.219
10.0606 23.037
10.0757 23.197
10.0909 23.399
10.1061 23.302
10.1213 23.427
10.1364 23.463
10.1516 23.294
10.1668 23.237
10.1820 23.028
10.1971 22.949
10.2123 23.362
10.2275 23.214
10.2427 22.778
10.2578 22.830
10.2730 22.893
10.2882 22.752
10.3034 22.742
10.3185 22.730
10.3337 22.926
10.3489 22.914
10.3641 22.974
10.3792 22.732
10.3944 22.971
10.4096 22.896
10.4248 22.515
10.4399 22.676
10.4551 22.856
10.4703 22.760
10.4855 22.597
10.5006 22.563
10.5158 22.683
10.5310 22.754
10.5462 22.316
10.5613 22.125
10.5765 22.526
10.5917 22.363
10.6069 22.795
10.6220 22.769
10.6372 22.735
10.6524 22.793
10.6676 22.639
10.6827 22.945
10.6979 22.581
10.7131 22.256
10.7283 22.277
10.7434 22.263
10.7586 22.488
10.7738 22.394
10.7890 22.177
10.8041 22.281
10.8193 22.292
10.8345 22.258
10.8497 22.404
10.8648 22.074
10.8800 22.165
10.8952 22.140
10.9104 22.533
10.9255 22.431
10.9407 22.297
10.9559 22.036
10.9711 22.077
10.9862 22.146
11.0014 22.049
11.0166 22.073
11.0318 21.943
11.0469 21.579
11.0621 21.538
11.0773 21.737
11.0925 22.111
11.1076 22.025
11.1228 21.764
11.1380 21.789
11.1532 21.925
11.1683 21.462
11.1835 21.611
11.1987 22.038
11.2139 21.714
11.2290 21.569
11.2442 21.820
11.2594 21.721
11.2746 21.519
11.2897 21.889
11.3049 21.710
11.3201 21.840
11.3353 21.948
11.3504 21.838
11.3656 21.667
11.3808 21.654
11.3960 20.960
11.4111 21.001
11.4263 21.351
11.4415 21.215
11.4567 21.022
11.4718 21.157
11.4870 20.997
11.5022 21.186
11.5174 21.384
11.5325 20.800
11.5477 20.818
11.5629 21.103
11.5781 20.644
11.5932 20.579
11.6084 20.745
11.6236 21.002
11.6388 20.965
11.6539 20.884
11.6691 20.698
11.6843 20.628
11.6995 20.547
11.7146 20.660
11.7298 20.484
11.7450 20.497
11.7602 20.305
11.7753 20.087
11.7905 20.102
11.8057 19.899
11.8209 19.662
11.8360 19.726
11.8512 19.806
11.8664 19.865
11.8816 19.801
11.8967 19.716
11.9119 19.745
11.9271 19.798
11.9423 19.376
11.9574 19.159
11.9726 19.094
11.9878 19.333
12.0030 19.123
12.0181 19.073
12.0333 19.174
12.0485 19.044
12.0637 18.891
12.0788 19.131
12.0940 19.304
12.1092 18.707
12.1244 18.743
12.1395 18.378
12.1547 18.337
12.1699 18.641
12.1851 18.556
12.2002 18.359
12.2154 18.127
12.2306 18.405
12.2458 18.249
12.2609 17.951
12.2761 17.609
12.2913 17.669
12.3065 17.648
12.3216 17.486
12.3368 17.261
12.3520 17.555
12.3672 17.433
12.3823 17.224
12.3975 17.445
12.4127 17.258
12.4279 16.915
12.4430 16.585
12.4582 16.872
12.4734 16.732
12.4886 16.642
12.5037 16.745
12.5189 16.826
12.5341 16.704
12.5493 16.520
12.5644 16.233
12.5796 16.075
12.5948 16.121
12.6100 16.375
12.6251 16.051
12.6403 16.009
12.6555 16.024
12.6707 16.212
12.6858 16.016
12.7010 15.696
12.7162 15.628
12.7314 15.618
12.7465 15.530
12.7617 15.360
12.7769 15.303
12.7921 15.258
12.8072 15.187
12.8224 15.414
12.8376 15.287
12.8528 15.145
12.8679 15.069
12.8831 15.091
12.8983 14.989
12.9135 14.722
12.9286 14.477
12.9438 14.409
12.9590 14.315
12.9742 14.288
12.9893 14.406
13.0045 14.362
13.0197 14.377
13.0349 14.345
13.0500 14.184
13.0652 14.070
13.0804 14.068
13.0956 13.912
13.1107 13.617
13.1259 13.447
13.1411 13.563
13.1563 13.578
13.1714 13.622
13.1866 13.701
13.2018 13.551
13.2170 13.439
13.2321 13.326
13.2473 13.251
13.2625 13.215
13.2777 13.217
13.2928 13.207
13.3080 13.169
13.3232 12.975
13.3384 12.769
13.3535 12.804
13.3687 12.917
13.3839 12.996
13.3991 13.384
13.4142 13.407
13.4294 12.880
13.4446 12.669
13.4598 12.777
13.4749 12.756
13.4901 12.684
13.5053 12.675
13.5205 12.682
13.5356 12.432
13.5508 12.231
13.5660 12.276
13.5812 12.063
13.5963 12.139
13.6115 12.326
13.6267 12.270
13.6419 12.234
13.6570 12.139
13.6722 12.077
13.6874 12.160
13.7026 12.082
13.7177 12.087
13.7329 12.083
13.7481 12.284
13.7633 12.205
13.7784 11.991
13.7936 11.965
13.8088 12.235
13.8239 12.400
13.8391 12.380
13.8543 12.619
13.8695 12.423
13.8846 12.144
13.8998 12.110
13.9150 12.179
13.9302 12.039
13.9453 11.897
13.9605 11.772
13.9757 11.794
13.9909 11.919
14.0060 11.940
14.0212 11.797
14.0364 11.669
14.0516 11.855
14.0667 11.679
14.0819 11.756
14.0971 11.714
14.1123 11.680
14.1274 11.515
14.1426 11.829
14.1578 11.640
14.1730 11.863
14.1881 11.759
14.2033 11.778
14.2185 11.596
14.2337 11.533
14.2488 11.386
14.2640 11.811
14.2792 11.802
14.2944 12.168
14.3095 11.875
14.3247 12.256
14.3399 12.253
14.3551 12.544
14.3702 12.662
14.3854 12.611
14.4006 12.943
14.4158 12.893
14.4309 12.930
14.4461 12.748
14.4613 12.611
14.4765 12.254
14.4916 12.096
14.5068 12.117
14.5220 11.445
14.5372 11.523
14.5523 11.213
14.5675 11.297
14.5827 11.462
14.5979 11.417
14.6130 11.042
14.6282 11.238
14.6434 10.904
14.6586 10.866
14.6737 10.682
14.6889 10.632
14.7041 10.820
14.7193 10.491
14.7344 10.457
14.7496 10.793
14.7648 10.768
14.7800 10.554
14.7951 10.826
14.8103 10.413
14.8255 10.531
14.8407 10.313
14.8558 10.423
14.8710 10.289
14.8862 10.240
14.9014 10.360
14.9165 10.725
14.9317 10.925
14.9469 10.525
14.9621 10.552
14.9772 10.101
14.9924 10.395
15.0076 10.150
15.0228 9.991
15.0379 10.620
15.0531 10.139
15.0683 9.984
15.0835 10.497
15.0986 10.506
15.1138 10.133
15.1290 10.063
15.1442 10.181
15.1593 10.406
15.1745 10.156
15.1897 10.024
15.2049 10.238
15.2200 10.081
15.2352 10.070
15.2504 10.363
15.2656 10.262
15.2807 9.785
15.2959 10.044
15.3111 9.790
15.3263 10.077
15.3414 10.156
15.3566 10.222
15.3718 10.242
15.3870 9.935
15.4021 10.070
15.4173 10.211
15.4325 10.417
15.4477 10.392
15.4628 10.055
15.4780 10.087
15.4932 10.311
15.5084 9.999
15.5235 9.848
15.5387 9.891
15.5539 9.907
15.5691 10.117
15.5842 9.928
15.5994 9.820
15.6146 9.770
15.6298 9.729
15.6449 9.787
15.6601 9.515
15.6753 9.807
15.6905 9.855
15.7056 9.662
15.7208 9.764
15.7360 9.520
15.7512 9.710
15.7663 9.461
15.7815 9.546
15.7967 9.787
15.8119 9.641
15.8270 9.954
15.8422 9.564
15.8574 9.560
15.8726 9.483
15.8877 9.580
15.9029 9.534
15.9181 9.651
15.9333 9.554
15.9484 9.824
15.9636 9.724
15.9788 9.844
15.9940 9.678
16.0091 9.390
16.0243 9.684
16.0395 9.564
16.0547 9.673
16.0698 9.696
16.0850 9.527
16.1002 9.732
16.1154 9.460
16.1305 9.515
16.1457 9.618
16.1609 9.808
16.1761 9.661
16.1912 9.348
16.2064 9.728
16.2216 9.833
16.2368 9.937
16.2519 9.840
16.2671 9.516
16.2823 9.578
16.2975 9.703
16.3126 9.837
16.3278 9.993
16.3430 9.709
16.3582 9.672
16.3733 9.981
16.3885 9.912
16.4037 9.693
16.4189 9.613
16.4340 9.541
16.4492 9.615
16.4644 9.422
16.4796 9.414
16.4947 9.663
16.5099 9.556
16.5251 9.502
16.5403 9.339
16.5554 9.439
16.5706 9.433
16.5858 9.508
16.6010 9.490
16.6161 9.424
16.6313 9.580
16.6465 9.689
16.6617 9.736
16.6768 9.792
16.6920 9.927
16.7072 9.916
16.7224 9.919
16.7375 9.547
16.7527 9.773
16.7679 9.960
16.7831 9.804
16.7982 10.007
16.8134 9.933
16.8286 9.776
16.8438 9.851
16.8589 9.883
16.8741 9.836
16.8893 9.655
16.9045 9.599
16.9196 9.605
16.9348 9.418
16.9500 9.570
16.9652 9.747
16.9803 9.844
16.9955 9.878
17.0107 9.909
17.0259 9.964
17.0410 9.991
17.0562 10.049
17.0714 10.122
17.0866 10.232
17.1017 10.542
17.1169 10.799
17.1321 11.023
17.1473 11.350
17.1624 11.576
17.1776 12.284
17.1928 13.009
17.2080 13.819
17.2231 15.149
17.2383 16.447
17.2535 17.726
17.2687 18.654
17.2838 18.668
17.2990 17.905
17.3142 17.184
17.3294 16.509
17.3445 16.105
17.3597 16.105
17.3749 15.955
17.3901 15.362
17.4052 14.407
17.4204 13.519
17.4356 12.633
17.4508 12.050
17.4659 11.913
17.4811 11.607
17.4963 11.402
17.5115 11.378
17.5266 11.208
17.5418 11.191
17.5570 10.927
17.5722 10.824
17.5873 11.041
17.6025 11.063
17.6177 11.044
17.6329 11.166
17.6480 11.594
17.6632 11.595
17.6784 11.516
17.6936 11.596
17.7087 11.465
17.7239 11.401
17.7391 11.333
17.7543 11.210
17.7694 10.935
17.7846 10.660
17.7998 10.534
17.8150 10.599
17.8301 10.577
17.8453 10.536
17.8605 10.359
17.8757 10.226
17.8908 10.226
17.9060 10.421
17.9212 10.444
17.9364 10.057
17.9515 9.958
17.9667 10.230
17.9819 10.534
17.9971 10.303
18.0122 10.076
18.0274 10.195
18.0426 10.320
18.0578 10.276
18.0729 10.126
18.0881 10.073
18.1033 10.103
18.1185 10.078
18.1336 10.058
18.1488 10.140
18.1640 10.033
18.1792 9.881
18.1943 9.904
18.2095 10.230
18.2247 10.104
18.2399 9.827
18.2550 9.706
18.2702 9.824
18.2854 9.832
18.3006 9.733
18.3157 9.814
18.3309 9.901
18.3461 9.975
18.3613 9.936
18.3764 9.849
18.3916 9.711
18.4068 9.766
18.4220 9.911
18.4371 9.773
18.4523 9.768
18.4675 9.966
18.4827 9.943
18.4978 9.800
18.5130 9.583
18.5282 9.621
18.5434 9.849
18.5585 9.958
18.5737 9.857
18.5889 9.734
18.6041 9.808
18.6192 9.734
18.6344 9.559
18.6496 9.653
18.6648 9.972
18.6799 9.920
18.6951 9.833
18.7103 9.929
18.7255 9.889
18.7406 9.797
18.7558 9.623
18.7710 9.753
18.7862 10.006
18.8013 9.864
18.8165 9.548
18.8317 9.709
18.8469 10.014
18.8620 9.992
18.8772 10.058
18.8924 10.081
18.9076 10.055
18.9227 9.966
18.9379 10.161
18.9531 10.097
18.9683 9.966
18.9834 9.995
18.9986 9.896
19.0138 10.004
19.0290 10.069
19.0441 10.094
19.0593 10.266
19.0745 10.367
19.0897 10.407
19.1048 10.535
19.1200 10.498
19.1352 10.582
19.1504 10.671
19.1655 10.773
19.1807 10.759
19.1959 10.776
19.2111 10.599
19.2262 10.917
19.2414 10.958
19.2566 10.698
19.2718 10.671
19.2869 10.732
19.3021 10.908
19.3173 11.134
19.3325 11.130
19.3476 11.099
19.3628 11.120
19.3780 11.246
19.3932 11.202
19.4083 10.939
19.4235 11.076
19.4387 11.132
19.4539 11.218
19.4690 11.504
19.4842 11.407
19.4994 11.529
19.5146 11.815
19.5297 11.756
19.5449 11.618
19.5601 11.604
19.5753 11.717
19.5904 11.764
19.6056 11.958
19.6208 12.041
19.6360 11.665
19.6511 11.650
19.6663 11.755
19.6815 11.724
19.6967 11.582
19.7118 11.674
19.7270 11.865
19.7422 11.727
19.7574 11.737
19.7725 11.918
19.7877 12.053
19.8029 12.218
19.8180 12.095
19.8332 12.187
19.8484 12.449
19.8636 12.642
19.8787 12.907
19.8939 12.951
19.9091 12.986
19.9243 13.377
19.9394 13.790
19.9546 14.056
19.9698 14.319
19.9850 14.801
20.0001 14.766
20.0153 14.109
20.0305 13.877
20.0457 13.958
20.0608 13.902
20.0760 13.997
20.0912 13.870
20.1064 13.784
20.1215 13.607
20.1367 13.397
20.1519 13.251
20.1671 12.914
20.1822 13.030
20.1974 13.295
20.2126 12.961
20.2278 12.823
20.2429 12.708
20.2581 12.336
20.2733 12.215
20.2885 12.370
20.3036 12.075
20.3188 11.787
20.3340 12.283
20.3492 12.210
20.3643 12.277
20.3795 12.148
20.3947 11.893
20.4099 11.657
20.4250 11.638
20.4402 11.770
20.4554 11.916
20.4706 12.131
20.4857 11.710
20.5009 11.388
20.5161 11.523
20.5313 11.463
20.5464 11.265
20.5616 11.492
20.5768 11.519
20.5920 11.348
20.6071 10.941
20.6223 10.675
20.6375 10.909
20.6527 10.870
20.6678 10.752
20.6830 10.598
20.6982 10.481
20.7134 10.469
20.7285 10.466
20.7437 10.465
20.7589 10.605
20.7741 10.319
20.7892 10.223
20.8044 10.608
20.8196 10.585
20.8348 10.498
20.8499 10.259
20.8651 10.213
20.8803 10.156
20.8955 10.143
20.9106 10.233
20.9258 10.422
20.9410 10.160
20.9562 10.167
20.9713 10.340
20.9865 10.385
21.0017 10.030
21.0169 10.117
21.0320 10.203
21.0472 10.238
21.0624 10.306
21.0776 9.773
21.0927 9.984
21.1079 10.087
21.1231 9.864
21.1383 9.805
21.1534 9.674
21.1686 9.897
21.1838 9.806
21.1990 9.924
21.2141 9.744
21.2293 9.760
21.2445 9.773
21.2597 9.788
21.2748 9.986
21.2900 9.532
21.3052 9.998
21.3204 9.453
21.3355 9.538
21.3507 9.537
21.3659 9.396
21.3811 9.291
21.3962 9.684
21.4114 9.337
21.4266 9.328
21.4418 9.431
21.4569 9.699
21.4721 9.418
21.4873 9.113
21.5025 9.665
21.5176 9.356
21.5328 9.352
21.5480 9.250
21.5632 9.385
21.5783 9.399
21.5935 9.411
21.6087 9.466
21.6239 9.389
21.6390 8.861
21.6542 9.034
21.6694 9.274
21.6846 9.214
21.6997 9.060
21.7149 9.086
21.7301 9.187
21.7453 9.068
21.7604 9.119
21.7756 9.067
21.7908 9.171
21.8060 9.096
21.8211 8.993
21.8363 8.879
21.8515 9.107
21.8667 9.071
21.8818 8.943
21.8970 9.007
21.9122 9.113
21.9274 9.074
21.9425 9.164
21.9577 8.992
21.9729 8.970
21.9881 8.962
22.0032 9.000
22.0184 8.840
22.0336 8.691
22.0488 8.718
22.0639 8.745
22.0791 8.947
22.0943 8.816
22.1095 8.657
22.1246 8.688
22.1398 8.639
22.1550 8.412
22.1702 8.391
22.1853 8.428
22.2005 8.559
22.2157 8.689
22.2309 8.608
22.2460 8.720
22.2612 8.833
22.2764 8.536
22.2916 8.528
22.3067 8.419
22.3219 8.440
22.3371 8.605
22.3523 8.353
22.3674 8.467
22.3826 8.115
22.3978 8.175
22.4130 8.258
22.4281 8.247
22.4433 8.296
22.4585 8.421
22.4737 8.717
22.4888 8.399
22.5040 8.516
22.5192 8.536
22.5344 8.599
22.5495 8.341
22.5647 8.247
22.5799 8.815
22.5951 8.424
22.6102 8.607
22.6254 8.462
22.6406 8.283
22.6558 8.306
22.6709 8.550
22.6861 8.270
22.7013 8.295
22.7165 8.279
22.7316 6.561
