'Id: "" Comment: "" Operator: "Lab Manager" Anode: "Mo" Scantype: "Still (Eiger2R_500K (1D mode))" TimePerStep: "300" X: "11.8" Y: "9.4" Z: "11.284" 
7.2532 18.363
7.2684 18.505
7.2836 18.273
7.2987 19.160
7.3139 18.584
7.3291 18.386
7.3443 19.099
7.3594 19.270
7.3746 19.225
7.3898 18.992
7.4050 19.129
7.4201 19.464
7.4353 19.324
7.4505 19.164
7.4657 18.946
7.4808 19.092
7.4960 19.346
7.5112 19.402
7.5264 19.402
7.5415 19.382
7.5567 19.437
7.5719 20.076
7.5871 20.023
7.6022 19.629
7.6174 19.456
7.6326 19.701
7.6478 19.934
7.6629 19.968
7.6781 20.084
7.6933 20.117
7.7085 19.882
7.7236 20.083
7.7388 20.159
7.7540 19.930
7.7692 20.006
7.7843 20.343
7.7995 20.393
7.8147 20.048
7.8299 19.877
7.8450 20.384
7.8602 20.456
7.8754 20.242
7.8905 20.296
7.9057 20.740
7.9209 20.854
7.9361 20.581
7.9512 20.581
7.9664 20.803
7.9816 21.025
7.9968 20.756
8.0119 20.724
8.0271 20.724
8.0423 20.711
8.0575 21.048
8.0726 21.090
8.0878 21.271
8.1030 20.741
8.1182 20.782
8.1333 21.374
8.1485 21.230
8.1637 20.710
8.1789 21.159
8.1940 21.509
8.2092 21.054
8.2244 21.245
8.2396 21.394
8.2547 21.253
8.2699 20.941
8.2851 21.557
8.3003 21.483
8.3154 21.437
8.3306 21.668
8.3458 21.893
8.3610 21.963
8.3761 21.764
8.3913 21.654
8.4065 21.724
8.4217 21.727
8.4368 21.804
8.4520 21.069
8.4672 21.098
8.4824 22.011
8.4975 21.704
8.5127 21.704
8.5279 21.740
8.5431 22.118
8.5582 21.819
8.5734 21.680
8.5886 21.819
8.6038 21.876
8.6189 21.876
8.6341 22.302
8.6493 21.877
8.6645 22.521
8.6796 21.667
8.6948 22.225
8.7100 22.408
8.7252 22.179
8.7403 21.813
8.7555 22.167
8.7707 22.192
8.7859 22.362
8.8010 22.318
8.8162 22.324
8.8314 22.360
8.8466 22.517
8.8617 22.732
8.8769 22.308
8.8921 22.142
8.9073 22.275
8.9224 22.525
8.9376 22.491
8.9528 22.299
8.9680 22.551
8.9831 22.690
8.9983 22.572
9.0135 22.677
9.0287 22.184
9.0438 22.416
9.0590 22.638
9.0742 22.849
9.0894 22.433
9.1045 22.452
9.1197 22.701
9.1349 22.523
9.1501 22.358
9.1652 22.793
9.1804 22.683
9.1956 22.701
9.2108 22.901
9.2259 22.447
9.2411 22.721
9.2563 22.873
9.2715 22.960
9.2866 22.845
9.3018 22.752
9.3170 22.902
9.3322 22.780
9.3473 22.685
9.3625 22.615
9.3777 22.938
9.3929 22.688
9.4080 22.728
9.4232 22.766
9.4384 22.911
9.4536 22.768
9.4687 23.005
9.4839 23.297
9.4991 23.178
9.5143 23.231
9.5294 23.314
9.5446 23.228
9.5598 23.323
9.5750 23.346
9.5901 23.006
9.6053 22.947
9.6205 23.404
9.6357 23.314
9.6508 23.229
9.6660 23.245
9.6812 23.187
9.6964 23.389
9.7115 23.716
9.7267 24.047
9.7419 24.089
9.7571 23.929
9.7722 23.770
9.7874 23.619
9.8026 23.627
9.8178 23.422
9.8329 23.179
9.8481 22.660
9.8633 22.533
9.8785 22.843
9.8936 23.071
9.9088 23.276
9.9240 23.231
9.9392 23.006
9.9543 23.007
9.9695 23.170
9.9847 23.397
9.9999 23.437
10.0150 23.385
10.0302 23.271
10.0454 23.287
10.0606 23.035
10.0757 23.164
10.0909 23.057
10.1061 23.254
10.1213 23.381
10.1364 23.159
10.1516 23.250
10.1668 23.310
10.1820 23.398
10.1971 23.235
10.2123 23.356
10.2275 23.508
10.2427 22.996
10.2578 22.861
10.2730 23.054
10.2882 22.923
10.3034 23.058
10.3185 22.899
10.3337 22.678
10.3489 22.686
10.3641 22.688
10.3792 22.917
10.3944 22.978
10.4096 22.642
10.4248 22.600
10.4399 22.534
10.4551 22.793
10.4703 22.934
10.4855 22.979
10.5006 22.565
10.5158 22.398
10.5310 22.570
10.5462 22.328
10.5613 22.048
10.5765 22.345
10.5917 22.272
10.6069 22.269
10.6220 22.635
10.6372 22.353
10.6524 22.339
10.6676 22.387
10.6827 22.592
10.6979 22.397
10.7131 22.386
10.7283 22.010
10.7434 22.380
10.7586 22.737
10.7738 22.261
10.7890 22.229
10.8041 22.517
10.8193 22.327
10.8345 22.009
10.8497 22.229
10.8648 22.432
10.8800 22.249
10.8952 22.205
10.9104 22.088
10.9255 21.908
10.9407 21.847
10.9559 22.230
10.9711 22.156
10.9862 22.092
11.0014 22.030
11.0166 22.110
11.0318 22.297
11.0469 22.082
11.0621 21.516
11.0773 21.701
11.0925 21.895
11.1076 21.672
11.1228 21.558
11.1380 21.587
11.1532 21.577
11.1683 21.976
11.1835 21.873
11.1987 21.589
11.2139 21.545
11.2290 21.597
11.2442 21.491
11.2594 21.499
11.2746 21.510
11.2897 21.280
11.3049 21.129
11.3201 21.249
11.3353 21.445
11.3504 21.444
11.3656 21.347
11.3808 21.128
11.3960 21.082
11.4111 21.440
11.4263 21.667
11.4415 21.065
11.4567 20.920
11.4718 20.731
11.4870 21.057
11.5022 21.482
11.5174 20.790
11.5325 20.992
11.5477 21.149
11.5629 21.081
11.5781 20.701
11.5932 20.486
11.6084 20.812
11.6236 20.613
11.6388 20.485
11.6539 20.407
11.6691 20.587
11.6843 20.394
11.6995 20.372
11.7146 20.381
11.7298 20.168
11.7450 20.182
11.7602 20.457
11.7753 20.191
11.7905 20.297
11.8057 20.246
11.8209 19.880
11.8360 19.763
11.8512 19.526
11.8664 19.798
11.8816 19.665
11.8967 19.983
11.9119 19.441
11.9271 19.517
11.9423 19.858
11.9574 19.219
11.9726 19.279
11.9878 19.503
12.0030 19.457
12.0181 19.442
12.0333 19.202
12.0485 19.153
12.0637 19.098
12.0788 18.913
12.0940 18.688
12.1092 18.590
12.1244 18.854
12.1395 18.855
12.1547 18.501
12.1699 18.473
12.1851 18.553
12.2002 18.482
12.2154 18.174
12.2306 18.021
12.2458 17.871
12.2609 17.592
12.2761 17.347
12.2913 17.299
12.3065 17.646
12.3216 17.564
12.3368 17.479
12.3520 17.313
12.3672 17.097
12.3823 17.123
12.3975 17.335
12.4127 17.327
12.4279 17.073
12.4430 17.124
12.4582 17.048
12.4734 16.812
12.4886 16.608
12.5037 16.522
12.5189 16.442
12.5341 16.342
12.5493 16.308
12.5644 16.407
12.5796 16.335
12.5948 16.124
12.6100 16.154
12.6251 16.159
12.6403 15.919
12.6555 15.860
12.6707 15.801
12.6858 15.860
12.7010 15.744
12.7162 15.468
12.7314 15.417
12.7465 15.403
12.7617 15.358
12.7769 15.345
12.7921 15.365
12.8072 15.224
12.8224 14.952
12.8376 14.761
12.8528 14.726
12.8679 14.775
12.8831 14.946
12.8983 14.642
12.9135 14.583
12.9286 14.871
12.9438 14.663
12.9590 14.378
12.9742 14.491
12.9893 14.438
13.0045 14.143
13.0197 14.027
13.0349 14.013
13.0500 14.051
13.0652 13.874
13.0804 13.758
13.0956 13.943
13.1107 13.769
13.1259 13.479
13.1411 13.681
13.1563 13.740
13.1714 13.513
13.1866 13.494
13.2018 13.483
13.2170 13.334
13.2321 13.507
13.2473 13.481
13.2625 13.185
13.2777 13.393
13.2928 13.293
13.3080 13.108
13.3232 13.284
13.3384 13.041
13.3535 12.929
13.3687 13.152
13.3839 13.021
13.3991 12.832
13.4142 12.840
13.4294 12.903
13.4446 12.771
13.4598 12.696
13.4749 12.796
13.4901 12.680
13.5053 12.480
13.5205 12.563
13.5356 12.494
13.5508 12.622
13.5660 12.426
13.5812 12.345
13.5963 12.486
13.6115 12.085
13.6267 11.977
13.6419 12.032
13.6570 11.922
13.6722 12.227
13.6874 12.382
13.7026 12.083
13.7177 12.039
13.7329 12.128
13.7481 12.052
13.7633 11.830
13.7784 12.018
13.7936 12.089
13.8088 12.227
13.8239 12.399
13.8391 12.456
13.8543 12.354
13.8695 12.148
13.8846 12.100
13.8998 12.164
13.9150 12.359
13.9302 12.065
13.9453 11.946
13.9605 12.021
13.9757 11.924
13.9909 11.723
14.0060 11.830
14.0212 11.757
14.0364 11.851
14.0516 11.593
14.0667 11.485
14.0819 11.807
14.0971 11.731
14.1123 11.661
14.1274 11.836
14.1426 11.350
14.1578 11.403
14.1730 11.582
14.1881 11.768
14.2033 11.983
14.2185 11.979
14.2337 11.804
14.2488 11.654
14.2640 11.751
14.2792 11.694
14.2944 11.950
14.3095 12.203
14.3247 12.214
14.3399 12.478
14.3551 12.556
14.3702 12.594
14.3854 12.551
14.4006 12.749
14.4158 13.117
14.4309 12.867
14.4461 12.815
14.4613 12.615
14.4765 12.485
14.4916 12.447
14.5068 12.109
14.5220 11.889
14.5372 11.670
14.5523 11.156
14.5675 11.332
14.5827 11.091
14.5979 11.050
14.6130 10.738
14.6282 10.516
14.6434 10.713
14.6586 10.770
14.6737 10.571
14.6889 10.851
14.7041 10.843
14.7193 10.568
14.7344 10.597
14.7496 10.538
14.7648 10.712
14.7800 10.673
14.7951 10.505
14.8103 10.227
14.8255 10.535
14.8407 10.509
14.8558 10.160
14.8710 10.444
14.8862 10.228
14.9014 10.627
14.9165 10.630
14.9317 10.588
14.9469 10.301
14.9621 10.344
14.9772 9.962
14.9924 10.096
15.0076 10.152
15.0228 10.455
15.0379 10.437
15.0531 9.981
15.0683 10.153
15.0835 10.137
15.0986 10.512
15.1138 10.287
15.1290 10.350
15.1442 9.721
15.1593 9.839
15.1745 9.991
15.1897 10.291
15.2049 10.092
15.2200 10.190
15.2352 10.142
15.2504 10.121
15.2656 10.306
15.2807 9.937
15.2959 10.179
15.3111 10.151
15.3263 9.665
15.3414 10.003
15.3566 10.040
15.3718 9.685
15.3870 10.047
15.4021 9.973
15.4173 9.743
15.4325 10.025
15.4477 10.325
15.4628 9.909
15.4780 9.970
15.4932 10.035
15.5084 9.993
15.5235 9.864
15.5387 10.139
15.5539 9.965
15.5691 9.460
15.5842 9.829
15.5994 9.714
15.6146 9.742
15.6298 9.599
15.6449 9.638
15.6601 9.635
15.6753 9.963
15.6905 9.810
15.7056 9.527
15.7208 9.433
15.7360 9.726
15.7512 9.493
15.7663 9.795
15.7815 9.491
15.7967 9.619
15.8119 9.736
15.8270 9.618
15.8422 9.721
15.8574 9.721
15.8726 9.651
15.8877 9.449
15.9029 9.318
15.9181 9.751
15.9333 9.416
15.9484 9.534
15.9636 9.138
15.9788 9.320
15.9940 9.334
16.0091 9.225
16.0243 9.430
16.0395 9.827
16.0547 9.736
16.0698 9.726
16.0850 9.719
16.1002 9.481
16.1154 9.425
16.1305 9.463
16.1457 9.533
16.1609 9.642
16.1761 9.604
16.1912 9.555
16.2064 9.634
16.2216 9.767
16.2368 9.870
16.2519 9.880
16.2671 9.879
16.2823 9.753
16.2975 9.933
16.3126 9.871
16.3278 9.824
16.3430 9.781
16.3582 9.572
16.3733 9.967
16.3885 9.734
16.4037 9.548
16.4189 9.578
16.4340 9.807
16.4492 9.754
16.4644 9.659
16.4796 9.643
16.4947 9.464
16.5099 9.551
16.5251 9.663
16.5403 9.522
16.5554 9.510
16.5706 9.578
16.5858 9.451
16.6010 9.683
16.6161 9.472
16.6313 9.527
16.6465 9.797
16.6617 9.628
16.6768 9.752
16.6920 10.092
16.7072 10.115
16.7224 9.905
16.7375 9.666
16.7527 9.708
16.7679 9.773
16.7831 9.826
16.7982 9.572
16.8134 9.486
16.8286 9.717
16.8438 9.777
16.8589 9.667
16.8741 9.593
16.8893 9.598
16.9045 9.593
16.9196 9.708
16.9348 9.648
16.9500 9.845
16.9652 9.880
16.9803 9.613
16.9955 9.795
17.0107 9.659
17.0259 9.812
17.0410 10.044
17.0562 9.836
17.0714 9.939
17.0866 10.348
17.1017 10.624
17.1169 10.630
17.1321 10.776
17.1473 11.288
17.1624 11.787
17.1776 12.355
17.1928 12.999
17.2080 13.763
17.2231 15.058
17.2383 16.271
17.2535 17.677
17.2687 18.598
17.2838 18.553
17.2990 18.037
17.3142 16.900
17.3294 16.287
17.3445 15.936
17.3597 15.874
17.3749 16.050
17.3901 15.381
17.4052 14.181
17.4204 13.084
17.4356 12.346
17.4508 11.981
17.4659 11.904
17.4811 11.579
17.4963 11.379
17.5115 11.239
17.5266 10.845
17.5418 10.767
17.5570 10.818
17.5722 10.937
17.5873 11.040
17.6025 10.931
17.6177 11.038
17.6329 11.257
17.6480 11.356
17.6632 11.545
17.6784 11.428
17.6936 11.146
17.7087 11.434
17.7239 11.532
17.7391 10.995
17.7543 10.820
17.7694 10.860
17.7846 10.824
17.7998 10.904
17.8150 10.719
17.8301 10.382
17.8453 10.446
17.8605 10.354
17.8757 10.341
17.8908 10.305
17.9060 10.150
17.9212 10.052
17.9364 9.960
17.9515 9.963
17.9667 10.176
17.9819 10.212
17.9971 10.073
18.0122 10.274
18.0274 10.223
18.0426 9.974
18.0578 9.956
18.0729 10.040
18.0881 10.075
18.1033 9.889
18.1185 9.898
18.1336 10.125
18.1488 10.009
18.1640 9.725
18.1792 9.883
18.1943 10.075
18.2095 9.952
18.2247 9.901
18.2399 9.656
18.2550 9.808
18.2702 10.042
18.2854 9.908
18.3006 9.705
18.3157 9.764
18.3309 9.820
18.3461 9.708
18.3613 9.745
18.3764 9.745
18.3916 9.681
18.4068 9.755
18.4220 9.809
18.4371 9.544
18.4523 9.744
18.4675 10.006
18.4827 10.084
18.4978 10.043
18.5130 10.062
18.5282 9.988
18.5434 9.585
18.5585 9.701
18.5737 9.873
18.5889 9.875
18.6041 9.844
18.6192 9.822
18.6344 9.999
18.6496 10.022
18.6648 9.794
18.6799 9.793
18.6951 9.824
18.7103 9.614
18.7255 9.562
18.7406 9.597
18.7558 9.769
18.7710 10.076
18.7862 9.986
18.8013 9.906
18.8165 9.707
18.8317 9.704
18.8469 9.665
18.8620 9.999
18.8772 10.075
18.8924 9.872
18.9076 9.759
18.9227 9.786
18.9379 10.206
18.9531 10.219
18.9683 9.997
18.9834 10.220
18.9986 10.165
19.0138 10.323
19.0290 10.208
19.0441 9.945
19.0593 10.162
19.0745 10.337
19.0897 10.429
19.1048 10.344
19.1200 10.399
19.1352 10.587
19.1504 10.748
19.1655 10.632
19.1807 10.524
19.1959 10.644
19.2111 10.626
19.2262 10.559
19.2414 10.783
19.2566 11.063
19.2718 11.039
19.2869 10.823
19.3021 10.752
19.3173 10.875
19.3325 11.044
19.3476 11.133
19.3628 11.275
19.3780 11.165
19.3932 11.093
19.4083 11.426
19.4235 11.283
19.4387 11.122
19.4539 11.410
19.4690 11.576
19.4842 11.583
19.4994 11.396
19.5146 11.451
19.5297 11.680
19.5449 11.878
19.5601 11.889
19.5753 11.505
19.5904 11.486
19.6056 11.657
19.6208 11.613
19.6360 11.434
19.6511 11.441
19.6663 11.549
19.6815 11.749
19.6967 11.850
19.7118 11.712
19.7270 11.603
19.7422 11.716
19.7574 11.873
19.7725 11.748
19.7877 11.631
19.8029 11.984
19.8180 12.164
19.8332 12.296
19.8484 12.504
19.8636 12.512
19.8787 12.673
19.8939 12.999
19.9091 13.393
19.9243 13.674
19.9394 13.925
19.9546 14.433
19.9698 14.534
19.9850 14.434
20.0001 14.419
20.0153 14.291
20.0305 14.219
20.0457 14.158
20.0608 14.075
20.0760 13.962
20.0912 13.862
20.1064 13.790
20.1215 13.725
20.1367 13.521
20.1519 13.233
20.1671 13.282
20.1822 13.191
20.1974 12.903
20.2126 12.840
20.2278 12.807
20.2429 12.663
20.2581 12.802
20.2733 12.571
20.2885 12.210
20.3036 12.166
20.3188 11.943
20.3340 11.888
20.3492 12.049
20.3643 11.949
20.3795 11.834
20.3947 11.603
20.4099 11.569
20.4250 11.747
20.4402 11.590
20.4554 11.774
20.4706 11.758
20.4857 11.798
20.5009 11.943
20.5161 11.728
20.5313 11.380
20.5464 11.510
20.5616 11.270
20.5768 11.004
20.5920 11.179
20.6071 11.015
20.6223 10.952
20.6375 10.803
20.6527 10.767
20.6678 10.701
20.6830 10.742
20.6982 10.531
20.7134 10.494
20.7285 10.676
20.7437 10.371
20.7589 10.389
20.7741 10.642
20.7892 10.440
20.8044 10.345
20.8196 10.314
20.8348 10.413
20.8499 10.430
20.8651 10.190
20.8803 10.570
20.8955 10.164
20.9106 10.224
20.9258 10.200
20.9410 10.190
20.9562 10.112
20.9713 10.062
20.9865 9.993
21.0017 10.213
21.0169 9.864
21.0320 10.064
21.0472 10.278
21.0624 10.022
21.0776 9.861
21.0927 9.791
21.1079 9.690
21.1231 10.047
21.1383 9.978
21.1534 9.703
21.1686 9.785
21.1838 9.571
21.1990 9.567
21.2141 9.695
21.2293 9.791
21.2445 9.628
21.2597 9.623
21.2748 9.662
21.2900 9.518
21.3052 9.807
21.3204 9.499
21.3355 9.658
21.3507 9.789
21.3659 9.899
21.3811 9.590
21.3962 9.509
21.4114 9.428
21.4266 9.748
21.4418 9.532
21.4569 9.595
21.4721 9.517
21.4873 9.239
21.5025 9.310
21.5176 9.327
21.5328 9.435
21.5480 9.405
21.5632 9.555
21.5783 9.361
21.5935 9.285
21.6087 9.310
21.6239 9.446
21.6390 9.251
21.6542 9.117
21.6694 9.176
21.6846 9.218
21.6997 9.006
21.7149 9.071
21.7301 9.008
21.7453 9.284
21.7604 9.073
21.7756 9.066
21.7908 9.073
21.8060 8.887
21.8211 9.125
21.8363 9.016
21.8515 9.197
21.8667 9.163
21.8818 8.938
21.8970 9.088
21.9122 8.931
21.9274 8.844
21.9425 9.036
21.9577 9.162
21.9729 9.016
21.9881 8.765
22.0032 8.706
22.0184 8.867
22.0336 8.869
22.0488 8.874
22.0639 8.719
22.0791 8.556
22.0943 8.739
22.1095 8.975
22.1246 8.843
22.1398 8.532
22.1550 8.497
22.1702 8.602
22.1853 8.714
22.2005 8.611
22.2157 8.800
22.2309 8.615
22.2460 8.507
22.2612 8.665
22.2764 8.721
22.2916 8.729
22.3067 8.570
22.3219 8.292
22.3371 8.306
22.3523 8.390
22.3674 8.380
22.3826 8.417
22.3978 8.429
22.4130 8.415
22.4281 8.060
22.4433 8.241
22.4585 8.315
22.4737 8.232
22.4888 8.284
22.5040 8.342
22.5192 8.306
22.5344 8.266
22.5495 8.560
22.5647 8.432
22.5799 8.298
22.5951 8.250
22.6102 8.581
22.6254 8.324
22.6406 8.387
22.6558 8.582
22.6709 8.665
22.6861 8.421
22.7013 8.124
22.7165 8.023
22.7316 6.364
