'Id: "" Comment: "" Operator: "Lab Manager" Anode: "Mo" Scantype: "Still (Eiger2R_500K (1D mode))" TimePerStep: "300" X: "11.8" Y: "9.4" Z: "11.284" 
7.2532 19.148
7.2684 18.754
7.2836 19.432
7.2987 18.586
7.3139 18.491
7.3291 19.261
7.3443 19.327
7.3594 19.594
7.3746 19.364
7.3898 19.611
7.4050 19.395
7.4201 19.580
7.4353 19.337
7.4505 19.217
7.4657 19.216
7.4808 19.592
7.4960 19.727
7.5112 20.042
7.5264 19.989
7.5415 19.721
7.5567 19.752
7.5719 19.707
7.5871 19.623
7.6022 19.923
7.6174 20.340
7.6326 20.321
7.6478 20.233
7.6629 20.078
7.6781 20.024
7.6933 20.283
7.7085 20.200
7.7236 19.948
7.7388 20.711
7.7540 21.013
7.7692 20.587
7.7843 20.493
7.7995 20.541
7.8147 20.747
7.8299 20.784
7.8450 20.761
7.8602 20.679
7.8754 20.785
7.8905 21.099
7.9057 21.285
7.9209 21.190
7.9361 21.032
7.9512 21.060
7.9664 21.109
7.9816 21.214
7.9968 21.036
8.0119 21.080
8.0271 21.066
8.0423 21.072
8.0575 21.001
8.0726 20.879
8.0878 21.720
8.1030 21.594
8.1182 21.062
8.1333 21.463
8.1485 21.751
8.1637 21.590
8.1789 21.307
8.1940 21.865
8.2092 22.131
8.2244 21.328
8.2396 21.633
8.2547 21.803
8.2699 21.365
8.2851 21.670
8.3003 21.623
8.3154 21.716
8.3306 21.713
8.3458 21.720
8.3610 22.308
8.3761 21.966
8.3913 21.923
8.4065 22.042
8.4217 21.611
8.4368 22.032
8.4520 21.971
8.4672 21.595
8.4824 22.260
8.4975 22.136
8.5127 21.989
8.5279 22.340
8.5431 22.168
8.5582 22.236
8.5734 21.950
8.5886 21.983
8.6038 21.918
8.6189 22.291
8.6341 22.278
8.6493 22.058
8.6645 22.469
8.6796 22.392
8.6948 22.652
8.7100 22.753
8.7252 22.787
8.7403 23.072
8.7555 22.406
8.7707 21.904
8.7859 22.745
8.8010 22.805
8.8162 22.824
8.8314 22.688
8.8466 22.510
8.8617 22.705
8.8769 22.426
8.8921 22.288
8.9073 22.571
8.9224 22.753
8.9376 22.764
8.9528 22.828
8.9680 22.661
8.9831 22.287
8.9983 22.623
9.0135 22.535
9.0287 22.471
9.0438 22.724
9.0590 22.914
9.0742 22.555
9.0894 22.992
9.1045 23.067
9.1197 22.674
9.1349 22.366
9.1501 22.614
9.1652 22.869
9.1804 22.756
9.1956 22.438
9.2108 22.700
9.2259 23.040
9.2411 22.931
9.2563 22.944
9.2715 22.837
9.2866 23.052
9.3018 22.915
9.3170 22.903
9.3322 23.081
9.3473 23.100
9.3625 23.035
9.3777 22.985
9.3929 23.297
9.4080 23.655
9.4232 23.187
9.4384 23.125
9.4536 23.339
9.4687 23.048
9.4839 23.129
9.4991 23.371
9.5143 23.578
9.5294 23.706
9.5446 23.573
9.5598 23.711
9.5750 23.456
9.5901 23.088
9.6053 23.149
9.6205 23.610
9.6357 23.380
9.6508 23.354
9.6660 23.477
9.6812 23.548
9.6964 23.852
9.7115 23.970
9.7267 24.170
9.7419 24.152
9.7571 24.085
9.7722 24.132
9.7874 24.154
9.8026 23.836
9.8178 23.565
9.8329 23.652
9.8481 23.452
9.8633 23.536
9.8785 23.573
9.8936 23.723
9.9088 23.800
9.9240 24.015
9.9392 24.195
9.9543 24.081
9.9695 24.131
9.9847 24.143
9.9999 24.065
10.0150 23.726
10.0302 23.698
10.0454 23.757
10.0606 23.534
10.0757 23.553
10.0909 23.354
10.1061 23.260
10.1213 23.390
10.1364 23.650
10.1516 23.612
10.1668 23.779
10.1820 23.841
10.1971 23.958
10.2123 23.807
10.2275 23.639
10.2427 23.748
10.2578 23.829
10.2730 23.406
10.2882 23.375
10.3034 23.468
10.3185 23.437
10.3337 23.363
10.3489 23.526
10.3641 23.287
10.3792 22.982
10.3944 22.908
10.4096 22.904
10.4248 22.934
10.4399 23.109
10.4551 23.002
10.4703 22.698
10.4855 22.896
10.5006 22.817
10.5158 22.433
10.5310 22.539
10.5462 22.738
10.5613 22.391
10.5765 22.437
10.5917 22.589
10.6069 22.831
10.6220 22.659
10.6372 22.837
10.6524 22.974
10.6676 22.789
10.6827 22.765
10.6979 22.558
10.7131 22.460
10.7283 22.304
10.7434 22.201
10.7586 22.272
10.7738 22.520
10.7890 22.693
10.8041 22.430
10.8193 22.181
10.8345 22.192
10.8497 22.709
10.8648 22.695
10.8800 22.376
10.8952 22.402
10.9104 22.271
10.9255 22.313
10.9407 22.164
10.9559 21.699
10.9711 21.643
10.9862 21.854
11.0014 21.984
11.0166 22.360
11.0318 22.398
11.0469 22.127
11.0621 21.845
11.0773 21.891
11.0925 21.965
11.1076 21.835
11.1228 21.660
11.1380 21.602
11.1532 21.759
11.1683 21.977
11.1835 21.686
11.1987 21.877
11.2139 22.033
11.2290 21.806
11.2442 21.518
11.2594 21.326
11.2746 21.579
11.2897 21.690
11.3049 21.529
11.3201 21.656
11.3353 21.826
11.3504 21.539
11.3656 21.610
11.3808 21.379
11.3960 21.246
11.4111 21.000
11.4263 21.410
11.4415 21.174
11.4567 21.294
11.4718 21.124
11.4870 20.978
11.5022 21.542
11.5174 21.044
11.5325 21.331
11.5477 21.083
11.5629 21.143
11.5781 20.944
11.5932 20.997
11.6084 20.738
11.6236 20.571
11.6388 21.028
11.6539 20.839
11.6691 20.498
11.6843 20.463
11.6995 20.677
11.7146 20.303
11.7298 20.526
11.7450 20.628
11.7602 20.162
11.7753 19.895
11.7905 19.962
11.8057 20.216
11.8209 20.148
11.8360 19.893
11.8512 19.659
11.8664 19.688
11.8816 19.767
11.8967 19.448
11.9119 19.767
11.9271 20.085
11.9423 19.728
11.9574 19.402
11.9726 19.291
11.9878 19.234
12.0030 19.576
12.0181 19.313
12.0333 18.840
12.0485 19.045
12.0637 18.860
12.0788 18.867
12.0940 18.882
12.1092 18.749
12.1244 18.778
12.1395 18.301
12.1547 18.491
12.1699 18.611
12.1851 18.399
12.2002 18.065
12.2154 17.928
12.2306 17.979
12.2458 17.833
12.2609 17.592
12.2761 17.760
12.2913 17.786
12.3065 17.403
12.3216 17.080
12.3368 17.325
12.3520 17.211
12.3672 17.040
12.3823 17.092
12.3975 16.991
12.4127 17.156
12.4279 17.123
12.4430 17.075
12.4582 17.147
12.4734 17.168
12.4886 16.874
12.5037 16.510
12.5189 16.460
12.5341 16.128
12.5493 16.264
12.5644 16.277
12.5796 16.176
12.5948 16.170
12.6100 15.831
12.6251 15.757
12.6403 15.971
12.6555 15.843
12.6707 15.697
12.6858 15.601
12.7010 15.574
12.7162 15.486
12.7314 15.575
12.7465 15.521
12.7617 15.455
12.7769 15.200
12.7921 15.027
12.8072 15.080
12.8224 14.881
12.8376 14.937
12.8528 14.929
12.8679 14.639
12.8831 14.807
12.8983 14.835
12.9135 14.552
12.9286 14.365
12.9438 14.171
12.9590 14.127
12.9742 14.281
12.9893 14.271
13.0045 14.260
13.0197 14.274
13.0349 14.124
13.0500 13.778
13.0652 13.707
13.0804 13.767
13.0956 13.900
13.1107 14.029
13.1259 13.882
13.1411 13.884
13.1563 13.784
13.1714 13.638
13.1866 13.641
13.2018 13.545
13.2170 13.346
13.2321 13.129
13.2473 13.114
13.2625 13.364
13.2777 13.401
13.2928 13.249
13.3080 13.262
13.3232 13.289
13.3384 12.981
13.3535 12.783
13.3687 12.939
13.3839 12.943
13.3991 12.982
13.4142 12.761
13.4294 12.648
13.4446 12.819
13.4598 12.660
13.4749 12.645
13.4901 12.753
13.5053 12.754
13.5205 12.726
13.5356 12.292
13.5508 12.100
13.5660 12.336
13.5812 12.326
13.5963 12.193
13.6115 12.112
13.6267 12.093
13.6419 12.106
13.6570 12.256
13.6722 12.249
13.6874 12.250
13.7026 12.195
13.7177 11.819
13.7329 11.895
13.7481 11.622
13.7633 11.874
13.7784 12.132
13.7936 11.933
13.8088 11.935
13.8239 12.179
13.8391 12.518
13.8543 12.161
13.8695 11.830
13.8846 11.982
13.8998 11.880
13.9150 11.962
13.9302 12.085
13.9453 11.862
13.9605 11.788
13.9757 11.641
13.9909 11.619
14.0060 11.572
14.0212 11.374
14.0364 11.398
14.0516 11.382
14.0667 11.460
14.0819 11.488
14.0971 11.414
14.1123 11.171
14.1274 11.428
14.1426 11.414
14.1578 11.159
14.1730 11.375
14.1881 11.606
14.2033 11.388
14.2185 11.189
14.2337 11.056
14.2488 11.399
14.2640 11.623
14.2792 11.811
14.2944 11.703
14.3095 11.833
14.3247 11.953
14.3399 12.011
14.3551 12.142
14.3702 12.305
14.3854 12.763
14.4006 12.827
14.4158 12.915
14.4309 13.279
14.4461 13.357
14.4613 13.322
14.4765 13.485
14.4916 13.072
14.5068 13.063
14.5220 12.968
14.5372 13.039
14.5523 13.122
14.5675 12.656
14.5827 12.420
14.5979 12.182
14.6130 11.892
14.6282 12.246
14.6434 11.939
14.6586 11.261
14.6737 11.584
14.6889 11.493
14.7041 11.264
14.7193 11.386
14.7344 11.203
14.7496 11.069
14.7648 11.593
14.7800 11.299
14.7951 11.283
14.8103 11.348
14.8255 10.849
14.8407 10.944
14.8558 10.970
14.8710 11.005
14.8862 10.855
14.9014 10.416
14.9165 11.079
14.9317 11.204
14.9469 10.943
14.9621 10.766
14.9772 10.334
14.9924 10.617
15.0076 10.569
15.0228 10.616
15.0379 10.691
15.0531 10.415
15.0683 10.829
15.0835 10.668
15.0986 10.549
15.1138 10.584
15.1290 10.366
15.1442 10.413
15.1593 10.477
15.1745 10.342
15.1897 10.259
15.2049 10.845
15.2200 10.534
15.2352 10.166
15.2504 10.511
15.2656 10.437
15.2807 10.364
15.2959 10.337
15.3111 10.275
15.3263 10.355
15.3414 10.165
15.3566 10.700
15.3718 10.563
15.3870 10.290
15.4021 10.738
15.4173 10.353
15.4325 10.159
15.4477 10.275
15.4628 10.479
15.4780 10.358
15.4932 10.277
15.5084 10.132
15.5235 10.237
15.5387 10.211
15.5539 10.514
15.5691 10.298
15.5842 10.161
15.5994 10.403
15.6146 10.084
15.6298 9.954
15.6449 10.139
15.6601 9.980
15.6753 10.105
15.6905 10.047
15.7056 9.950
15.7208 9.963
15.7360 10.106
15.7512 10.013
15.7663 9.571
15.7815 9.802
15.7967 9.644
15.8119 9.979
15.8270 9.899
15.8422 9.774
15.8574 9.596
15.8726 9.976
15.8877 9.877
15.9029 9.795
15.9181 9.851
15.9333 9.708
15.9484 9.867
15.9636 9.930
15.9788 9.872
15.9940 9.781
16.0091 9.816
16.0243 9.710
16.0395 10.136
16.0547 9.987
16.0698 9.653
16.0850 9.379
16.1002 9.585
16.1154 9.794
16.1305 9.808
16.1457 9.784
16.1609 9.676
16.1761 9.379
16.1912 9.775
16.2064 9.825
16.2216 9.841
16.2368 9.971
16.2519 9.819
16.2671 9.808
16.2823 10.150
16.2975 10.568
16.3126 10.369
16.3278 10.223
16.3430 10.205
16.3582 10.191
16.3733 10.390
16.3885 10.277
16.4037 10.060
16.4189 10.086
16.4340 10.197
16.4492 10.017
16.4644 9.984
16.4796 9.937
16.4947 10.081
16.5099 9.813
16.5251 9.749
16.5403 9.799
16.5554 9.696
16.5706 9.708
16.5858 9.753
16.6010 9.914
16.6161 9.970
16.6313 9.769
16.6465 9.889
16.6617 9.779
16.6768 9.883
16.6920 9.935
16.7072 10.073
16.7224 10.009
16.7375 10.068
16.7527 9.958
16.7679 9.943
16.7831 10.115
16.7982 10.065
16.8134 10.042
16.8286 9.836
16.8438 9.699
16.8589 9.652
16.8741 9.770
16.8893 9.753
16.9045 9.831
16.9196 9.777
16.9348 9.734
16.9500 9.666
16.9652 9.620
16.9803 9.764
16.9955 9.879
17.0107 9.870
17.0259 10.014
17.0410 10.094
17.0562 10.157
17.0714 10.292
17.0866 10.576
17.1017 10.686
17.1169 10.725
17.1321 11.060
17.1473 11.528
17.1624 12.015
17.1776 12.495
17.1928 13.019
17.2080 13.744
17.2231 14.820
17.2383 16.174
17.2535 17.442
17.2687 18.258
17.2838 18.601
17.2990 18.092
17.3142 16.873
17.3294 16.114
17.3445 15.944
17.3597 15.994
17.3749 15.825
17.3901 15.132
17.4052 14.107
17.4204 13.127
17.4356 12.460
17.4508 11.904
17.4659 11.506
17.4811 11.434
17.4963 11.268
17.5115 11.046
17.5266 11.022
17.5418 10.901
17.5570 10.797
17.5722 10.761
17.5873 10.604
17.6025 10.645
17.6177 10.700
17.6329 10.476
17.6480 10.409
17.6632 10.233
17.6784 10.317
17.6936 10.562
17.7087 10.760
17.7239 10.778
17.7391 10.363
17.7543 10.532
17.7694 10.965
17.7846 11.068
17.7998 11.333
17.8150 11.643
17.8301 11.672
17.8453 11.916
17.8605 12.119
17.8757 11.910
17.8908 11.958
17.9060 11.974
17.9212 11.894
17.9364 11.778
17.9515 11.574
17.9667 11.494
17.9819 11.251
17.9971 11.146
18.0122 10.989
18.0274 10.675
18.0426 10.556
18.0578 10.518
18.0729 10.353
18.0881 10.143
18.1033 10.051
18.1185 10.035
18.1336 10.076
18.1488 10.213
18.1640 10.155
18.1792 9.911
18.1943 10.226
18.2095 10.229
18.2247 9.879
18.2399 9.892
18.2550 10.128
18.2702 9.996
18.2854 9.888
18.3006 10.020
18.3157 9.997
18.3309 10.021
18.3461 10.030
18.3613 9.819
18.3764 9.702
18.3916 9.818
18.4068 9.827
18.4220 9.729
18.4371 9.807
18.4523 9.888
18.4675 9.886
18.4827 9.820
18.4978 9.813
18.5130 9.900
18.5282 9.708
18.5434 9.765
18.5585 10.002
18.5737 10.013
18.5889 9.783
18.6041 9.634
18.6192 9.625
18.6344 9.665
18.6496 9.845
18.6648 9.726
18.6799 9.650
18.6951 9.854
18.7103 9.941
18.7255 9.862
18.7406 9.825
18.7558 9.701
18.7710 9.732
18.7862 9.915
18.8013 9.760
18.8165 9.503
18.8317 9.722
18.8469 10.053
18.8620 9.963
18.8772 10.154
18.8924 10.165
18.9076 10.206
18.9227 10.080
18.9379 10.202
18.9531 10.207
18.9683 10.194
18.9834 10.161
18.9986 9.964
19.0138 10.118
19.0290 10.021
19.0441 10.087
19.0593 10.167
19.0745 10.185
19.0897 10.427
19.1048 10.466
19.1200 10.403
19.1352 10.534
19.1504 10.473
19.1655 10.297
19.1807 10.383
19.1959 10.477
19.2111 10.470
19.2262 10.582
19.2414 10.642
19.2566 10.762
19.2718 10.883
19.2869 10.877
19.3021 10.719
19.3173 10.726
19.3325 11.005
19.3476 11.030
19.3628 11.253
19.3780 11.316
19.3932 11.316
19.4083 11.273
19.4235 11.093
19.4387 11.300
19.4539 11.472
19.4690 11.296
19.4842 11.220
19.4994 11.323
19.5146 11.354
19.5297 11.382
19.5449 11.445
19.5601 11.466
19.5753 11.574
19.5904 11.559
19.6056 11.472
19.6208 11.544
19.6360 11.655
19.6511 11.778
19.6663 11.900
19.6815 11.788
19.6967 11.701
19.7118 11.787
19.7270 11.775
19.7422 11.741
19.7574 11.735
19.7725 11.716
19.7877 11.810
19.8029 11.773
19.8180 11.647
19.8332 12.029
19.8484 12.233
19.8636 12.089
19.8787 12.509
19.8939 12.835
19.9091 12.810
19.9243 13.177
19.9394 13.710
19.9546 14.054
19.9698 14.612
19.9850 15.152
20.0001 14.864
20.0153 14.214
20.0305 14.038
20.0457 14.094
20.0608 13.849
20.0760 13.765
20.0912 13.609
20.1064 13.429
20.1215 13.437
20.1367 13.386
20.1519 13.073
20.1671 12.765
20.1822 12.643
20.1974 12.697
20.2126 12.612
20.2278 12.406
20.2429 12.521
20.2581 12.415
20.2733 12.111
20.2885 11.717
20.3036 11.605
20.3188 11.683
20.3340 11.754
20.3492 11.569
20.3643 11.284
20.3795 11.394
20.3947 11.243
20.4099 10.900
20.4250 10.823
20.4402 10.817
20.4554 10.842
20.4706 10.988
20.4857 11.052
20.5009 10.993
20.5161 10.976
20.5313 10.993
20.5464 10.936
20.5616 11.040
20.5768 10.886
20.5920 10.911
20.6071 10.961
20.6223 11.009
20.6375 11.091
20.6527 10.846
20.6678 10.781
20.6830 10.698
20.6982 10.666
20.7134 10.639
20.7285 10.692
20.7437 10.574
20.7589 10.696
20.7741 10.463
20.7892 10.627
20.8044 10.594
20.8196 10.778
20.8348 10.639
20.8499 10.614
20.8651 10.419
20.8803 10.290
20.8955 10.827
20.9106 10.468
20.9258 10.386
20.9410 10.652
20.9562 10.300
20.9713 10.563
20.9865 10.430
21.0017 10.602
21.0169 10.576
21.0320 10.527
21.0472 10.006
21.0624 10.239
21.0776 10.568
21.0927 10.409
21.1079 10.183
21.1231 10.059
21.1383 10.551
21.1534 9.763
21.1686 10.208
21.1838 9.943
21.1990 9.820
21.2141 9.934
21.2293 9.843
21.2445 9.774
21.2597 9.517
21.2748 9.574
21.2900 9.739
21.3052 9.407
21.3204 9.472
21.3355 9.626
21.3507 9.545
21.3659 9.662
21.3811 9.755
21.3962 9.653
21.4114 9.562
21.4266 9.637
21.4418 9.429
21.4569 9.511
21.4721 9.649
21.4873 9.412
21.5025 9.081
21.5176 9.322
21.5328 9.124
21.5480 9.125
21.5632 9.236
21.5783 9.021
21.5935 9.016
21.6087 9.270
21.6239 9.267
21.6390 8.978
21.6542 8.953
21.6694 9.157
21.6846 8.944
21.6997 9.068
21.7149 9.014
21.7301 9.079
21.7453 8.997
21.7604 8.924
21.7756 9.055
21.7908 8.969
21.8060 8.775
21.8211 8.818
21.8363 9.040
21.8515 9.060
21.8667 9.053
21.8818 9.063
21.8970 8.904
21.9122 9.047
21.9274 9.066
21.9425 8.639
21.9577 8.917
21.9729 8.921
21.9881 8.809
22.0032 8.854
22.0184 8.801
22.0336 8.796
22.0488 8.652
22.0639 8.725
22.0791 8.693
22.0943 8.716
22.1095 8.713
22.1246 8.701
22.1398 8.764
22.1550 8.588
22.1702 8.486
22.1853 8.502
22.2005 8.473
22.2157 8.495
22.2309 8.650
22.2460 8.701
22.2612 8.503
22.2764 8.467
22.2916 8.597
22.3067 8.490
22.3219 8.641
22.3371 8.754
22.3523 8.596
22.3674 8.418
22.3826 8.448
22.3978 8.295
22.4130 8.447
22.4281 8.584
22.4433 8.692
22.4585 8.652
22.4737 8.474
22.4888 8.817
22.5040 8.778
22.5192 8.574
22.5344 8.521
22.5495 8.537
22.5647 8.433
22.5799 8.295
22.5951 8.521
22.6102 8.410
22.6254 8.205
22.6406 8.393
22.6558 8.570
22.6709 8.596
22.6861 8.570
22.7013 8.262
22.7165 7.839
22.7316 6.407
