'Id: "" Comment: "" Operator: "Lab Manager" Anode: "Mo" Scantype: "Still (Eiger2R_500K (1D mode))" TimePerStep: "300" X: "11.8" Y: "9.4" Z: "11.284" 
7.2532 18.617
7.2684 18.669
7.2836 18.959
7.2987 19.326
7.3139 18.820
7.3291 19.144
7.3443 18.860
7.3594 19.549
7.3746 19.114
7.3898 19.092
7.4050 19.612
7.4201 19.549
7.4353 19.474
7.4505 19.391
7.4657 19.199
7.4808 19.655
7.4960 19.936
7.5112 19.723
7.5264 20.001
7.5415 19.884
7.5567 19.635
7.5719 19.767
7.5871 19.808
7.6022 20.232
7.6174 20.422
7.6326 19.984
7.6478 20.065
7.6629 19.879
7.6781 19.968
7.6933 20.539
7.7085 20.578
7.7236 20.368
7.7388 20.379
7.7540 20.120
7.7692 20.081
7.7843 20.286
7.7995 20.502
7.8147 20.743
7.8299 20.671
7.8450 20.721
7.8602 21.188
7.8754 21.198
7.8905 21.071
7.9057 21.109
7.9209 21.300
7.9361 21.193
7.9512 20.976
7.9664 21.011
7.9816 20.995
7.9968 21.183
8.0119 21.171
8.0271 21.282
8.0423 21.111
8.0575 21.238
8.0726 21.265
8.0878 21.088
8.1030 21.221
8.1182 21.502
8.1333 21.559
8.1485 21.336
8.1637 21.597
8.1789 21.518
8.1940 21.647
8.2092 21.401
8.2244 21.664
8.2396 21.603
8.2547 21.705
8.2699 21.830
8.2851 21.966
8.3003 21.576
8.3154 21.646
8.3306 21.276
8.3458 22.390
8.3610 21.762
8.3761 21.637
8.3913 21.629
8.4065 21.825
8.4217 21.760
8.4368 21.858
8.4520 21.674
8.4672 22.285
8.4824 22.531
8.4975 21.650
8.5127 21.836
8.5279 22.201
8.5431 22.315
8.5582 22.103
8.5734 22.228
8.5886 22.489
8.6038 22.725
8.6189 22.518
8.6341 22.923
8.6493 22.200
8.6645 22.363
8.6796 23.214
8.6948 22.856
8.7100 22.758
8.7252 22.328
8.7403 22.659
8.7555 22.848
8.7707 22.683
8.7859 23.096
8.8010 22.460
8.8162 22.712
8.8314 22.760
8.8466 22.642
8.8617 22.392
8.8769 22.353
8.8921 22.863
8.9073 22.446
8.9224 22.690
8.9376 22.733
8.9528 22.704
8.9680 22.873
8.9831 22.822
8.9983 22.741
9.0135 22.863
9.0287 22.995
9.0438 22.664
9.0590 22.500
9.0742 22.794
9.0894 22.974
9.1045 22.937
9.1197 23.240
9.1349 22.913
9.1501 22.988
9.1652 22.907
9.1804 22.686
9.1956 22.932
9.2108 22.788
9.2259 23.246
9.2411 23.503
9.2563 22.738
9.2715 22.675
9.2866 22.870
9.3018 22.889
9.3170 23.202
9.3322 23.154
9.3473 22.783
9.3625 23.226
9.3777 23.064
9.3929 22.891
9.4080 23.106
9.4232 23.077
9.4384 23.246
9.4536 23.114
9.4687 22.952
9.4839 23.294
9.4991 23.400
9.5143 23.461
9.5294 23.654
9.5446 23.415
9.5598 23.240
9.5750 23.360
9.5901 23.033
9.6053 23.068
9.6205 23.245
9.6357 23.260
9.6508 23.446
9.6660 23.433
9.6812 23.471
9.6964 24.059
9.7115 24.131
9.7267 23.768
9.7419 23.598
9.7571 23.417
9.7722 23.681
9.7874 23.745
9.8026 23.702
9.8178 23.671
9.8329 23.406
9.8481 23.485
9.8633 23.379
9.8785 23.323
9.8936 23.469
9.9088 23.377
9.9240 23.366
9.9392 23.411
9.9543 23.068
9.9695 23.119
9.9847 23.559
9.9999 23.842
10.0150 23.868
10.0302 23.537
10.0454 23.493
10.0606 23.647
10.0757 23.295
10.0909 23.409
10.1061 23.524
10.1213 23.617
10.1364 23.837
10.1516 23.768
10.1668 23.333
10.1820 23.475
10.1971 23.791
10.2123 23.871
10.2275 23.676
10.2427 23.888
10.2578 24.166
10.2730 23.850
10.2882 23.653
10.3034 23.549
10.3185 23.479
10.3337 23.245
10.3489 22.893
10.3641 22.935
10.3792 22.767
10.3944 23.073
10.4096 23.253
10.4248 23.122
10.4399 22.738
10.4551 22.562
10.4703 22.789
10.4855 22.761
10.5006 22.543
10.5158 22.875
10.5310 22.732
10.5462 22.289
10.5613 22.185
10.5765 22.647
10.5917 22.676
10.6069 22.537
10.6220 22.841
10.6372 22.910
10.6524 22.970
10.6676 22.834
10.6827 22.786
10.6979 22.647
10.7131 22.401
10.7283 22.281
10.7434 22.298
10.7586 22.169
10.7738 22.265
10.7890 22.421
10.8041 22.459
10.8193 22.641
10.8345 21.975
10.8497 22.274
10.8648 22.631
10.8800 22.472
10.8952 22.420
10.9104 22.347
10.9255 22.388
10.9407 22.194
10.9559 22.461
10.9711 22.345
10.9862 22.278
11.0014 22.358
11.0166 22.630
11.0318 22.502
11.0469 21.839
11.0621 21.762
11.0773 22.093
11.0925 22.172
11.1076 22.109
11.1228 21.939
11.1380 21.807
11.1532 21.983
11.1683 22.011
11.1835 22.339
11.1987 22.442
11.2139 21.983
11.2290 21.823
11.2442 21.957
11.2594 21.698
11.2746 21.767
11.2897 21.791
11.3049 22.019
11.3201 22.154
11.3353 21.529
11.3504 21.332
11.3656 20.984
11.3808 21.589
11.3960 21.608
11.4111 21.664
11.4263 21.588
11.4415 21.191
11.4567 21.281
11.4718 21.278
11.4870 21.384
11.5022 20.883
11.5174 21.034
11.5325 20.990
11.5477 21.016
11.5629 21.444
11.5781 21.157
11.5932 21.005
11.6084 20.774
11.6236 21.050
11.6388 20.926
11.6539 20.579
11.6691 20.363
11.6843 20.540
11.6995 20.531
11.7146 20.550
11.7298 20.700
11.7450 20.221
11.7602 20.256
11.7753 20.501
11.7905 20.065
11.8057 20.004
11.8209 19.947
11.8360 19.933
11.8512 20.153
11.8664 19.818
11.8816 19.757
11.8967 19.847
11.9119 19.859
11.9271 19.568
11.9423 19.627
11.9574 19.393
11.9726 19.370
11.9878 19.509
12.0030 18.976
12.0181 19.295
12.0333 19.310
12.0485 19.152
12.0637 19.139
12.0788 19.160
12.0940 19.120
12.1092 18.777
12.1244 18.871
12.1395 19.004
12.1547 18.592
12.1699 18.323
12.1851 18.328
12.2002 18.303
12.2154 18.061
12.2306 18.054
12.2458 18.096
12.2609 18.163
12.2761 17.904
12.2913 17.422
12.3065 17.787
12.3216 17.748
12.3368 17.698
12.3520 17.627
12.3672 17.446
12.3823 17.512
12.3975 17.333
12.4127 17.159
12.4279 17.191
12.4430 17.228
12.4582 17.587
12.4734 17.355
12.4886 17.070
12.5037 16.872
12.5189 16.519
12.5341 16.550
12.5493 16.759
12.5644 16.402
12.5796 16.266
12.5948 16.288
12.6100 16.290
12.6251 16.141
12.6403 16.208
12.6555 15.757
12.6707 15.659
12.6858 15.870
12.7010 15.786
12.7162 15.808
12.7314 15.680
12.7465 15.521
12.7617 15.289
12.7769 15.264
12.7921 15.285
12.8072 15.561
12.8224 15.602
12.8376 15.327
12.8528 15.111
12.8679 14.874
12.8831 14.859
12.8983 14.816
12.9135 14.553
12.9286 14.600
12.9438 14.991
12.9590 14.858
12.9742 14.377
12.9893 14.187
13.0045 14.244
13.0197 14.437
13.0349 14.412
13.0500 14.138
13.0652 14.007
13.0804 14.110
13.0956 14.290
13.1107 14.067
13.1259 13.769
13.1411 13.691
13.1563 13.677
13.1714 13.848
13.1866 13.772
13.2018 13.244
13.2170 13.095
13.2321 13.265
13.2473 13.141
13.2625 13.027
13.2777 13.171
13.2928 13.277
13.3080 13.008
13.3232 12.891
13.3384 12.995
13.3535 12.812
13.3687 12.910
13.3839 13.092
13.3991 12.993
13.4142 12.934
13.4294 12.715
13.4446 12.857
13.4598 12.891
13.4749 12.796
13.4901 12.315
13.5053 12.389
13.5205 12.796
13.5356 12.731
13.5508 12.374
13.5660 12.199
13.5812 12.374
13.5963 12.429
13.6115 12.302
13.6267 12.104
13.6419 12.041
13.6570 12.224
13.6722 12.091
13.6874 12.030
13.7026 12.015
13.7177 12.129
13.7329 12.113
13.7481 11.966
13.7633 12.017
13.7784 11.971
13.7936 12.012
13.8088 12.170
13.8239 12.218
13.8391 12.227
13.8543 12.389
13.8695 12.286
13.8846 12.443
13.8998 12.488
13.9150 12.147
13.9302 12.124
13.9453 12.010
13.9605 12.153
13.9757 11.906
13.9909 11.818
14.0060 11.839
14.0212 11.426
14.0364 11.384
14.0516 11.679
14.0667 11.145
14.0819 11.505
14.0971 11.578
14.1123 11.799
14.1274 11.496
14.1426 11.686
14.1578 11.797
14.1730 11.716
14.1881 11.461
14.2033 11.650
14.2185 11.960
14.2337 12.070
14.2488 12.172
14.2640 11.905
14.2792 11.679
14.2944 11.860
14.3095 12.074
14.3247 12.064
14.3399 12.348
14.3551 12.484
14.3702 12.714
14.3854 12.586
14.4006 12.585
14.4158 12.594
14.4309 12.424
14.4461 12.316
14.4613 12.467
14.4765 12.256
14.4916 12.188
14.5068 11.980
14.5220 11.970
14.5372 11.573
14.5523 11.629
14.5675 11.422
14.5827 11.010
14.5979 10.951
14.6130 10.885
14.6282 10.747
14.6434 11.264
14.6586 10.747
14.6737 10.655
14.6889 11.255
14.7041 10.990
14.7193 10.658
14.7344 10.868
14.7496 10.904
14.7648 11.045
14.7800 10.843
14.7951 10.558
14.8103 10.565
14.8255 10.675
14.8407 11.138
14.8558 10.662
14.8710 10.603
14.8862 10.736
14.9014 10.682
14.9165 10.871
14.9317 10.881
14.9469 10.569
14.9621 10.886
14.9772 10.363
14.9924 10.465
15.0076 10.744
15.0228 10.215
15.0379 10.421
15.0531 10.394
15.0683 10.428
15.0835 10.356
15.0986 10.483
15.1138 10.570
15.1290 10.694
15.1442 10.428
15.1593 10.954
15.1745 10.630
15.1897 10.421
15.2049 10.343
15.2200 10.504
15.2352 10.181
15.2504 10.218
15.2656 10.229
15.2807 10.198
15.2959 10.120
15.3111 10.179
15.3263 10.221
15.3414 10.405
15.3566 10.432
15.3718 10.515
15.3870 10.376
15.4021 10.534
15.4173 10.287
15.4325 10.543
15.4477 10.634
15.4628 10.434
15.4780 10.334
15.4932 10.412
15.5084 10.497
15.5235 10.225
15.5387 10.369
15.5539 10.225
15.5691 10.362
15.5842 10.386
15.5994 10.439
15.6146 10.201
15.6298 9.863
15.6449 10.167
15.6601 10.072
15.6753 10.126
15.6905 10.349
15.7056 9.875
15.7208 9.988
15.7360 10.003
15.7512 9.967
15.7663 10.016
15.7815 9.868
15.7967 9.778
15.8119 10.129
15.8270 9.865
15.8422 9.952
15.8574 9.664
15.8726 9.653
15.8877 9.822
15.9029 9.524
15.9181 9.816
15.9333 9.787
15.9484 9.501
15.9636 9.497
15.9788 9.795
15.9940 9.657
16.0091 9.911
16.0243 9.813
16.0395 9.919
16.0547 9.865
16.0698 9.821
16.0850 9.976
16.1002 9.904
16.1154 9.804
16.1305 9.636
16.1457 9.933
16.1609 10.044
16.1761 9.816
16.1912 9.719
16.2064 9.814
16.2216 9.936
16.2368 9.957
16.2519 9.950
16.2671 9.966
16.2823 10.101
16.2975 10.184
16.3126 10.138
16.3278 9.938
16.3430 9.931
16.3582 10.041
16.3733 10.104
16.3885 10.383
16.4037 10.404
16.4189 10.319
16.4340 9.969
16.4492 9.943
16.4644 9.895
16.4796 9.701
16.4947 9.776
16.5099 9.671
16.5251 9.775
16.5403 9.895
16.5554 9.669
16.5706 9.459
16.5858 9.704
16.6010 9.886
16.6161 10.128
16.6313 9.723
16.6465 9.621
16.6617 9.842
16.6768 10.073
16.6920 9.749
16.7072 9.941
16.7224 9.909
16.7375 9.797
16.7527 9.866
16.7679 9.923
16.7831 9.968
16.7982 9.822
16.8134 9.971
16.8286 9.985
16.8438 9.865
16.8589 9.808
16.8741 9.787
16.8893 9.861
16.9045 9.857
16.9196 9.798
16.9348 9.819
16.9500 9.701
16.9652 9.670
16.9803 9.710
16.9955 9.853
17.0107 10.207
17.0259 10.238
17.0410 10.198
17.0562 10.294
17.0714 10.252
17.0866 10.217
17.1017 10.472
17.1169 10.675
17.1321 10.944
17.1473 11.323
17.1624 11.740
17.1776 12.393
17.1928 13.020
17.2080 14.067
17.2231 15.168
17.2383 16.231
17.2535 17.588
17.2687 18.621
17.2838 18.879
17.2990 18.099
17.3142 17.182
17.3294 16.554
17.3445 16.112
17.3597 16.074
17.3749 15.953
17.3901 15.430
17.4052 14.444
17.4204 13.323
17.4356 12.472
17.4508 12.108
17.4659 11.796
17.4811 11.521
17.4963 11.673
17.5115 11.600
17.5266 11.339
17.5418 11.373
17.5570 11.489
17.5722 11.298
17.5873 11.286
17.6025 11.557
17.6177 11.586
17.6329 11.204
17.6480 10.910
17.6632 10.755
17.6784 10.700
17.6936 11.067
17.7087 10.962
17.7239 10.573
17.7391 10.420
17.7543 10.390
17.7694 10.304
17.7846 10.260
17.7998 10.200
17.8150 10.289
17.8301 10.302
17.8453 10.148
17.8605 9.971
17.8757 10.177
17.8908 10.342
17.9060 10.417
17.9212 10.301
17.9364 10.001
17.9515 9.984
17.9667 10.169
17.9819 10.406
17.9971 10.389
18.0122 10.375
18.0274 10.170
18.0426 9.970
18.0578 10.021
18.0729 9.998
18.0881 9.902
18.1033 9.995
18.1185 10.057
18.1336 10.041
18.1488 10.051
18.1640 9.948
18.1792 10.096
18.1943 9.900
18.2095 9.814
18.2247 9.836
18.2399 9.761
18.2550 9.923
18.2702 9.831
18.2854 9.877
18.3006 9.732
18.3157 9.746
18.3309 9.634
18.3461 9.566
18.3613 9.589
18.3764 9.641
18.3916 9.837
18.4068 9.929
18.4220 10.045
18.4371 9.920
18.4523 9.753
18.4675 9.654
18.4827 9.896
18.4978 9.881
18.5130 9.827
18.5282 9.911
18.5434 9.656
18.5585 9.543
18.5737 9.636
18.5889 9.620
18.6041 9.650
18.6192 9.763
18.6344 9.785
18.6496 9.795
18.6648 9.709
18.6799 9.637
18.6951 9.823
18.7103 9.933
18.7255 9.755
18.7406 9.718
18.7558 9.822
18.7710 9.833
18.7862 9.918
18.8013 9.586
18.8165 9.539
18.8317 9.789
18.8469 9.701
18.8620 9.992
18.8772 10.287
18.8924 10.151
18.9076 9.921
18.9227 10.017
18.9379 10.138
18.9531 9.798
18.9683 9.859
18.9834 10.027
18.9986 9.956
19.0138 9.985
19.0290 10.284
19.0441 10.444
19.0593 10.237
19.0745 10.139
19.0897 10.534
19.1048 10.457
19.1200 10.227
19.1352 10.316
19.1504 10.539
19.1655 10.596
19.1807 10.463
19.1959 10.552
19.2111 10.772
19.2262 10.932
19.2414 10.763
19.2566 10.667
19.2718 10.764
19.2869 10.994
19.3021 10.942
19.3173 10.776
19.3325 10.778
19.3476 11.133
19.3628 11.395
19.3780 11.099
19.3932 11.124
19.4083 11.247
19.4235 11.152
19.4387 11.173
19.4539 11.037
19.4690 11.037
19.4842 11.203
19.4994 11.414
19.5146 11.525
19.5297 11.530
19.5449 11.617
19.5601 11.441
19.5753 11.584
19.5904 11.625
19.6056 11.658
19.6208 11.891
19.6360 11.837
19.6511 11.724
19.6663 11.733
19.6815 11.782
19.6967 11.711
19.7118 11.657
19.7270 11.778
19.7422 11.852
19.7574 11.841
19.7725 11.908
19.7877 12.004
19.8029 11.834
19.8180 12.106
19.8332 12.426
19.8484 12.359
19.8636 12.304
19.8787 12.452
19.8939 12.810
19.9091 13.237
19.9243 13.534
19.9394 13.991
19.9546 14.272
19.9698 14.213
19.9850 14.384
20.0001 14.220
20.0153 14.103
20.0305 13.917
20.0457 13.685
20.0608 13.746
20.0760 13.587
20.0912 13.650
20.1064 13.558
20.1215 13.374
20.1367 13.123
20.1519 13.111
20.1671 13.039
20.1822 13.024
20.1974 12.772
20.2126 12.870
20.2278 12.815
20.2429 12.571
20.2581 12.621
20.2733 12.592
20.2885 12.154
20.3036 12.069
20.3188 11.995
20.3340 11.917
20.3492 11.972
20.3643 11.766
20.3795 11.424
20.3947 11.332
20.4099 11.050
20.4250 11.027
20.4402 10.984
20.4554 10.844
20.4706 10.907
20.4857 10.909
20.5009 10.889
20.5161 10.732
20.5313 10.435
20.5464 10.775
20.5616 10.840
20.5768 10.693
20.5920 10.826
20.6071 10.600
20.6223 10.676
20.6375 10.435
20.6527 10.693
20.6678 10.950
20.6830 10.714
20.6982 10.539
20.7134 10.467
20.7285 10.359
20.7437 10.613
20.7589 10.512
20.7741 10.372
20.7892 10.539
20.8044 10.286
20.8196 10.230
20.8348 10.516
20.8499 10.254
20.8651 10.188
20.8803 10.446
20.8955 10.135
20.9106 10.088
20.9258 10.108
20.9410 10.367
20.9562 10.072
20.9713 9.806
20.9865 10.087
21.0017 10.141
21.0169 10.170
21.0320 9.809
21.0472 9.780
21.0624 10.054
21.0776 9.924
21.0927 10.154
21.1079 9.812
21.1231 10.193
21.1383 10.225
21.1534 9.476
21.1686 9.882
21.1838 9.557
21.1990 10.055
21.2141 9.627
21.2293 9.616
21.2445 9.679
21.2597 9.683
21.2748 9.758
21.2900 9.422
21.3052 9.573
21.3204 9.371
21.3355 9.611
21.3507 9.550
21.3659 10.024
21.3811 9.574
21.3962 9.381
21.4114 9.623
21.4266 9.638
21.4418 9.529
21.4569 9.346
21.4721 9.334
21.4873 9.414
21.5025 9.427
21.5176 9.396
21.5328 9.329
21.5480 9.248
21.5632 9.261
21.5783 9.187
21.5935 9.151
21.6087 9.274
21.6239 9.188
21.6390 9.171
21.6542 9.358
21.6694 9.306
21.6846 9.367
21.6997 9.069
21.7149 9.322
21.7301 9.234
21.7453 8.734
21.7604 9.017
21.7756 9.043
21.7908 9.005
21.8060 9.102
21.8211 9.355
21.8363 9.135
21.8515 8.795
21.8667 9.141
21.8818 9.195
21.8970 9.162
21.9122 9.178
21.9274 9.029
21.9425 8.852
21.9577 8.942
21.9729 9.043
21.9881 9.000
22.0032 8.874
22.0184 8.829
22.0336 8.891
22.0488 9.013
22.0639 8.819
22.0791 8.640
22.0943 8.687
22.1095 8.654
22.1246 8.589
22.1398 8.675
22.1550 8.747
22.1702 8.783
22.1853 8.850
22.2005 8.692
22.2157 8.519
22.2309 8.621
22.2460 8.696
22.2612 8.733
22.2764 8.829
22.2916 8.805
22.3067 8.571
22.3219 8.687
22.3371 8.605
22.3523 8.538
22.3674 8.653
22.3826 8.667
22.3978 8.574
22.4130 8.628
22.4281 8.676
22.4433 8.342
22.4585 8.389
22.4737 8.487
22.4888 8.628
22.5040 8.362
22.5192 8.403
22.5344 8.457
22.5495 8.308
22.5647 8.668
22.5799 8.610
22.5951 8.433
22.6102 8.602
22.6254 8.950
22.6406 8.484
22.6558 8.594
22.6709 8.370
22.6861 8.521
22.7013 8.388
22.7165 8.336
22.7316 6.511
