'Id: "" Comment: "" Operator: "Lab Manager" Anode: "Mo" Scantype: "Still (Eiger2R_500K (1D mode))" TimePerStep: "300" X: "11.8" Y: "9.4" Z: "11.284" 
7.2532 19.323
7.2684 18.928
7.2836 18.631
7.2987 19.168
7.3139 19.388
7.3291 19.260
7.3443 19.481
7.3594 19.250
7.3746 19.622
7.3898 19.735
7.4050 19.328
7.4201 19.367
7.4353 19.527
7.4505 19.427
7.4657 19.624
7.4808 19.692
7.4960 19.848
7.5112 19.760
7.5264 20.184
7.5415 20.032
7.5567 19.596
7.5719 19.587
7.5871 19.627
7.6022 19.996
7.6174 20.125
7.6326 20.260
7.6478 20.185
7.6629 20.279
7.6781 20.115
7.6933 19.969
7.7085 20.048
7.7236 20.197
7.7388 20.319
7.7540 20.411
7.7692 20.486
7.7843 20.685
7.7995 20.389
7.8147 20.741
7.8299 20.849
7.8450 20.657
7.8602 20.740
7.8754 20.623
7.8905 20.639
7.9057 20.994
7.9209 20.769
7.9361 20.618
7.9512 20.713
7.9664 20.997
7.9816 21.131
7.9968 20.664
8.0119 21.030
8.0271 21.218
8.0423 21.074
8.0575 21.247
8.0726 21.239
8.0878 21.730
8.1030 21.718
8.1182 21.659
8.1333 21.656
8.1485 21.409
8.1637 21.616
8.1789 21.641
8.1940 21.473
8.2092 21.620
8.2244 21.663
8.2396 21.530
8.2547 21.698
8.2699 21.736
8.2851 21.734
8.3003 21.546
8.3154 22.028
8.3306 21.814
8.3458 21.583
8.3610 21.775
8.3761 22.023
8.3913 21.907
8.4065 22.091
8.4217 22.423
8.4368 21.966
8.4520 21.982
8.4672 21.879
8.4824 21.786
8.4975 21.748
8.5127 22.112
8.5279 21.843
8.5431 22.559
8.5582 22.332
8.5734 22.409
8.5886 22.243
8.6038 22.255
8.6189 22.274
8.6341 22.378
8.6493 22.075
8.6645 21.715
8.6796 22.374
8.6948 22.548
8.7100 22.371
8.7252 22.890
8.7403 22.072
8.7555 22.227
8.7707 22.348
8.7859 22.476
8.8010 22.263
8.8162 23.033
8.8314 22.425
8.8466 22.630
8.8617 22.759
8.8769 22.787
8.8921 23.066
8.9073 23.092
8.9224 22.609
8.9376 22.709
8.9528 22.319
8.9680 22.498
8.9831 22.660
8.9983 22.391
9.0135 22.928
9.0287 22.677
9.0438 22.873
9.0590 22.542
9.0742 22.360
9.0894 22.627
9.1045 22.443
9.1197 22.467
9.1349 22.567
9.1501 22.633
9.1652 22.824
9.1804 22.947
9.1956 22.953
9.2108 23.105
9.2259 23.094
9.2411 23.009
9.2563 23.104
9.2715 22.870
9.2866 22.896
9.3018 23.041
9.3170 22.956
9.3322 23.004
9.3473 23.135
9.3625 22.990
9.3777 23.044
9.3929 23.099
9.4080 23.317
9.4232 23.377
9.4384 23.314
9.4536 23.191
9.4687 23.130
9.4839 22.888
9.4991 23.154
9.5143 23.212
9.5294 23.130
9.5446 23.362
9.5598 23.410
9.5750 23.620
9.5901 23.721
9.6053 23.120
9.6205 23.122
9.6357 23.364
9.6508 23.614
9.6660 23.878
9.6812 23.755
9.6964 23.822
9.7115 23.933
9.7267 24.114
9.7419 24.453
9.7571 24.672
9.7722 24.426
9.7874 24.028
9.8026 23.769
9.8178 23.813
9.8329 24.028
9.8481 23.930
9.8633 23.737
9.8785 23.713
9.8936 23.864
9.9088 23.779
9.9240 23.650
9.9392 23.868
9.9543 23.923
9.9695 24.033
9.9847 24.054
9.9999 23.807
10.0150 23.590
10.0302 23.408
10.0454 23.261
10.0606 23.329
10.0757 23.361
10.0909 23.208
10.1061 23.320
10.1213 23.282
10.1364 22.988
10.1516 23.054
10.1668 23.283
10.1820 23.269
10.1971 22.909
10.2123 23.048
10.2275 23.198
10.2427 22.909
10.2578 22.952
10.2730 23.148
10.2882 22.918
10.3034 22.853
10.3185 23.031
10.3337 22.987
10.3489 23.071
10.3641 22.892
10.3792 23.087
10.3944 23.188
10.4096 23.506
10.4248 23.410
10.4399 23.348
10.4551 23.282
10.4703 22.965
10.4855 23.149
10.5006 22.816
10.5158 22.711
10.5310 22.524
10.5462 22.494
10.5613 22.397
10.5765 22.565
10.5917 22.546
10.6069 22.672
10.6220 22.842
10.6372 22.506
10.6524 22.488
10.6676 22.261
10.6827 22.294
10.6979 22.583
10.7131 22.635
10.7283 22.563
10.7434 22.818
10.7586 22.442
10.7738 22.576
10.7890 22.558
10.8041 22.579
10.8193 22.570
10.8345 22.425
10.8497 22.028
10.8648 21.885
10.8800 22.081
10.8952 21.865
10.9104 22.040
10.9255 22.353
10.9407 22.344
10.9559 22.231
10.9711 22.289
10.9862 22.162
11.0014 22.159
11.0166 22.246
11.0318 22.461
11.0469 21.858
11.0621 22.246
11.0773 22.339
11.0925 22.196
11.1076 22.032
11.1228 21.896
11.1380 21.966
11.1532 22.123
11.1683 21.698
11.1835 21.739
11.1987 21.886
11.2139 21.861
11.2290 21.728
11.2442 21.621
11.2594 21.726
11.2746 21.462
11.2897 21.501
11.3049 21.542
11.3201 21.779
11.3353 21.701
11.3504 21.554
11.3656 21.747
11.3808 21.585
11.3960 21.330
11.4111 21.297
11.4263 21.493
11.4415 21.303
11.4567 21.305
11.4718 21.192
11.4870 21.357
11.5022 21.001
11.5174 20.955
11.5325 21.029
11.5477 21.327
11.5629 21.117
11.5781 21.272
11.5932 21.249
11.6084 20.970
11.6236 20.951
11.6388 20.512
11.6539 20.954
11.6691 20.917
11.6843 20.658
11.6995 20.837
11.7146 20.631
11.7298 20.721
11.7450 20.596
11.7602 19.833
11.7753 20.257
11.7905 20.436
11.8057 20.132
11.8209 20.164
11.8360 20.202
11.8512 20.451
11.8664 20.028
11.8816 19.997
11.8967 19.613
11.9119 19.559
11.9271 19.505
11.9423 19.252
11.9574 19.433
11.9726 19.298
11.9878 19.435
12.0030 19.335
12.0181 19.463
12.0333 19.390
12.0485 18.922
12.0637 18.928
12.0788 19.175
12.0940 18.884
12.1092 18.670
12.1244 18.730
12.1395 18.690
12.1547 18.572
12.1699 18.224
12.1851 18.297
12.2002 18.300
12.2154 17.931
12.2306 17.893
12.2458 17.979
12.2609 17.628
12.2761 17.653
12.2913 18.059
12.3065 18.070
12.3216 17.607
12.3368 17.709
12.3520 17.670
12.3672 17.385
12.3823 17.387
12.3975 17.344
12.4127 16.911
12.4279 17.024
12.4430 17.143
12.4582 17.017
12.4734 17.009
12.4886 16.953
12.5037 16.883
12.5189 16.592
12.5341 16.451
12.5493 16.426
12.5644 16.392
12.5796 16.533
12.5948 16.356
12.6100 16.072
12.6251 15.882
12.6403 15.820
12.6555 15.953
12.6707 15.896
12.6858 15.689
12.7010 15.660
12.7162 15.764
12.7314 15.628
12.7465 15.527
12.7617 15.595
12.7769 15.224
12.7921 15.154
12.8072 15.110
12.8224 15.201
12.8376 14.880
12.8528 14.647
12.8679 14.802
12.8831 14.536
12.8983 14.388
12.9135 14.801
12.9286 14.866
12.9438 14.603
12.9590 14.624
12.9742 14.487
12.9893 14.388
13.0045 14.221
13.0197 14.047
13.0349 14.053
13.0500 14.001
13.0652 13.949
13.0804 14.081
13.0956 13.996
13.1107 13.703
13.1259 13.584
13.1411 13.760
13.1563 13.853
13.1714 13.627
13.1866 13.603
13.2018 13.511
13.2170 13.324
13.2321 13.328
13.2473 13.503
13.2625 13.460
13.2777 13.316
13.2928 13.337
13.3080 13.238
13.3232 13.298
13.3384 13.325
13.3535 13.139
13.3687 13.093
13.3839 13.269
13.3991 13.092
13.4142 12.909
13.4294 12.916
13.4446 12.607
13.4598 12.667
13.4749 12.827
13.4901 12.711
13.5053 12.698
13.5205 12.715
13.5356 12.402
13.5508 12.254
13.5660 12.426
13.5812 12.483
13.5963 12.268
13.6115 12.347
13.6267 12.385
13.6419 12.293
13.6570 12.229
13.6722 12.210
13.6874 12.153
13.7026 12.057
13.7177 12.033
13.7329 12.041
13.7481 12.073
13.7633 12.246
13.7784 12.208
13.7936 12.187
13.8088 12.201
13.8239 12.383
13.8391 12.285
13.8543 12.283
13.8695 12.488
13.8846 12.456
13.8998 12.476
13.9150 12.491
13.9302 11.962
13.9453 11.897
13.9605 11.994
13.9757 11.905
13.9909 11.684
14.0060 11.472
14.0212 11.241
14.0364 11.681
14.0516 11.684
14.0667 11.344
14.0819 11.332
14.0971 11.626
14.1123 11.471
14.1274 11.276
14.1426 11.407
14.1578 11.417
14.1730 11.474
14.1881 11.679
14.2033 11.705
14.2185 11.452
14.2337 11.429
14.2488 11.668
14.2640 11.408
14.2792 11.464
14.2944 11.559
14.3095 11.362
14.3247 11.543
14.3399 11.793
14.3551 11.929
14.3702 12.100
14.3854 12.137
14.4006 12.194
14.4158 12.332
14.4309 12.651
14.4461 12.582
14.4613 12.268
14.4765 12.012
14.4916 12.332
14.5068 12.190
14.5220 11.816
14.5372 11.595
14.5523 11.844
14.5675 11.326
14.5827 11.744
14.5979 11.285
14.6130 11.329
14.6282 11.353
14.6434 11.378
14.6586 11.037
14.6737 11.049
14.6889 11.242
14.7041 11.223
14.7193 11.129
14.7344 10.980
14.7496 11.402
14.7648 11.174
14.7800 11.003
14.7951 10.822
14.8103 10.908
14.8255 11.116
14.8407 10.869
14.8558 11.084
14.8710 10.749
14.8862 10.985
14.9014 10.807
14.9165 10.664
14.9317 11.227
14.9469 10.918
14.9621 10.849
14.9772 10.525
14.9924 10.898
15.0076 10.643
15.0228 10.403
15.0379 10.498
15.0531 10.670
15.0683 10.590
15.0835 10.606
15.0986 10.368
15.1138 10.538
15.1290 10.425
15.1442 10.789
15.1593 10.395
15.1745 10.476
15.1897 10.371
15.2049 10.220
15.2200 10.454
15.2352 10.176
15.2504 10.316
15.2656 10.170
15.2807 10.211
15.2959 10.497
15.3111 10.535
15.3263 9.987
15.3414 10.097
15.3566 10.444
15.3718 10.430
15.3870 10.003
15.4021 10.126
15.4173 10.433
15.4325 10.354
15.4477 10.664
15.4628 10.392
15.4780 10.230
15.4932 10.554
15.5084 10.157
15.5235 10.110
15.5387 10.349
15.5539 10.254
15.5691 10.212
15.5842 10.208
15.5994 10.080
15.6146 9.950
15.6298 10.185
15.6449 10.259
15.6601 10.179
15.6753 10.081
15.6905 9.992
15.7056 10.149
15.7208 10.209
15.7360 9.665
15.7512 9.783
15.7663 9.828
15.7815 10.026
15.7967 9.864
15.8119 10.111
15.8270 10.255
15.8422 9.995
15.8574 9.731
15.8726 9.532
15.8877 9.716
15.9029 9.678
15.9181 9.775
15.9333 9.784
15.9484 9.828
15.9636 9.849
15.9788 9.626
15.9940 9.719
16.0091 9.875
16.0243 9.857
16.0395 9.799
16.0547 10.132
16.0698 9.977
16.0850 9.773
16.1002 10.082
16.1154 9.974
16.1305 9.955
16.1457 9.845
16.1609 9.762
16.1761 9.723
16.1912 10.001
16.2064 9.686
16.2216 9.841
16.2368 9.860
16.2519 10.006
16.2671 10.162
16.2823 10.082
16.2975 9.962
16.3126 10.050
16.3278 9.926
16.3430 9.979
16.3582 10.517
16.3733 10.664
16.3885 10.267
16.4037 9.826
16.4189 9.853
16.4340 9.800
16.4492 9.728
16.4644 9.771
16.4796 9.981
16.4947 9.791
16.5099 9.822
16.5251 10.129
16.5403 10.008
16.5554 9.779
16.5706 9.774
16.5858 9.785
16.6010 9.767
16.6161 9.687
16.6313 9.728
16.6465 9.919
16.6617 10.101
16.6768 10.115
16.6920 10.278
16.7072 10.054
16.7224 10.123
16.7375 10.151
16.7527 10.094
16.7679 9.985
16.7831 10.042
16.7982 10.090
16.8134 10.093
16.8286 10.061
16.8438 10.016
16.8589 9.902
16.8741 9.959
16.8893 10.057
16.9045 9.938
16.9196 9.914
16.9348 9.832
16.9500 9.721
16.9652 9.773
16.9803 9.977
16.9955 10.030
17.0107 9.878
17.0259 9.976
17.0410 10.096
17.0562 10.107
17.0714 10.336
17.0866 10.415
17.1017 10.529
17.1169 10.780
17.1321 11.087
17.1473 11.436
17.1624 12.020
17.1776 12.625
17.1928 13.314
17.2080 14.216
17.2231 15.340
17.2383 16.723
17.2535 17.615
17.2687 18.434
17.2838 18.908
17.2990 18.344
17.3142 17.340
17.3294 16.493
17.3445 16.040
17.3597 16.079
17.3749 15.931
17.3901 15.173
17.4052 14.179
17.4204 13.139
17.4356 12.247
17.4508 11.765
17.4659 11.442
17.4811 11.134
17.4963 10.977
17.5115 10.933
17.5266 10.845
17.5418 10.554
17.5570 10.344
17.5722 10.276
17.5873 10.289
17.6025 10.282
17.6177 10.200
17.6329 10.125
17.6480 10.299
17.6632 10.280
17.6784 10.230
17.6936 10.246
17.7087 10.115
17.7239 10.169
17.7391 10.272
17.7543 10.297
17.7694 10.291
17.7846 10.386
17.7998 10.515
17.8150 10.413
17.8301 10.676
17.8453 10.975
17.8605 11.000
17.8757 10.665
17.8908 10.871
17.9060 11.270
17.9212 10.910
17.9364 10.735
17.9515 10.717
17.9667 10.766
17.9819 10.851
17.9971 10.768
18.0122 10.818
18.0274 10.747
18.0426 10.748
18.0578 10.579
18.0729 10.433
18.0881 10.118
18.1033 9.930
18.1185 10.085
18.1336 10.066
18.1488 9.914
18.1640 9.919
18.1792 9.855
18.1943 10.021
18.2095 10.144
18.2247 10.005
18.2399 9.910
18.2550 9.966
18.2702 10.092
18.2854 10.042
18.3006 10.102
18.3157 10.046
18.3309 9.809
18.3461 9.720
18.3613 9.910
18.3764 9.819
18.3916 9.654
18.4068 9.805
18.4220 9.833
18.4371 9.920
18.4523 9.884
18.4675 9.804
18.4827 9.829
18.4978 9.881
18.5130 9.770
18.5282 9.805
18.5434 9.965
18.5585 9.896
18.5737 10.081
18.5889 9.794
18.6041 9.673
18.6192 9.788
18.6344 9.890
18.6496 9.700
18.6648 9.858
18.6799 9.992
18.6951 9.807
18.7103 9.756
18.7255 9.861
18.7406 9.662
18.7558 9.687
18.7710 9.805
18.7862 10.037
18.8013 9.947
18.8165 9.682
18.8317 9.590
18.8469 9.763
18.8620 9.935
18.8772 10.202
18.8924 10.032
18.9076 9.809
18.9227 9.774
18.9379 9.946
18.9531 9.992
18.9683 10.013
18.9834 9.917
18.9986 10.046
19.0138 10.321
19.0290 10.397
19.0441 10.084
19.0593 10.174
19.0745 10.442
19.0897 10.438
19.1048 10.472
19.1200 10.392
19.1352 10.222
19.1504 10.387
19.1655 10.631
19.1807 10.862
19.1959 10.821
19.2111 10.509
19.2262 10.516
19.2414 10.586
19.2566 10.786
19.2718 11.179
19.2869 11.097
19.3021 11.058
19.3173 11.199
19.3325 11.173
19.3476 11.183
19.3628 11.174
19.3780 11.082
19.3932 11.199
19.4083 11.282
19.4235 11.270
19.4387 11.167
19.4539 11.091
19.4690 11.273
19.4842 11.221
19.4994 11.203
19.5146 11.197
19.5297 11.201
19.5449 11.266
19.5601 11.268
19.5753 11.345
19.5904 11.518
19.6056 11.779
19.6208 12.004
19.6360 11.906
19.6511 11.743
19.6663 11.686
19.6815 11.538
19.6967 11.569
19.7118 11.637
19.7270 11.717
19.7422 11.898
19.7574 11.902
19.7725 11.812
19.7877 11.906
19.8029 12.028
19.8180 12.024
19.8332 12.090
19.8484 12.184
19.8636 12.123
19.8787 12.336
19.8939 12.815
19.9091 13.083
19.9243 13.454
19.9394 13.995
19.9546 14.234
19.9698 14.225
19.9850 14.393
20.0001 14.216
20.0153 13.968
20.0305 14.051
20.0457 13.631
20.0608 13.520
20.0760 13.871
20.0912 13.935
20.1064 13.757
20.1215 13.599
20.1367 13.265
20.1519 12.849
20.1671 12.449
20.1822 12.397
20.1974 12.506
20.2126 12.538
20.2278 12.678
20.2429 12.546
20.2581 12.266
20.2733 11.854
20.2885 11.493
20.3036 11.686
20.3188 11.628
20.3340 11.632
20.3492 11.515
20.3643 11.368
20.3795 11.014
20.3947 11.032
20.4099 10.797
20.4250 10.865
20.4402 10.899
20.4554 10.687
20.4706 10.704
20.4857 10.757
20.5009 10.684
20.5161 10.654
20.5313 10.618
20.5464 10.522
20.5616 10.721
20.5768 10.705
20.5920 10.578
20.6071 10.458
20.6223 10.512
20.6375 10.353
20.6527 10.608
20.6678 10.396
20.6830 9.924
20.6982 10.287
20.7134 10.254
20.7285 10.168
20.7437 10.495
20.7589 10.270
20.7741 10.382
20.7892 10.424
20.8044 10.317
20.8196 10.544
20.8348 10.241
20.8499 10.432
20.8651 10.068
20.8803 10.270
20.8955 10.458
20.9106 10.623
20.9258 10.463
20.9410 10.267
20.9562 10.290
20.9713 10.630
20.9865 10.771
21.0017 10.486
21.0169 10.276
21.0320 10.203
21.0472 10.391
21.0624 10.306
21.0776 10.492
21.0927 10.084
21.1079 10.124
21.1231 9.738
21.1383 9.788
21.1534 10.165
21.1686 9.778
21.1838 9.612
21.1990 9.948
21.2141 9.615
21.2293 9.513
21.2445 9.628
21.2597 9.451
21.2748 9.833
21.2900 9.696
21.3052 9.691
21.3204 9.690
21.3355 9.313
21.3507 9.727
21.3659 9.765
21.3811 9.751
21.3962 9.821
21.4114 9.421
21.4266 9.242
21.4418 9.511
21.4569 9.292
21.4721 9.385
21.4873 9.458
21.5025 9.326
21.5176 9.253
21.5328 9.217
21.5480 9.226
21.5632 9.150
21.5783 9.373
21.5935 9.395
21.6087 9.375
21.6239 9.150
21.6390 9.401
21.6542 9.272
21.6694 9.118
21.6846 9.172
21.6997 9.134
21.7149 9.236
21.7301 9.202
21.7453 9.396
21.7604 9.020
21.7756 8.805
21.7908 8.973
21.8060 9.116
21.8211 8.934
21.8363 8.780
21.8515 8.928
21.8667 8.967
21.8818 9.039
21.8970 9.076
21.9122 9.145
21.9274 9.167
21.9425 8.974
21.9577 8.819
21.9729 8.872
21.9881 8.939
22.0032 8.946
22.0184 8.814
22.0336 8.754
22.0488 8.660
22.0639 8.757
22.0791 8.817
22.0943 8.782
22.1095 8.750
22.1246 8.825
22.1398 8.777
22.1550 8.635
22.1702 8.680
22.1853 8.607
22.2005 8.617
22.2157 8.696
22.2309 8.593
22.2460 8.762
22.2612 8.669
22.2764 8.612
22.2916 8.487
22.3067 8.385
22.3219 8.681
22.3371 8.507
22.3523 8.443
22.3674 8.830
22.3826 8.978
22.3978 8.639
22.4130 8.661
22.4281 8.663
22.4433 8.327
22.4585 8.288
22.4737 8.396
22.4888 8.765
22.5040 8.498
22.5192 8.412
22.5344 8.330
22.5495 8.447
22.5647 8.586
22.5799 8.633
22.5951 8.426
22.6102 8.283
22.6254 8.340
22.6406 8.496
22.6558 8.246
22.6709 8.495
22.6861 8.322
22.7013 8.233
22.7165 7.973
22.7316 6.529
