'Id: "" Comment: "" Operator: "Lab Manager" Anode: "Mo" Scantype: "Still (Eiger2R_500K (1D mode))" TimePerStep: "300" X: "11.8" Y: "9.4" Z: "11.284" 
7.2532 19.332
7.2684 18.685
7.2836 18.669
7.2987 18.879
7.3139 18.828
7.3291 18.873
7.3443 18.980
7.3594 19.150
7.3746 19.143
7.3898 19.315
7.4050 19.364
7.4201 19.303
7.4353 19.035
7.4505 18.962
7.4657 19.418
7.4808 19.545
7.4960 19.487
7.5112 19.503
7.5264 19.613
7.5415 19.571
7.5567 19.673
7.5719 19.794
7.5871 19.659
7.6022 20.050
7.6174 20.079
7.6326 19.984
7.6478 19.932
7.6629 19.987
7.6781 20.024
7.6933 20.265
7.7085 20.208
7.7236 20.060
7.7388 20.049
7.7540 20.546
7.7692 20.591
7.7843 20.243
7.7995 20.404
7.8147 20.638
7.8299 20.624
7.8450 20.478
7.8602 20.433
7.8754 20.462
7.8905 20.567
7.9057 20.629
7.9209 20.861
7.9361 20.632
7.9512 20.642
7.9664 20.698
7.9816 20.907
7.9968 20.887
8.0119 20.871
8.0271 20.842
8.0423 20.813
8.0575 20.911
8.0726 20.967
8.0878 20.972
8.1030 21.132
8.1182 21.316
8.1333 21.258
8.1485 21.190
8.1637 21.351
8.1789 21.363
8.1940 21.229
8.2092 21.040
8.2244 21.083
8.2396 21.405
8.2547 21.659
8.2699 21.563
8.2851 21.390
8.3003 21.357
8.3154 21.226
8.3306 21.327
8.3458 21.719
8.3610 21.620
8.3761 21.685
8.3913 22.138
8.4065 22.299
8.4217 21.423
8.4368 21.563
8.4520 21.709
8.4672 22.334
8.4824 21.334
8.4975 21.606
8.5127 22.333
8.5279 22.027
8.5431 21.675
8.5582 21.687
8.5734 22.096
8.5886 21.442
8.6038 21.974
8.6189 22.016
8.6341 21.899
8.6493 21.902
8.6645 22.622
8.6796 22.277
8.6948 22.102
8.7100 21.902
8.7252 22.456
8.7403 22.066
8.7555 22.633
8.7707 21.924
8.7859 22.458
8.8010 21.867
8.8162 22.434
8.8314 22.594
8.8466 22.292
8.8617 22.157
8.8769 22.060
8.8921 22.369
8.9073 22.211
8.9224 22.405
8.9376 22.043
8.9528 22.432
8.9680 22.313
8.9831 22.564
8.9983 22.568
9.0135 22.776
9.0287 22.420
9.0438 22.633
9.0590 22.702
9.0742 22.643
9.0894 22.478
9.1045 22.494
9.1197 22.883
9.1349 22.905
9.1501 22.941
9.1652 22.846
9.1804 22.847
9.1956 22.621
9.2108 22.752
9.2259 22.936
9.2411 23.379
9.2563 22.957
9.2715 22.896
9.2866 22.528
9.3018 22.839
9.3170 22.770
9.3322 22.988
9.3473 22.931
9.3625 22.948
9.3777 22.884
9.3929 23.221
9.4080 23.022
9.4232 22.690
9.4384 22.900
9.4536 23.171
9.4687 23.258
9.4839 23.207
9.4991 23.160
9.5143 23.139
9.5294 23.133
9.5446 23.005
9.5598 22.934
9.5750 23.087
9.5901 22.764
9.6053 22.853
9.6205 23.061
9.6357 23.327
9.6508 23.450
9.6660 23.293
9.6812 23.348
9.6964 23.511
9.7115 23.465
9.7267 23.496
9.7419 23.855
9.7571 23.840
9.7722 23.923
9.7874 23.871
9.8026 23.686
9.8178 23.605
9.8329 23.524
9.8481 23.358
9.8633 23.342
9.8785 23.061
9.8936 22.809
9.9088 22.930
9.9240 22.958
9.9392 22.778
9.9543 22.898
9.9695 23.153
9.9847 23.072
9.9999 23.042
10.0150 22.842
10.0302 23.064
10.0454 23.376
10.0606 23.077
10.0757 22.802
10.0909 22.890
10.1061 23.355
10.1213 23.125
10.1364 22.917
10.1516 22.998
10.1668 22.974
10.1820 23.014
10.1971 23.095
10.2123 23.073
10.2275 23.041
10.2427 22.948
10.2578 22.921
10.2730 23.088
10.2882 23.079
10.3034 22.933
10.3185 22.918
10.3337 22.996
10.3489 22.621
10.3641 22.496
10.3792 22.668
10.3944 22.811
10.4096 22.839
10.4248 22.980
10.4399 22.716
10.4551 22.412
10.4703 22.550
10.4855 22.659
10.5006 22.094
10.5158 22.248
10.5310 22.684
10.5462 22.543
10.5613 22.645
10.5765 22.668
10.5917 22.517
10.6069 22.098
10.6220 22.456
10.6372 22.464
10.6524 22.167
10.6676 22.509
10.6827 22.438
10.6979 22.239
10.7131 22.181
10.7283 22.180
10.7434 22.170
10.7586 22.112
10.7738 22.044
10.7890 21.959
10.8041 22.213
10.8193 22.059
10.8345 22.118
10.8497 22.345
10.8648 21.978
10.8800 22.174
10.8952 22.281
10.9104 22.302
10.9255 22.041
10.9407 21.864
10.9559 21.707
10.9711 21.889
10.9862 22.341
11.0014 22.321
11.0166 22.286
11.0318 21.974
11.0469 22.006
11.0621 21.900
11.0773 22.048
11.0925 21.680
11.1076 21.776
11.1228 21.813
11.1380 21.799
11.1532 21.936
11.1683 21.861
11.1835 21.712
11.1987 21.596
11.2139 21.592
11.2290 21.945
11.2442 21.745
11.2594 21.827
11.2746 21.747
11.2897 21.922
11.3049 21.677
11.3201 21.479
11.3353 21.453
11.3504 21.520
11.3656 21.533
11.3808 21.372
11.3960 21.373
11.4111 21.298
11.4263 21.458
11.4415 21.198
11.4567 21.178
11.4718 20.989
11.4870 21.295
11.5022 21.331
11.5174 21.268
11.5325 21.068
11.5477 20.800
11.5629 20.581
11.5781 20.635
11.5932 21.099
11.6084 20.705
11.6236 20.358
11.6388 20.366
11.6539 20.509
11.6691 20.370
11.6843 20.405
11.6995 20.251
11.7146 20.096
11.7298 20.374
11.7450 20.500
11.7602 20.433
11.7753 20.342
11.7905 20.585
11.8057 20.293
11.8209 19.937
11.8360 19.986
11.8512 19.791
11.8664 19.855
11.8816 20.081
11.8967 19.923
11.9119 19.620
11.9271 19.376
11.9423 19.465
11.9574 19.497
11.9726 19.211
11.9878 19.019
12.0030 19.334
12.0181 19.076
12.0333 18.978
12.0485 18.905
12.0637 18.973
12.0788 19.095
12.0940 18.806
12.1092 18.632
12.1244 18.553
12.1395 18.511
12.1547 18.305
12.1699 18.297
12.1851 18.082
12.2002 18.153
12.2154 18.256
12.2306 18.197
12.2458 18.016
12.2609 17.934
12.2761 17.629
12.2913 17.758
12.3065 18.113
12.3216 18.166
12.3368 17.683
12.3520 17.513
12.3672 17.179
12.3823 16.959
12.3975 17.247
12.4127 17.333
12.4279 17.068
12.4430 16.958
12.4582 16.908
12.4734 16.787
12.4886 16.517
12.5037 16.461
12.5189 16.686
12.5341 16.897
12.5493 16.531
12.5644 16.176
12.5796 16.225
12.5948 16.199
12.6100 15.911
12.6251 15.815
12.6403 15.826
12.6555 15.864
12.6707 15.853
12.6858 15.951
12.7010 15.891
12.7162 15.652
12.7314 15.735
12.7465 15.736
12.7617 15.461
12.7769 15.220
12.7921 15.173
12.8072 15.010
12.8224 15.009
12.8376 15.117
12.8528 15.142
12.8679 14.883
12.8831 14.687
12.8983 14.646
12.9135 14.609
12.9286 14.733
12.9438 14.458
12.9590 14.353
12.9742 14.512
12.9893 14.463
13.0045 14.352
13.0197 14.165
13.0349 13.958
13.0500 14.009
13.0652 14.111
13.0804 13.817
13.0956 13.705
13.1107 13.798
13.1259 13.835
13.1411 13.706
13.1563 13.435
13.1714 13.423
13.1866 13.339
13.2018 13.207
13.2170 13.288
13.2321 13.186
13.2473 13.175
13.2625 13.257
13.2777 13.184
13.2928 13.104
13.3080 12.942
13.3232 12.931
13.3384 12.951
13.3535 13.026
13.3687 13.086
13.3839 13.105
13.3991 13.027
13.4142 13.138
13.4294 13.170
13.4446 12.650
13.4598 12.559
13.4749 12.642
13.4901 12.421
13.5053 12.222
13.5205 12.577
13.5356 12.646
13.5508 12.485
13.5660 12.528
13.5812 12.464
13.5963 12.308
13.6115 12.378
13.6267 12.425
13.6419 12.200
13.6570 12.073
13.6722 12.141
13.6874 12.151
13.7026 12.046
13.7177 12.247
13.7329 12.222
13.7481 11.766
13.7633 11.623
13.7784 12.094
13.7936 12.303
13.8088 12.133
13.8239 12.136
13.8391 12.184
13.8543 12.157
13.8695 12.300
13.8846 12.388
13.8998 12.302
13.9150 11.926
13.9302 12.134
13.9453 12.149
13.9605 12.063
13.9757 11.815
13.9909 12.043
14.0060 11.937
14.0212 11.550
14.0364 11.548
14.0516 11.358
14.0667 11.563
14.0819 11.353
14.0971 11.436
14.1123 11.647
14.1274 11.765
14.1426 11.565
14.1578 11.383
14.1730 11.405
14.1881 11.570
14.2033 11.739
14.2185 11.750
14.2337 11.808
14.2488 11.500
14.2640 11.584
14.2792 11.643
14.2944 12.198
14.3095 12.326
14.3247 12.428
14.3399 12.420
14.3551 12.551
14.3702 12.483
14.3854 12.936
14.4006 12.830
14.4158 12.866
14.4309 12.887
14.4461 12.658
14.4613 12.210
14.4765 12.303
14.4916 12.168
14.5068 12.092
14.5220 11.738
14.5372 11.433
14.5523 11.152
14.5675 11.001
14.5827 10.946
14.5979 10.988
14.6130 11.022
14.6282 11.283
14.6434 10.692
14.6586 10.613
14.6737 10.674
14.6889 10.868
14.7041 10.618
14.7193 10.555
14.7344 10.379
14.7496 10.464
14.7648 10.406
14.7800 10.302
14.7951 10.377
14.8103 10.399
14.8255 10.901
14.8407 10.696
14.8558 10.449
14.8710 10.469
14.8862 10.338
14.9014 10.533
14.9165 10.423
14.9317 10.773
14.9469 10.144
14.9621 10.128
14.9772 10.227
14.9924 10.202
15.0076 10.062
15.0228 10.189
15.0379 10.516
15.0531 10.138
15.0683 10.371
15.0835 10.146
15.0986 9.852
15.1138 10.156
15.1290 10.151
15.1442 10.070
15.1593 10.055
15.1745 9.959
15.1897 10.130
15.2049 9.981
15.2200 10.100
15.2352 10.032
15.2504 10.053
15.2656 10.064
15.2807 9.901
15.2959 10.095
15.3111 10.185
15.3263 10.268
15.3414 10.169
15.3566 10.118
15.3718 9.765
15.3870 9.876
15.4021 9.871
15.4173 10.315
15.4325 9.732
15.4477 10.143
15.4628 10.249
15.4780 9.931
15.4932 10.038
15.5084 10.009
15.5235 10.334
15.5387 10.274
15.5539 10.162
15.5691 10.067
15.5842 9.658
15.5994 9.906
15.6146 9.970
15.6298 9.711
15.6449 9.712
15.6601 9.730
15.6753 9.630
15.6905 9.483
15.7056 9.434
15.7208 9.454
15.7360 9.484
15.7512 9.443
15.7663 9.619
15.7815 9.744
15.7967 9.480
15.8119 9.685
15.8270 9.461
15.8422 9.534
15.8574 9.652
15.8726 9.460
15.8877 9.278
15.9029 9.205
15.9181 9.433
15.9333 9.585
15.9484 9.697
15.9636 9.591
15.9788 9.744
15.9940 9.510
16.0091 9.679
16.0243 9.396
16.0395 9.367
16.0547 9.552
16.0698 9.434
16.0850 9.620
16.1002 9.498
16.1154 9.592
16.1305 9.439
16.1457 9.702
16.1609 9.442
16.1761 9.193
16.1912 9.408
16.2064 9.738
16.2216 9.889
16.2368 9.822
16.2519 9.556
16.2671 9.568
16.2823 9.675
16.2975 9.860
16.3126 9.948
16.3278 9.903
16.3430 9.713
16.3582 9.750
16.3733 9.847
16.3885 9.883
16.4037 9.721
16.4189 9.737
16.4340 9.883
16.4492 9.843
16.4644 9.539
16.4796 9.445
16.4947 9.779
16.5099 9.585
16.5251 9.480
16.5403 9.731
16.5554 9.706
16.5706 9.404
16.5858 9.555
16.6010 9.550
16.6161 9.373
16.6313 9.382
16.6465 9.501
16.6617 9.820
16.6768 10.148
16.6920 9.938
16.7072 9.886
16.7224 9.846
16.7375 9.902
16.7527 9.903
16.7679 9.775
16.7831 9.920
16.7982 9.824
16.8134 9.669
16.8286 9.648
16.8438 9.648
16.8589 9.576
16.8741 9.692
16.8893 9.666
16.9045 9.604
16.9196 9.537
16.9348 9.644
16.9500 9.516
16.9652 9.539
16.9803 9.676
16.9955 10.059
17.0107 10.301
17.0259 10.166
17.0410 9.981
17.0562 10.165
17.0714 10.192
17.0866 10.029
17.1017 10.220
17.1169 10.451
17.1321 10.733
17.1473 11.300
17.1624 11.630
17.1776 12.149
17.1928 13.129
17.2080 13.799
17.2231 15.106
17.2383 16.572
17.2535 17.458
17.2687 18.352
17.2838 18.777
17.2990 18.263
17.3142 17.203
17.3294 16.330
17.3445 15.939
17.3597 16.131
17.3749 16.003
17.3901 15.221
17.4052 14.274
17.4204 13.021
17.4356 12.302
17.4508 12.076
17.4659 11.636
17.4811 11.465
17.4963 11.343
17.5115 11.039
17.5266 10.999
17.5418 10.964
17.5570 10.939
17.5722 10.950
17.5873 11.084
17.6025 11.455
17.6177 11.376
17.6329 11.298
17.6480 11.227
17.6632 11.127
17.6784 11.442
17.6936 11.429
17.7087 11.196
17.7239 11.204
17.7391 11.156
17.7543 10.979
17.7694 10.789
17.7846 10.880
17.7998 10.790
17.8150 10.542
17.8301 10.563
17.8453 10.185
17.8605 10.189
17.8757 10.498
17.8908 10.440
17.9060 10.328
17.9212 10.403
17.9364 10.355
17.9515 10.038
17.9667 10.124
17.9819 10.185
17.9971 9.993
18.0122 10.043
18.0274 10.082
18.0426 10.027
18.0578 10.222
18.0729 10.071
18.0881 10.179
18.1033 10.001
18.1185 10.137
18.1336 10.239
18.1488 10.141
18.1640 9.933
18.1792 9.815
18.1943 9.773
18.2095 9.719
18.2247 9.734
18.2399 9.701
18.2550 9.834
18.2702 9.924
18.2854 9.955
18.3006 10.109
18.3157 9.787
18.3309 9.681
18.3461 9.953
18.3613 9.868
18.3764 9.992
18.3916 9.900
18.4068 9.837
18.4220 9.864
18.4371 9.781
18.4523 9.698
18.4675 9.736
18.4827 9.783
18.4978 9.956
18.5130 9.778
18.5282 9.650
18.5434 9.643
18.5585 9.666
18.5737 9.735
18.5889 9.673
18.6041 9.771
18.6192 9.838
18.6344 9.894
18.6496 9.943
18.6648 9.871
18.6799 9.767
18.6951 9.774
18.7103 9.958
18.7255 9.737
18.7406 9.632
18.7558 9.747
18.7710 9.810
18.7862 9.683
18.8013 9.581
18.8165 9.539
18.8317 9.997
18.8469 10.048
18.8620 9.907
18.8772 10.029
18.8924 10.046
18.9076 10.099
18.9227 9.930
18.9379 9.877
18.9531 10.035
18.9683 10.290
18.9834 10.288
18.9986 10.304
19.0138 10.300
19.0290 10.012
19.0441 10.147
19.0593 10.411
19.0745 10.496
19.0897 10.284
19.1048 10.085
19.1200 10.488
19.1352 10.458
19.1504 10.460
19.1655 10.729
19.1807 10.483
19.1959 10.399
19.2111 10.708
19.2262 10.846
19.2414 10.843
19.2566 10.894
19.2718 10.850
19.2869 11.015
19.3021 11.248
19.3173 11.157
19.3325 10.943
19.3476 10.866
19.3628 11.126
19.3780 11.258
19.3932 11.085
19.4083 11.156
19.4235 11.510
19.4387 11.499
19.4539 11.342
19.4690 11.203
19.4842 11.199
19.4994 11.427
19.5146 11.534
19.5297 11.622
19.5449 11.870
19.5601 11.832
19.5753 11.786
19.5904 12.139
19.6056 12.213
19.6208 11.862
19.6360 11.681
19.6511 11.684
19.6663 11.731
19.6815 11.776
19.6967 11.697
19.7118 11.949
19.7270 12.241
19.7422 11.871
19.7574 11.629
19.7725 11.705
19.7877 11.913
19.8029 12.071
19.8180 12.062
19.8332 12.212
19.8484 12.328
19.8636 12.575
19.8787 12.769
19.8939 12.763
19.9091 13.213
19.9243 13.927
19.9394 14.110
19.9546 14.386
19.9698 14.772
19.9850 14.759
20.0001 14.554
20.0153 14.434
20.0305 14.295
20.0457 13.852
20.0608 13.690
20.0760 13.731
20.0912 13.960
20.1064 13.881
20.1215 13.735
20.1367 13.239
20.1519 13.173
20.1671 13.248
20.1822 13.053
20.1974 13.001
20.2126 12.994
20.2278 12.865
20.2429 12.567
20.2581 12.383
20.2733 12.344
20.2885 12.065
20.3036 12.056
20.3188 12.228
20.3340 12.346
20.3492 12.375
20.3643 11.993
20.3795 12.088
20.3947 11.710
20.4099 11.994
20.4250 11.834
20.4402 12.012
20.4554 11.970
20.4706 11.974
20.4857 11.635
20.5009 11.775
20.5161 11.662
20.5313 11.269
20.5464 11.624
20.5616 11.399
20.5768 11.115
20.5920 11.136
20.6071 11.284
20.6223 11.119
20.6375 11.089
20.6527 11.048
20.6678 10.708
20.6830 10.652
20.6982 10.688
20.7134 10.769
20.7285 10.387
20.7437 10.544
20.7589 10.695
20.7741 10.527
20.7892 10.389
20.8044 10.585
20.8196 10.290
20.8348 10.598
20.8499 10.163
20.8651 10.593
20.8803 10.417
20.8955 10.360
20.9106 10.241
20.9258 10.232
20.9410 10.370
20.9562 10.260
20.9713 10.306
20.9865 10.517
21.0017 9.972
21.0169 10.340
21.0320 10.477
21.0472 10.408
21.0624 9.812
21.0776 9.919
21.0927 10.004
21.1079 10.206
21.1231 9.888
21.1383 9.760
21.1534 9.982
21.1686 10.074
21.1838 10.044
21.1990 9.810
21.2141 9.930
21.2293 9.632
21.2445 9.794
21.2597 10.094
21.2748 9.501
21.2900 9.582
21.3052 9.394
21.3204 9.644
21.3355 9.599
21.3507 9.333
21.3659 9.705
21.3811 9.630
21.3962 9.613
21.4114 9.451
21.4266 9.466
21.4418 9.558
21.4569 9.607
21.4721 9.244
21.4873 9.210
21.5025 9.351
21.5176 9.272
21.5328 9.371
21.5480 9.157
21.5632 9.388
21.5783 9.441
21.5935 9.148
21.6087 9.369
21.6239 9.301
21.6390 9.204
21.6542 9.216
21.6694 9.209
21.6846 9.187
21.6997 9.068
21.7149 9.292
21.7301 9.150
21.7453 8.950
21.7604 9.014
21.7756 9.186
21.7908 9.077
21.8060 9.084
21.8211 9.134
21.8363 9.122
21.8515 8.830
21.8667 8.994
21.8818 8.963
21.8970 9.082
21.9122 9.272
21.9274 8.988
21.9425 9.042
21.9577 9.152
21.9729 9.045
21.9881 8.863
22.0032 8.837
22.0184 8.656
22.0336 8.765
22.0488 8.706
22.0639 8.544
22.0791 8.693
22.0943 8.798
22.1095 8.689
22.1246 8.777
22.1398 8.741
22.1550 8.589
22.1702 8.884
22.1853 8.880
22.2005 8.727
22.2157 8.616
22.2309 8.643
22.2460 8.706
22.2612 8.600
22.2764 8.737
22.2916 8.575
22.3067 8.618
22.3219 8.450
22.3371 8.483
22.3523 8.658
22.3674 8.617
22.3826 8.557
22.3978 8.576
22.4130 8.475
22.4281 8.450
22.4433 8.655
22.4585 8.548
22.4737 8.655
22.4888 8.371
22.5040 8.475
22.5192 8.421
22.5344 8.360
22.5495 8.581
22.5647 8.637
22.5799 8.594
22.5951 8.581
22.6102 8.394
22.6254 8.566
22.6406 8.835
22.6558 8.524
22.6709 8.415
22.6861 8.469
22.7013 8.337
22.7165 8.047
22.7316 6.247
