'Id: "" Comment: "" Operator: "Lab Manager" Anode: "Mo" Scantype: "Still (Eiger2R_500K (1D mode))" TimePerStep: "300" X: "11.8" Y: "9.4" Z: "11.284" 
7.2532 19.064
7.2684 18.839
7.2836 19.136
7.2987 19.275
7.3139 18.921
7.3291 19.113
7.3443 19.503
7.3594 19.251
7.3746 19.600
7.3898 19.229
7.4050 19.378
7.4201 19.857
7.4353 19.794
7.4505 19.294
7.4657 19.387
7.4808 19.625
7.4960 19.885
7.5112 19.643
7.5264 19.544
7.5415 19.794
7.5567 19.847
7.5719 19.892
7.5871 20.095
7.6022 19.854
7.6174 19.806
7.6326 19.929
7.6478 19.945
7.6629 20.086
7.6781 20.231
7.6933 20.462
7.7085 20.436
7.7236 20.477
7.7388 20.669
7.7540 20.730
7.7692 20.818
7.7843 20.902
7.7995 20.705
7.8147 20.751
7.8299 20.861
7.8450 20.886
7.8602 20.993
7.8754 20.754
7.8905 20.623
7.9057 21.092
7.9209 21.367
7.9361 21.260
7.9512 21.305
7.9664 21.211
7.9816 21.043
7.9968 21.351
8.0119 21.178
8.0271 20.886
8.0423 21.187
8.0575 21.222
8.0726 21.428
8.0878 21.401
8.1030 21.277
8.1182 21.431
8.1333 21.597
8.1485 21.470
8.1637 21.315
8.1789 21.752
8.1940 21.699
8.2092 21.642
8.2244 21.646
8.2396 21.738
8.2547 21.195
8.2699 21.353
8.2851 21.772
8.3003 21.468
8.3154 21.468
8.3306 21.590
8.3458 21.953
8.3610 21.908
8.3761 21.729
8.3913 21.704
8.4065 21.446
8.4217 21.705
8.4368 22.226
8.4520 22.053
8.4672 22.253
8.4824 22.009
8.4975 21.695
8.5127 22.340
8.5279 21.911
8.5431 22.601
8.5582 22.737
8.5734 22.247
8.5886 22.836
8.6038 22.003
8.6189 22.401
8.6341 22.196
8.6493 22.741
8.6645 22.571
8.6796 22.333
8.6948 22.717
8.7100 22.480
8.7252 22.720
8.7403 22.799
8.7555 23.246
8.7707 22.407
8.7859 22.663
8.8010 22.463
8.8162 22.593
8.8314 22.552
8.8466 22.299
8.8617 22.595
8.8769 22.746
8.8921 22.773
8.9073 22.147
8.9224 22.316
8.9376 22.073
8.9528 22.549
8.9680 22.953
8.9831 23.067
8.9983 22.730
9.0135 23.004
9.0287 22.649
9.0438 22.916
9.0590 22.558
9.0742 22.637
9.0894 22.665
9.1045 22.838
9.1197 23.130
9.1349 23.401
9.1501 23.063
9.1652 23.313
9.1804 23.049
9.1956 22.749
9.2108 22.828
9.2259 23.010
9.2411 23.487
9.2563 23.441
9.2715 23.597
9.2866 23.403
9.3018 23.092
9.3170 22.955
9.3322 23.102
9.3473 23.202
9.3625 22.721
9.3777 22.983
9.3929 23.376
9.4080 23.570
9.4232 23.173
9.4384 23.045
9.4536 23.245
9.4687 23.149
9.4839 23.575
9.4991 23.504
9.5143 23.010
9.5294 22.974
9.5446 23.372
9.5598 23.111
9.5750 23.335
9.5901 23.575
9.6053 23.304
9.6205 23.657
9.6357 23.813
9.6508 23.511
9.6660 23.571
9.6812 23.931
9.6964 23.848
9.7115 24.056
9.7267 24.136
9.7419 24.127
9.7571 23.883
9.7722 23.738
9.7874 23.792
9.8026 23.573
9.8178 23.445
9.8329 23.404
9.8481 23.589
9.8633 23.856
9.8785 23.535
9.8936 23.107
9.9088 23.289
9.9240 23.706
9.9392 23.627
9.9543 23.300
9.9695 23.563
9.9847 23.451
9.9999 23.376
10.0150 23.586
10.0302 23.939
10.0454 23.903
10.0606 23.597
10.0757 23.637
10.0909 23.671
10.1061 23.560
10.1213 23.395
10.1364 23.236
10.1516 23.485
10.1668 23.677
10.1820 23.717
10.1971 23.716
10.2123 23.136
10.2275 23.270
10.2427 23.732
10.2578 23.931
10.2730 24.005
10.2882 23.639
10.3034 23.766
10.3185 23.453
10.3337 23.315
10.3489 23.347
10.3641 23.148
10.3792 22.908
10.3944 22.964
10.4096 22.683
10.4248 22.805
10.4399 22.928
10.4551 23.046
10.4703 22.958
10.4855 23.060
10.5006 22.674
10.5158 22.766
10.5310 22.861
10.5462 22.699
10.5613 22.747
10.5765 22.241
10.5917 22.503
10.6069 22.865
10.6220 22.576
10.6372 22.494
10.6524 22.889
10.6676 22.847
10.6827 22.960
10.6979 22.565
10.7131 22.499
10.7283 22.241
10.7434 22.375
10.7586 22.752
10.7738 22.598
10.7890 22.666
10.8041 22.345
10.8193 22.199
10.8345 22.489
10.8497 22.415
10.8648 22.042
10.8800 22.295
10.8952 22.146
10.9104 21.760
10.9255 21.798
10.9407 22.234
10.9559 22.182
10.9711 21.829
10.9862 22.202
11.0014 22.221
11.0166 22.025
11.0318 22.123
11.0469 22.109
11.0621 21.873
11.0773 22.059
11.0925 22.014
11.1076 21.779
11.1228 22.130
11.1380 22.088
11.1532 21.762
11.1683 21.661
11.1835 22.003
11.1987 22.128
11.2139 21.818
11.2290 21.742
11.2442 21.948
11.2594 22.212
11.2746 22.388
11.2897 22.111
11.3049 21.910
11.3201 22.022
11.3353 21.531
11.3504 21.892
11.3656 21.653
11.3808 21.504
11.3960 21.753
11.4111 21.583
11.4263 21.691
11.4415 21.300
11.4567 21.298
11.4718 21.041
11.4870 21.138
11.5022 21.335
11.5174 21.340
11.5325 21.227
11.5477 20.915
11.5629 20.975
11.5781 20.717
11.5932 20.636
11.6084 20.472
11.6236 20.672
11.6388 21.101
11.6539 20.808
11.6691 20.251
11.6843 20.766
11.6995 21.003
11.7146 20.824
11.7298 20.491
11.7450 20.566
11.7602 20.549
11.7753 20.324
11.7905 20.723
11.8057 20.234
11.8209 20.051
11.8360 19.926
11.8512 20.018
11.8664 19.861
11.8816 19.655
11.8967 19.841
11.9119 19.790
11.9271 19.632
11.9423 19.353
11.9574 19.506
11.9726 19.541
11.9878 19.524
12.0030 19.121
12.0181 19.147
12.0333 19.224
12.0485 19.216
12.0637 19.179
12.0788 18.973
12.0940 18.976
12.1092 18.816
12.1244 18.491
12.1395 18.206
12.1547 18.556
12.1699 18.502
12.1851 18.415
12.2002 18.479
12.2154 17.991
12.2306 17.930
12.2458 17.806
12.2609 17.726
12.2761 17.588
12.2913 17.976
12.3065 18.065
12.3216 17.907
12.3368 17.625
12.3520 17.505
12.3672 17.490
12.3823 17.233
12.3975 17.307
12.4127 17.290
12.4279 17.359
12.4430 17.324
12.4582 16.972
12.4734 16.909
12.4886 17.019
12.5037 17.091
12.5189 16.878
12.5341 16.606
12.5493 16.485
12.5644 16.185
12.5796 15.969
12.5948 16.119
12.6100 16.148
12.6251 16.031
12.6403 16.001
12.6555 16.113
12.6707 16.117
12.6858 16.027
12.7010 15.817
12.7162 15.671
12.7314 15.950
12.7465 16.032
12.7617 15.882
12.7769 15.570
12.7921 15.351
12.8072 15.607
12.8224 15.416
12.8376 14.982
12.8528 14.954
12.8679 14.977
12.8831 14.859
12.8983 14.545
12.9135 14.709
12.9286 14.924
12.9438 14.626
12.9590 14.688
12.9742 14.897
12.9893 14.830
13.0045 14.398
13.0197 14.235
13.0349 14.383
13.0500 14.303
13.0652 14.440
13.0804 14.337
13.0956 14.075
13.1107 14.227
13.1259 14.104
13.1411 13.640
13.1563 13.505
13.1714 13.656
13.1866 13.812
13.2018 13.688
13.2170 13.446
13.2321 13.414
13.2473 13.310
13.2625 13.169
13.2777 13.252
13.2928 13.246
13.3080 12.989
13.3232 13.018
13.3384 12.943
13.3535 12.977
13.3687 13.014
13.3839 12.867
13.3991 13.087
13.4142 12.849
13.4294 12.792
13.4446 12.858
13.4598 12.738
13.4749 12.642
13.4901 12.724
13.5053 12.803
13.5205 12.564
13.5356 12.392
13.5508 12.576
13.5660 12.556
13.5812 12.435
13.5963 12.516
13.6115 12.587
13.6267 12.416
13.6419 12.218
13.6570 12.484
13.6722 12.594
13.6874 12.092
13.7026 11.982
13.7177 12.204
13.7329 12.197
13.7481 12.155
13.7633 12.324
13.7784 12.306
13.7936 12.346
13.8088 12.410
13.8239 12.311
13.8391 12.231
13.8543 12.297
13.8695 12.139
13.8846 12.277
13.8998 12.242
13.9150 12.296
13.9302 12.402
13.9453 12.036
13.9605 11.957
13.9757 11.563
13.9909 11.716
14.0060 11.727
14.0212 11.577
14.0364 11.563
14.0516 11.547
14.0667 11.880
14.0819 11.892
14.0971 11.629
14.1123 11.394
14.1274 11.330
14.1426 11.567
14.1578 11.602
14.1730 11.498
14.1881 11.485
14.2033 11.750
14.2185 11.934
14.2337 11.941
14.2488 11.910
14.2640 11.781
14.2792 11.768
14.2944 12.039
14.3095 12.062
14.3247 12.333
14.3399 12.248
14.3551 12.366
14.3702 12.503
14.3854 12.800
14.4006 12.712
14.4158 12.755
14.4309 12.660
14.4461 12.531
14.4613 12.280
14.4765 12.104
14.4916 11.815
14.5068 11.936
14.5220 11.876
14.5372 11.593
14.5523 11.468
14.5675 11.512
14.5827 11.485
14.5979 11.451
14.6130 11.213
14.6282 11.063
14.6434 11.060
14.6586 11.151
14.6737 10.873
14.6889 10.845
14.7041 10.859
14.7193 10.851
14.7344 11.089
14.7496 10.980
14.7648 10.704
14.7800 10.680
14.7951 10.554
14.8103 10.977
14.8255 10.601
14.8407 10.519
14.8558 11.081
14.8710 10.739
14.8862 10.452
14.9014 10.863
14.9165 10.678
14.9317 10.911
14.9469 10.394
14.9621 10.896
14.9772 10.490
14.9924 10.503
15.0076 10.234
15.0228 10.512
15.0379 10.728
15.0531 10.870
15.0683 10.294
15.0835 10.560
15.0986 10.539
15.1138 10.559
15.1290 10.466
15.1442 10.415
15.1593 10.387
15.1745 10.422
15.1897 10.254
15.2049 10.229
15.2200 10.505
15.2352 10.612
15.2504 10.414
15.2656 10.187
15.2807 10.356
15.2959 9.980
15.3111 10.381
15.3263 10.502
15.3414 10.343
15.3566 10.495
15.3718 10.214
15.3870 10.449
15.4021 10.481
15.4173 10.267
15.4325 10.456
15.4477 10.446
15.4628 10.326
15.4780 10.617
15.4932 10.446
15.5084 10.138
15.5235 10.467
15.5387 10.707
15.5539 10.537
15.5691 10.509
15.5842 10.300
15.5994 10.237
15.6146 9.940
15.6298 9.891
15.6449 10.044
15.6601 9.874
15.6753 10.139
15.6905 9.945
15.7056 9.999
15.7208 9.963
15.7360 9.793
15.7512 9.845
15.7663 9.765
15.7815 9.975
15.7967 9.879
15.8119 9.785
15.8270 9.701
15.8422 9.792
15.8574 9.791
15.8726 9.852
15.8877 9.671
15.9029 9.813
15.9181 9.912
15.9333 9.878
15.9484 9.686
15.9636 9.683
15.9788 9.855
15.9940 9.797
16.0091 9.846
16.0243 9.785
16.0395 9.893
16.0547 9.507
16.0698 9.664
16.0850 9.816
16.1002 9.864
16.1154 9.576
16.1305 9.703
16.1457 9.933
16.1609 9.708
16.1761 9.535
16.1912 9.806
16.2064 9.983
16.2216 9.747
16.2368 10.034
16.2519 10.079
16.2671 9.875
16.2823 10.156
16.2975 10.096
16.3126 9.696
16.3278 9.811
16.3430 9.983
16.3582 9.849
16.3733 9.942
16.3885 10.166
16.4037 10.220
16.4189 9.992
16.4340 9.808
16.4492 9.866
16.4644 9.756
16.4796 9.760
16.4947 9.805
16.5099 9.817
16.5251 9.967
16.5403 9.680
16.5554 9.703
16.5706 9.639
16.5858 9.624
16.6010 9.558
16.6161 9.698
16.6313 9.994
16.6465 10.061
16.6617 9.947
16.6768 9.912
16.6920 10.011
16.7072 10.041
16.7224 10.109
16.7375 10.079
16.7527 9.915
16.7679 9.941
16.7831 9.982
16.7982 10.149
16.8134 9.805
16.8286 9.788
16.8438 9.932
16.8589 9.877
16.8741 9.960
16.8893 9.746
16.9045 9.730
16.9196 9.704
16.9348 9.828
16.9500 9.909
16.9652 9.867
16.9803 9.855
16.9955 9.949
17.0107 10.124
17.0259 10.164
17.0410 10.035
17.0562 10.030
17.0714 9.988
17.0866 10.178
17.1017 10.268
17.1169 10.526
17.1321 10.995
17.1473 11.267
17.1624 11.905
17.1776 12.448
17.1928 12.995
17.2080 14.039
17.2231 15.173
17.2383 16.260
17.2535 17.555
17.2687 18.698
17.2838 18.842
17.2990 17.968
17.3142 17.059
17.3294 16.359
17.3445 16.119
17.3597 16.117
17.3749 15.989
17.3901 15.325
17.4052 14.093
17.4204 13.049
17.4356 12.270
17.4508 12.032
17.4659 11.880
17.4811 11.801
17.4963 11.839
17.5115 11.535
17.5266 11.244
17.5418 11.281
17.5570 11.464
17.5722 11.515
17.5873 11.535
17.6025 11.486
17.6177 11.395
17.6329 11.150
17.6480 11.062
17.6632 11.116
17.6784 10.994
17.6936 10.954
17.7087 10.738
17.7239 10.554
17.7391 10.459
17.7543 10.538
17.7694 10.518
17.7846 10.319
17.7998 10.265
17.8150 10.268
17.8301 10.176
17.8453 10.077
17.8605 10.036
17.8757 10.322
17.8908 10.359
17.9060 10.199
17.9212 10.165
17.9364 10.285
17.9515 10.240
17.9667 10.252
17.9819 10.424
17.9971 10.322
18.0122 10.253
18.0274 10.118
18.0426 10.040
18.0578 9.987
18.0729 10.100
18.0881 9.945
18.1033 10.002
18.1185 10.179
18.1336 10.099
18.1488 10.124
18.1640 10.009
18.1792 10.084
18.1943 10.114
18.2095 9.954
18.2247 10.053
18.2399 9.881
18.2550 9.985
18.2702 10.001
18.2854 9.902
18.3006 9.885
18.3157 9.780
18.3309 9.987
18.3461 9.783
18.3613 9.715
18.3764 10.051
18.3916 10.181
18.4068 9.987
18.4220 9.633
18.4371 9.639
18.4523 9.830
18.4675 9.741
18.4827 9.769
18.4978 9.895
18.5130 9.888
18.5282 9.938
18.5434 9.727
18.5585 9.652
18.5737 9.582
18.5889 9.394
18.6041 9.559
18.6192 9.826
18.6344 9.842
18.6496 9.838
18.6648 9.843
18.6799 9.827
18.6951 9.659
18.7103 9.632
18.7255 9.701
18.7406 9.884
18.7558 9.904
18.7710 9.792
18.7862 9.772
18.8013 9.727
18.8165 9.702
18.8317 9.873
18.8469 9.977
18.8620 9.848
18.8772 9.779
18.8924 9.803
18.9076 9.873
18.9227 9.839
18.9379 9.747
18.9531 10.024
18.9683 10.102
18.9834 10.053
18.9986 9.852
19.0138 10.234
19.0290 10.403
19.0441 10.084
19.0593 9.947
19.0745 9.893
19.0897 10.008
19.1048 10.424
19.1200 10.235
19.1352 10.208
19.1504 10.362
19.1655 10.484
19.1807 10.565
19.1959 10.559
19.2111 10.422
19.2262 10.566
19.2414 10.675
19.2566 10.737
19.2718 10.767
19.2869 10.832
19.3021 10.905
19.3173 10.898
19.3325 10.840
19.3476 11.062
19.3628 11.345
19.3780 11.257
19.3932 11.073
19.4083 11.005
19.4235 11.255
19.4387 11.239
19.4539 11.233
19.4690 11.417
19.4842 11.490
19.4994 11.327
19.5146 11.270
19.5297 11.456
19.5449 11.424
19.5601 11.422
19.5753 11.522
19.5904 11.666
19.6056 11.483
19.6208 11.492
19.6360 11.602
19.6511 11.594
19.6663 11.731
19.6815 11.641
19.6967 11.518
19.7118 11.472
19.7270 11.641
19.7422 11.849
19.7574 11.752
19.7725 11.720
19.7877 11.783
19.8029 11.801
19.8180 11.636
19.8332 11.841
19.8484 12.022
19.8636 12.144
19.8787 12.724
19.8939 13.021
19.9091 13.117
19.9243 13.311
19.9394 13.595
19.9546 14.016
19.9698 14.221
19.9850 14.258
20.0001 14.278
20.0153 14.233
20.0305 14.066
20.0457 13.794
20.0608 13.572
20.0760 13.400
20.0912 13.456
20.1064 13.640
20.1215 13.445
20.1367 13.105
20.1519 13.006
20.1671 13.066
20.1822 13.029
20.1974 12.812
20.2126 12.820
20.2278 12.959
20.2429 12.605
20.2581 12.356
20.2733 12.236
20.2885 12.185
20.3036 12.047
20.3188 12.038
20.3340 11.754
20.3492 11.439
20.3643 11.663
20.3795 11.276
20.3947 11.246
20.4099 11.212
20.4250 10.888
20.4402 10.821
20.4554 10.835
20.4706 10.879
20.4857 10.758
20.5009 10.727
20.5161 10.843
20.5313 10.722
20.5464 10.646
20.5616 10.949
20.5768 10.469
20.5920 10.561
20.6071 10.977
20.6223 10.727
20.6375 10.696
20.6527 10.710
20.6678 10.768
20.6830 10.335
20.6982 10.838
20.7134 10.467
20.7285 10.333
20.7437 10.549
20.7589 10.382
20.7741 10.383
20.7892 10.584
20.8044 10.166
20.8196 10.244
20.8348 10.155
20.8499 9.984
20.8651 10.060
20.8803 10.011
20.8955 10.178
20.9106 10.162
20.9258 10.071
20.9410 9.820
20.9562 9.940
20.9713 10.010
20.9865 9.862
21.0017 9.918
21.0169 10.165
21.0320 10.071
21.0472 9.946
21.0624 10.094
21.0776 9.957
21.0927 9.923
21.1079 10.181
21.1231 9.967
21.1383 9.886
21.1534 9.877
21.1686 9.673
21.1838 9.715
21.1990 10.055
21.2141 9.638
21.2293 9.717
21.2445 9.933
21.2597 9.729
21.2748 9.264
21.2900 9.659
21.3052 9.550
21.3204 9.762
21.3355 9.482
21.3507 9.625
21.3659 9.718
21.3811 9.611
21.3962 9.490
21.4114 9.543
21.4266 9.446
21.4418 9.399
21.4569 9.507
21.4721 9.427
21.4873 9.494
21.5025 9.555
21.5176 9.387
21.5328 9.374
21.5480 9.331
21.5632 9.202
21.5783 8.850
21.5935 9.153
21.6087 9.159
21.6239 9.291
21.6390 9.315
21.6542 9.116
21.6694 9.254
21.6846 9.204
21.6997 8.931
21.7149 9.118
21.7301 8.945
21.7453 9.231
21.7604 9.407
21.7756 9.243
21.7908 8.955
21.8060 8.873
21.8211 8.918
21.8363 8.816
21.8515 8.989
21.8667 9.162
21.8818 9.110
21.8970 9.286
21.9122 9.253
21.9274 9.177
21.9425 9.199
21.9577 8.954
21.9729 8.830
21.9881 9.080
22.0032 8.986
22.0184 8.885
22.0336 8.866
22.0488 8.690
22.0639 8.579
22.0791 8.533
22.0943 8.540
22.1095 8.838
22.1246 8.923
22.1398 8.779
22.1550 8.870
22.1702 8.544
22.1853 8.524
22.2005 8.608
22.2157 8.498
22.2309 8.305
22.2460 8.499
22.2612 8.489
22.2764 8.554
22.2916 8.610
22.3067 8.575
22.3219 8.563
22.3371 8.550
22.3523 8.611
22.3674 8.687
22.3826 8.753
22.3978 8.521
22.4130 8.523
22.4281 8.654
22.4433 8.601
22.4585 8.636
22.4737 8.399
22.4888 8.224
22.5040 8.513
22.5192 8.666
22.5344 8.806
22.5495 8.640
22.5647 8.433
22.5799 8.522
22.5951 8.440
22.6102 8.877
22.6254 8.587
22.6406 8.293
22.6558 8.566
22.6709 8.411
22.6861 8.361
22.7013 8.444
22.7165 8.176
22.7316 6.538
