'Id: "" Comment: "" Operator: "Lab Manager" Anode: "Mo" Scantype: "Still (Eiger2R_500K (1D mode))" TimePerStep: "300" X: "11.8" Y: "9.4" Z: "11.284" 
7.2532 18.697
7.2684 18.949
7.2836 18.879
7.2987 19.063
7.3139 18.878
7.3291 19.145
7.3443 19.303
7.3594 19.136
7.3746 18.916
7.3898 18.997
7.4050 18.983
7.4201 19.787
7.4353 19.257
7.4505 19.631
7.4657 19.490
7.4808 19.504
7.4960 19.235
7.5112 19.583
7.5264 19.700
7.5415 19.642
7.5567 20.067
7.5719 19.959
7.5871 19.679
7.6022 19.808
7.6174 19.842
7.6326 19.840
7.6478 20.334
7.6629 20.115
7.6781 19.860
7.6933 20.058
7.7085 20.147
7.7236 20.468
7.7388 20.381
7.7540 20.300
7.7692 20.145
7.7843 20.089
7.7995 20.294
7.8147 20.202
7.8299 20.276
7.8450 20.402
7.8602 20.529
7.8754 20.698
7.8905 20.561
7.9057 20.580
7.9209 20.764
7.9361 20.637
7.9512 20.927
7.9664 21.349
7.9816 21.188
7.9968 21.360
8.0119 21.102
8.0271 20.836
8.0423 20.957
8.0575 20.935
8.0726 21.339
8.0878 21.561
8.1030 21.336
8.1182 21.329
8.1333 21.497
8.1485 21.207
8.1637 21.231
8.1789 21.313
8.1940 21.394
8.2092 21.204
8.2244 20.998
8.2396 21.295
8.2547 21.451
8.2699 21.308
8.2851 21.417
8.3003 21.500
8.3154 21.713
8.3306 21.577
8.3458 21.970
8.3610 21.590
8.3761 21.510
8.3913 21.596
8.4065 21.766
8.4217 21.629
8.4368 21.782
8.4520 21.943
8.4672 21.999
8.4824 22.473
8.4975 21.717
8.5127 21.547
8.5279 21.842
8.5431 21.883
8.5582 22.063
8.5734 21.785
8.5886 22.320
8.6038 21.937
8.6189 21.998
8.6341 22.483
8.6493 21.933
8.6645 21.811
8.6796 22.124
8.6948 22.055
8.7100 22.546
8.7252 22.451
8.7403 22.362
8.7555 22.259
8.7707 22.373
8.7859 22.346
8.8010 22.730
8.8162 22.195
8.8314 22.330
8.8466 22.084
8.8617 22.738
8.8769 22.324
8.8921 22.182
8.9073 22.647
8.9224 22.523
8.9376 22.473
8.9528 22.312
8.9680 22.254
8.9831 22.477
8.9983 22.605
9.0135 22.613
9.0287 23.236
9.0438 23.080
9.0590 22.664
9.0742 22.932
9.0894 22.762
9.1045 22.697
9.1197 22.280
9.1349 22.842
9.1501 22.744
9.1652 22.751
9.1804 22.844
9.1956 22.707
9.2108 22.975
9.2259 23.140
9.2411 23.187
9.2563 23.012
9.2715 23.401
9.2866 22.927
9.3018 22.895
9.3170 23.159
9.3322 22.771
9.3473 22.951
9.3625 22.938
9.3777 22.891
9.3929 22.873
9.4080 22.810
9.4232 22.951
9.4384 23.098
9.4536 22.875
9.4687 23.167
9.4839 23.087
9.4991 23.172
9.5143 23.091
9.5294 22.937
9.5446 23.220
9.5598 23.222
9.5750 22.932
9.5901 23.033
9.6053 23.129
9.6205 22.885
9.6357 23.129
9.6508 23.350
9.6660 23.318
9.6812 23.407
9.6964 23.576
9.7115 23.793
9.7267 23.923
9.7419 23.902
9.7571 24.016
9.7722 23.746
9.7874 23.362
9.8026 23.609
9.8178 23.417
9.8329 23.172
9.8481 23.467
9.8633 23.271
9.8785 23.030
9.8936 23.215
9.9088 23.236
9.9240 23.288
9.9392 23.333
9.9543 23.379
9.9695 23.382
9.9847 23.136
9.9999 23.221
10.0150 23.043
10.0302 22.967
10.0454 23.345
10.0606 23.198
10.0757 23.083
10.0909 23.312
10.1061 23.409
10.1213 23.495
10.1364 23.605
10.1516 23.392
10.1668 23.306
10.1820 23.603
10.1971 23.500
10.2123 23.111
10.2275 23.110
10.2427 23.081
10.2578 23.087
10.2730 22.815
10.2882 22.667
10.3034 22.720
10.3185 22.719
10.3337 23.029
10.3489 23.057
10.3641 22.951
10.3792 22.555
10.3944 22.428
10.4096 22.435
10.4248 22.694
10.4399 22.735
10.4551 22.394
10.4703 22.589
10.4855 22.776
10.5006 22.805
10.5158 22.918
10.5310 22.745
10.5462 22.471
10.5613 22.640
10.5765 22.622
10.5917 22.557
10.6069 22.903
10.6220 22.367
10.6372 22.423
10.6524 22.442
10.6676 22.439
10.6827 22.590
10.6979 22.381
10.7131 22.458
10.7283 22.675
10.7434 22.620
10.7586 22.566
10.7738 22.460
10.7890 22.602
10.8041 22.520
10.8193 22.114
10.8345 21.918
10.8497 22.379
10.8648 22.549
10.8800 22.471
10.8952 22.329
10.9104 22.225
10.9255 22.402
10.9407 22.310
10.9559 22.051
10.9711 21.783
10.9862 21.770
11.0014 22.122
11.0166 22.215
11.0318 22.377
11.0469 21.918
11.0621 21.832
11.0773 21.539
11.0925 21.757
11.1076 21.725
11.1228 21.497
11.1380 21.900
11.1532 21.737
11.1683 21.748
11.1835 21.742
11.1987 21.516
11.2139 21.464
11.2290 21.406
11.2442 21.434
11.2594 21.320
11.2746 21.562
11.2897 21.492
11.3049 21.250
11.3201 21.183
11.3353 21.429
11.3504 21.428
11.3656 21.056
11.3808 21.072
11.3960 21.352
11.4111 21.446
11.4263 21.119
11.4415 21.241
11.4567 21.122
11.4718 21.280
11.4870 21.221
11.5022 21.251
11.5174 21.232
11.5325 20.936
11.5477 20.713
11.5629 20.502
11.5781 20.969
11.5932 20.581
11.6084 20.514
11.6236 20.752
11.6388 20.417
11.6539 20.710
11.6691 20.578
11.6843 20.491
11.6995 20.075
11.7146 20.298
11.7298 20.529
11.7450 20.475
11.7602 20.364
11.7753 19.862
11.7905 19.810
11.8057 19.891
11.8209 19.987
11.8360 20.083
11.8512 20.175
11.8664 19.711
11.8816 19.754
11.8967 19.553
11.9119 19.508
11.9271 19.430
11.9423 19.335
11.9574 19.163
11.9726 19.209
11.9878 19.307
12.0030 19.424
12.0181 19.184
12.0333 18.936
12.0485 19.134
12.0637 19.234
12.0788 18.968
12.0940 18.704
12.1092 18.389
12.1244 18.439
12.1395 18.906
12.1547 18.534
12.1699 18.089
12.1851 18.244
12.2002 18.273
12.2154 17.877
12.2306 17.914
12.2458 17.965
12.2609 17.615
12.2761 17.531
12.2913 17.605
12.3065 17.567
12.3216 17.613
12.3368 17.279
12.3520 17.211
12.3672 17.147
12.3823 17.219
12.3975 17.285
12.4127 17.112
12.4279 16.800
12.4430 16.648
12.4582 16.936
12.4734 16.949
12.4886 16.675
12.5037 16.428
12.5189 16.619
12.5341 16.252
12.5493 16.156
12.5644 16.302
12.5796 16.377
12.5948 16.254
12.6100 16.084
12.6251 15.903
12.6403 15.947
12.6555 16.006
12.6707 15.585
12.6858 15.598
12.7010 15.684
12.7162 15.663
12.7314 15.621
12.7465 15.563
12.7617 15.351
12.7769 15.028
12.7921 15.103
12.8072 15.223
12.8224 15.126
12.8376 15.078
12.8528 15.167
12.8679 14.764
12.8831 14.687
12.8983 14.986
12.9135 14.661
12.9286 14.498
12.9438 14.290
12.9590 14.213
12.9742 14.265
12.9893 14.261
13.0045 14.260
13.0197 13.991
13.0349 13.987
13.0500 14.182
13.0652 13.983
13.0804 13.942
13.0956 13.964
13.1107 13.972
13.1259 13.994
13.1411 13.924
13.1563 13.710
13.1714 13.478
13.1866 13.392
13.2018 13.354
13.2170 13.093
13.2321 12.982
13.2473 13.204
13.2625 13.071
13.2777 13.188
13.2928 13.323
13.3080 13.284
13.3232 13.299
13.3384 13.034
13.3535 12.883
13.3687 13.036
13.3839 13.037
13.3991 12.988
13.4142 13.148
13.4294 13.354
13.4446 12.959
13.4598 12.783
13.4749 12.827
13.4901 12.585
13.5053 12.532
13.5205 12.503
13.5356 12.529
13.5508 12.616
13.5660 12.463
13.5812 12.251
13.5963 12.171
13.6115 12.376
13.6267 12.429
13.6419 12.006
13.6570 12.056
13.6722 11.997
13.6874 11.967
13.7026 11.966
13.7177 12.295
13.7329 12.265
13.7481 11.949
13.7633 12.179
13.7784 12.285
13.7936 12.003
13.8088 12.194
13.8239 12.174
13.8391 12.017
13.8543 12.242
13.8695 12.165
13.8846 12.291
13.8998 12.126
13.9150 12.228
13.9302 12.065
13.9453 11.983
13.9605 11.886
13.9757 11.970
13.9909 11.793
14.0060 11.721
14.0212 11.696
14.0364 11.556
14.0516 11.411
14.0667 11.376
14.0819 11.399
14.0971 11.508
14.1123 11.647
14.1274 11.607
14.1426 11.679
14.1578 11.439
14.1730 11.621
14.1881 11.119
14.2033 11.415
14.2185 11.738
14.2337 11.744
14.2488 11.774
14.2640 11.641
14.2792 11.773
14.2944 11.941
14.3095 11.929
14.3247 12.160
14.3399 12.172
14.3551 12.309
14.3702 12.858
14.3854 13.445
14.4006 13.301
14.4158 13.659
14.4309 13.573
14.4461 13.429
14.4613 12.904
14.4765 12.584
14.4916 12.502
14.5068 12.600
14.5220 12.419
14.5372 11.933
14.5523 11.417
14.5675 11.150
14.5827 11.207
14.5979 11.139
14.6130 11.072
14.6282 10.831
14.6434 10.798
14.6586 10.833
14.6737 11.050
14.6889 10.478
14.7041 10.800
14.7193 10.885
14.7344 10.470
14.7496 10.514
14.7648 10.773
14.7800 10.759
14.7951 10.643
14.8103 10.632
14.8255 10.274
14.8407 10.907
14.8558 10.320
14.8710 10.820
14.8862 10.303
14.9014 10.893
14.9165 10.745
14.9317 10.784
14.9469 10.615
14.9621 10.545
14.9772 10.569
14.9924 10.771
15.0076 10.037
15.0228 10.413
15.0379 10.218
15.0531 10.399
15.0683 10.626
15.0835 10.366
15.0986 10.135
15.1138 10.300
15.1290 10.275
15.1442 9.951
15.1593 10.140
15.1745 10.187
15.1897 10.282
15.2049 10.345
15.2200 9.959
15.2352 10.320
15.2504 10.048
15.2656 9.869
15.2807 10.173
15.2959 10.186
15.3111 10.435
15.3263 10.016
15.3414 10.169
15.3566 10.371
15.3718 10.192
15.3870 10.272
15.4021 10.211
15.4173 9.980
15.4325 10.212
15.4477 10.297
15.4628 10.414
15.4780 10.353
15.4932 10.272
15.5084 10.104
15.5235 10.068
15.5387 9.996
15.5539 10.318
15.5691 9.898
15.5842 9.745
15.5994 9.932
15.6146 9.595
15.6298 9.747
15.6449 9.945
15.6601 9.672
15.6753 9.563
15.6905 9.523
15.7056 9.709
15.7208 9.757
15.7360 9.922
15.7512 9.842
15.7663 9.661
15.7815 9.906
15.7967 9.432
15.8119 9.564
15.8270 9.608
15.8422 9.671
15.8574 9.511
15.8726 9.492
15.8877 9.706
15.9029 9.539
15.9181 9.527
15.9333 9.534
15.9484 9.630
15.9636 9.643
15.9788 9.677
15.9940 9.563
16.0091 9.540
16.0243 9.864
16.0395 9.731
16.0547 9.681
16.0698 9.509
16.0850 9.758
16.1002 9.496
16.1154 9.542
16.1305 9.536
16.1457 9.510
16.1609 9.671
16.1761 9.839
16.1912 9.668
16.2064 9.756
16.2216 9.840
16.2368 9.821
16.2519 9.844
16.2671 9.688
16.2823 9.544
16.2975 9.659
16.3126 9.873
16.3278 9.993
16.3430 10.127
16.3582 10.011
16.3733 9.868
16.3885 9.810
16.4037 9.588
16.4189 9.912
16.4340 9.872
16.4492 9.685
16.4644 9.621
16.4796 9.756
16.4947 9.688
16.5099 9.522
16.5251 9.577
16.5403 9.801
16.5554 9.776
16.5706 9.646
16.5858 9.501
16.6010 9.604
16.6161 9.771
16.6313 9.875
16.6465 9.770
16.6617 9.621
16.6768 9.726
16.6920 9.632
16.7072 9.798
16.7224 10.007
16.7375 9.939
16.7527 9.741
16.7679 9.667
16.7831 9.611
16.7982 9.854
16.8134 9.743
16.8286 9.942
16.8438 10.009
16.8589 9.686
16.8741 9.699
16.8893 9.868
16.9045 9.761
16.9196 9.705
16.9348 9.672
16.9500 9.575
16.9652 9.392
16.9803 9.542
16.9955 9.542
17.0107 9.583
17.0259 9.919
17.0410 9.995
17.0562 9.973
17.0714 10.212
17.0866 10.209
17.1017 10.336
17.1169 10.590
17.1321 10.816
17.1473 11.256
17.1624 11.657
17.1776 12.183
17.1928 12.918
17.2080 13.849
17.2231 14.985
17.2383 16.160
17.2535 17.337
17.2687 18.352
17.2838 18.742
17.2990 18.110
17.3142 16.705
17.3294 15.806
17.3445 15.770
17.3597 15.791
17.3749 15.370
17.3901 14.982
17.4052 14.358
17.4204 13.289
17.4356 12.569
17.4508 11.853
17.4659 11.371
17.4811 11.451
17.4963 11.550
17.5115 11.293
17.5266 10.800
17.5418 10.833
17.5570 10.969
17.5722 11.016
17.5873 10.958
17.6025 10.689
17.6177 10.924
17.6329 11.026
17.6480 11.123
17.6632 11.599
17.6784 11.898
17.6936 11.943
17.7087 12.152
17.7239 12.113
17.7391 11.750
17.7543 11.421
17.7694 11.344
17.7846 11.417
17.7998 11.556
17.8150 11.398
17.8301 10.963
17.8453 10.840
17.8605 10.574
17.8757 10.453
17.8908 10.515
17.9060 10.514
17.9212 10.218
17.9364 9.910
17.9515 9.993
17.9667 10.286
17.9819 10.414
17.9971 10.502
18.0122 10.289
18.0274 10.437
18.0426 10.368
18.0578 10.120
18.0729 9.987
18.0881 9.868
18.1033 9.904
18.1185 10.048
18.1336 10.048
18.1488 9.781
18.1640 9.892
18.1792 10.014
18.1943 9.820
18.2095 9.685
18.2247 9.696
18.2399 9.945
18.2550 9.818
18.2702 9.685
18.2854 9.684
18.3006 9.782
18.3157 9.984
18.3309 9.891
18.3461 9.788
18.3613 9.899
18.3764 9.781
18.3916 9.671
18.4068 9.857
18.4220 9.877
18.4371 9.565
18.4523 9.574
18.4675 9.637
18.4827 9.754
18.4978 9.966
18.5130 9.835
18.5282 9.586
18.5434 9.714
18.5585 9.784
18.5737 9.711
18.5889 9.749
18.6041 9.702
18.6192 9.752
18.6344 9.915
18.6496 9.912
18.6648 9.608
18.6799 9.623
18.6951 9.699
18.7103 9.608
18.7255 9.627
18.7406 9.633
18.7558 9.543
18.7710 9.690
18.7862 9.840
18.8013 9.798
18.8165 9.856
18.8317 10.031
18.8469 9.828
18.8620 9.828
18.8772 10.108
18.8924 10.020
18.9076 9.974
18.9227 10.175
18.9379 10.237
18.9531 9.965
18.9683 9.808
18.9834 9.979
18.9986 10.119
19.0138 10.483
19.0290 10.263
19.0441 10.173
19.0593 10.425
19.0745 10.367
19.0897 10.093
19.1048 10.228
19.1200 10.604
19.1352 10.356
19.1504 10.306
19.1655 10.467
19.1807 10.323
19.1959 10.567
19.2111 10.790
19.2262 10.795
19.2414 10.798
19.2566 10.915
19.2718 10.962
19.2869 10.743
19.3021 10.810
19.3173 11.089
19.3325 11.033
19.3476 11.032
19.3628 11.062
19.3780 11.068
19.3932 11.039
19.4083 11.068
19.4235 11.124
19.4387 11.074
19.4539 11.233
19.4690 11.425
19.4842 11.211
19.4994 11.347
19.5146 11.391
19.5297 11.257
19.5449 11.494
19.5601 11.418
19.5753 11.341
19.5904 11.593
19.6056 11.732
19.6208 11.518
19.6360 11.400
19.6511 11.458
19.6663 11.410
19.6815 11.369
19.6967 11.581
19.7118 11.725
19.7270 11.509
19.7422 11.619
19.7574 11.713
19.7725 11.678
19.7877 11.916
19.8029 12.152
19.8180 12.133
19.8332 12.109
19.8484 12.168
19.8636 12.269
19.8787 12.607
19.8939 12.961
19.9091 12.925
19.9243 13.201
19.9394 13.854
19.9546 14.005
19.9698 14.107
19.9850 14.374
20.0001 14.430
20.0153 14.255
20.0305 14.107
20.0457 13.882
20.0608 13.762
20.0760 13.646
20.0912 13.717
20.1064 13.726
20.1215 13.808
20.1367 13.546
20.1519 12.899
20.1671 12.886
20.1822 12.882
20.1974 12.547
20.2126 12.283
20.2278 12.474
20.2429 12.847
20.2581 12.521
20.2733 12.082
20.2885 11.761
20.3036 11.809
20.3188 12.036
20.3340 11.917
20.3492 11.920
20.3643 11.805
20.3795 11.810
20.3947 11.956
20.4099 12.001
20.4250 11.888
20.4402 11.887
20.4554 12.031
20.4706 12.313
20.4857 12.121
20.5009 11.876
20.5161 11.936
20.5313 11.859
20.5464 11.584
20.5616 11.560
20.5768 11.673
20.5920 11.331
20.6071 11.325
20.6223 11.068
20.6375 11.118
20.6527 10.878
20.6678 10.928
20.6830 10.942
20.6982 11.076
20.7134 10.595
20.7285 10.458
20.7437 10.606
20.7589 10.281
20.7741 10.295
20.7892 10.539
20.8044 10.641
20.8196 10.064
20.8348 10.276
20.8499 10.304
20.8651 10.553
20.8803 10.500
20.8955 10.590
20.9106 10.422
20.9258 10.220
20.9410 9.962
20.9562 10.062
20.9713 10.177
20.9865 10.144
21.0017 9.821
21.0169 10.168
21.0320 10.088
21.0472 9.875
21.0624 9.932
21.0776 10.117
21.0927 9.859
21.1079 9.642
21.1231 9.770
21.1383 9.726
21.1534 9.815
21.1686 9.713
21.1838 9.545
21.1990 9.791
21.2141 9.675
21.2293 9.761
21.2445 9.631
21.2597 9.398
21.2748 9.615
21.2900 9.586
21.3052 9.399
21.3204 9.619
21.3355 9.601
21.3507 9.393
21.3659 9.453
21.3811 9.402
21.3962 9.364
21.4114 9.429
21.4266 9.265
21.4418 9.389
21.4569 9.276
21.4721 9.478
21.4873 9.486
21.5025 9.448
21.5176 9.244
21.5328 9.271
21.5480 9.329
21.5632 9.411
21.5783 9.023
21.5935 9.110
21.6087 9.294
21.6239 9.249
21.6390 9.143
21.6542 9.293
21.6694 9.072
21.6846 9.145
21.6997 9.146
21.7149 9.336
21.7301 9.155
21.7453 9.044
21.7604 8.952
21.7756 8.992
21.7908 8.920
21.8060 9.122
21.8211 8.976
21.8363 8.868
21.8515 8.972
21.8667 9.035
21.8818 8.873
21.8970 9.112
21.9122 8.995
21.9274 9.009
21.9425 9.024
21.9577 8.894
21.9729 8.739
21.9881 8.629
22.0032 8.919
22.0184 8.873
22.0336 8.675
22.0488 8.761
22.0639 8.691
22.0791 8.638
22.0943 8.641
22.1095 8.801
22.1246 8.770
22.1398 8.566
22.1550 8.470
22.1702 8.598
22.1853 8.678
22.2005 8.566
22.2157 8.564
22.2309 8.602
22.2460 8.774
22.2612 8.542
22.2764 8.406
22.2916 8.211
22.3067 8.281
22.3219 8.635
22.3371 8.451
22.3523 8.285
22.3674 8.580
22.3826 8.157
22.3978 8.384
22.4130 8.365
22.4281 8.406
22.4433 8.374
22.4585 8.427
22.4737 8.226
22.4888 8.494
22.5040 8.473
22.5192 8.409
22.5344 8.520
22.5495 8.467
22.5647 8.424
22.5799 8.237
22.5951 8.407
22.6102 8.468
22.6254 8.353
22.6406 8.456
22.6558 8.281
22.6709 8.505
22.6861 8.372
22.7013 8.090
22.7165 7.962
22.7316 6.374
