'Id: "" Comment: "" Operator: "Lab Manager" Anode: "Mo" Scantype: "Still (Eiger2R_500K (1D mode))" TimePerStep: "300" X: "11.8" Y: "9.4" Z: "11.284" 
7.2532 18.734
7.2684 18.391
7.2836 18.844
7.2987 18.532
7.3139 18.794
7.3291 19.052
7.3443 18.880
7.3594 19.002
7.3746 19.074
7.3898 19.074
7.4050 19.562
7.4201 19.533
7.4353 19.163
7.4505 19.480
7.4657 19.633
7.4808 19.311
7.4960 19.424
7.5112 19.633
7.5264 19.561
7.5415 19.796
7.5567 19.661
7.5719 19.867
7.5871 19.813
7.6022 19.823
7.6174 19.880
7.6326 19.750
7.6478 20.236
7.6629 20.487
7.6781 20.002
7.6933 19.873
7.7085 19.796
7.7236 20.115
7.7388 20.346
7.7540 20.074
7.7692 20.264
7.7843 20.428
7.7995 20.413
7.8147 20.300
7.8299 20.194
7.8450 20.351
7.8602 20.707
7.8754 20.821
7.8905 20.412
7.9057 20.280
7.9209 20.670
7.9361 20.655
7.9512 20.579
7.9664 20.864
7.9816 20.633
7.9968 20.721
8.0119 20.758
8.0271 20.852
8.0423 21.123
8.0575 20.663
8.0726 20.707
8.0878 21.254
8.1030 20.946
8.1182 21.273
8.1333 21.436
8.1485 21.428
8.1637 21.032
8.1789 21.506
8.1940 21.491
8.2092 21.575
8.2244 21.291
8.2396 21.308
8.2547 21.442
8.2699 21.235
8.2851 21.345
8.3003 21.671
8.3154 21.779
8.3306 22.013
8.3458 21.640
8.3610 21.479
8.3761 21.510
8.3913 21.761
8.4065 21.718
8.4217 22.080
8.4368 21.828
8.4520 22.061
8.4672 21.508
8.4824 21.512
8.4975 21.982
8.5127 21.571
8.5279 21.987
8.5431 22.055
8.5582 21.745
8.5734 22.117
8.5886 21.736
8.6038 21.911
8.6189 22.270
8.6341 22.470
8.6493 22.562
8.6645 21.707
8.6796 22.173
8.6948 22.052
8.7100 21.926
8.7252 21.992
8.7403 22.231
8.7555 22.277
8.7707 22.349
8.7859 22.164
8.8010 22.348
8.8162 22.239
8.8314 22.128
8.8466 22.356
8.8617 22.379
8.8769 22.546
8.8921 21.801
8.9073 22.334
8.9224 22.001
8.9376 22.629
8.9528 21.893
8.9680 22.138
8.9831 22.124
8.9983 22.542
9.0135 22.265
9.0287 22.555
9.0438 22.943
9.0590 22.735
9.0742 22.495
9.0894 22.432
9.1045 21.975
9.1197 22.403
9.1349 22.853
9.1501 22.595
9.1652 22.665
9.1804 22.580
9.1956 22.904
9.2108 23.011
9.2259 22.690
9.2411 22.727
9.2563 22.820
9.2715 22.901
9.2866 23.003
9.3018 22.733
9.3170 22.855
9.3322 22.801
9.3473 23.004
9.3625 23.207
9.3777 23.229
9.3929 22.756
9.4080 22.714
9.4232 22.776
9.4384 22.766
9.4536 22.758
9.4687 22.806
9.4839 22.790
9.4991 22.810
9.5143 22.804
9.5294 22.991
9.5446 22.975
9.5598 23.131
9.5750 23.224
9.5901 23.392
9.6053 23.417
9.6205 23.354
9.6357 23.443
9.6508 23.288
9.6660 23.282
9.6812 23.147
9.6964 23.470
9.7115 23.507
9.7267 23.345
9.7419 23.687
9.7571 23.973
9.7722 23.923
9.7874 23.462
9.8026 23.387
9.8178 23.753
9.8329 23.578
9.8481 23.140
9.8633 23.315
9.8785 23.248
9.8936 23.186
9.9088 23.235
9.9240 22.890
9.9392 23.123
9.9543 23.200
9.9695 23.244
9.9847 23.103
9.9999 22.646
10.0150 22.829
10.0302 23.152
10.0454 22.835
10.0606 22.622
10.0757 22.621
10.0909 22.571
10.1061 23.171
10.1213 23.480
10.1364 23.376
10.1516 23.576
10.1668 23.537
10.1820 23.441
10.1971 23.085
10.2123 22.914
10.2275 23.137
10.2427 23.028
10.2578 22.745
10.2730 22.587
10.2882 22.454
10.3034 22.725
10.3185 22.848
10.3337 22.680
10.3489 22.521
10.3641 22.347
10.3792 22.695
10.3944 22.843
10.4096 22.584
10.4248 22.489
10.4399 22.324
10.4551 22.122
10.4703 22.476
10.4855 22.718
10.5006 22.375
10.5158 22.604
10.5310 22.179
10.5462 22.541
10.5613 22.368
10.5765 22.385
10.5917 22.619
10.6069 22.371
10.6220 22.260
10.6372 22.141
10.6524 22.055
10.6676 22.523
10.6827 22.417
10.6979 22.221
10.7131 22.287
10.7283 22.163
10.7434 22.264
10.7586 22.375
10.7738 22.288
10.7890 22.161
10.8041 22.252
10.8193 22.386
10.8345 22.097
10.8497 22.021
10.8648 22.194
10.8800 21.788
10.8952 21.864
10.9104 22.000
10.9255 22.343
10.9407 22.493
10.9559 22.226
10.9711 21.978
10.9862 22.088
11.0014 22.384
11.0166 22.023
11.0318 22.135
11.0469 21.712
11.0621 21.291
11.0773 21.528
11.0925 21.875
11.1076 21.979
11.1228 21.960
11.1380 21.908
11.1532 21.642
11.1683 21.653
11.1835 21.660
11.1987 21.452
11.2139 21.425
11.2290 21.355
11.2442 21.402
11.2594 21.660
11.2746 21.495
11.2897 21.608
11.3049 21.616
11.3201 21.779
11.3353 21.338
11.3504 21.544
11.3656 21.527
11.3808 21.528
11.3960 21.406
11.4111 21.096
11.4263 21.045
11.4415 21.066
11.4567 21.159
11.4718 21.473
11.4870 21.305
11.5022 20.952
11.5174 21.081
11.5325 21.050
11.5477 20.964
11.5629 20.919
11.5781 20.828
11.5932 20.778
11.6084 20.772
11.6236 20.756
11.6388 20.510
11.6539 20.421
11.6691 20.362
11.6843 20.214
11.6995 20.135
11.7146 20.444
11.7298 20.405
11.7450 20.541
11.7602 20.150
11.7753 20.449
11.7905 20.421
11.8057 20.184
11.8209 19.697
11.8360 19.569
11.8512 19.506
11.8664 19.839
11.8816 19.514
11.8967 19.562
11.9119 19.592
11.9271 19.604
11.9423 19.673
11.9574 19.289
11.9726 19.042
11.9878 19.028
12.0030 19.175
12.0181 19.066
12.0333 18.844
12.0485 18.935
12.0637 18.744
12.0788 18.610
12.0940 18.674
12.1092 18.293
12.1244 18.508
12.1395 18.575
12.1547 18.310
12.1699 18.059
12.1851 18.051
12.2002 18.269
12.2154 17.985
12.2306 17.923
12.2458 17.922
12.2609 17.816
12.2761 17.678
12.2913 17.515
12.3065 17.558
12.3216 17.586
12.3368 17.229
12.3520 17.239
12.3672 17.160
12.3823 16.864
12.3975 16.975
12.4127 17.121
12.4279 17.042
12.4430 17.091
12.4582 16.978
12.4734 16.863
12.4886 16.644
12.5037 16.508
12.5189 16.607
12.5341 16.478
12.5493 16.460
12.5644 16.000
12.5796 15.893
12.5948 16.266
12.6100 16.157
12.6251 15.928
12.6403 15.888
12.6555 15.716
12.6707 15.600
12.6858 15.642
12.7010 15.612
12.7162 15.596
12.7314 15.357
12.7465 15.363
12.7617 15.378
12.7769 15.113
12.7921 15.115
12.8072 15.316
12.8224 15.281
12.8376 14.873
12.8528 14.748
12.8679 14.776
12.8831 14.839
12.8983 14.863
12.9135 14.635
12.9286 14.305
12.9438 14.271
12.9590 14.289
12.9742 14.218
12.9893 13.959
13.0045 13.915
13.0197 14.138
13.0349 14.242
13.0500 14.075
13.0652 13.872
13.0804 13.853
13.0956 13.806
13.1107 13.732
13.1259 13.484
13.1411 13.371
13.1563 13.416
13.1714 13.639
13.1866 13.636
13.2018 13.391
13.2170 13.425
13.2321 13.465
13.2473 13.296
13.2625 13.016
13.2777 13.168
13.2928 13.460
13.3080 13.484
13.3232 13.275
13.3384 12.986
13.3535 12.990
13.3687 13.128
13.3839 13.025
13.3991 12.891
13.4142 12.843
13.4294 12.827
13.4446 12.670
13.4598 12.592
13.4749 12.674
13.4901 12.693
13.5053 12.639
13.5205 12.473
13.5356 12.220
13.5508 12.189
13.5660 12.363
13.5812 12.362
13.5963 12.349
13.6115 12.468
13.6267 12.392
13.6419 12.065
13.6570 12.049
13.6722 12.146
13.6874 11.989
13.7026 11.964
13.7177 12.017
13.7329 12.026
13.7481 12.185
13.7633 12.269
13.7784 12.217
13.7936 12.184
13.8088 11.932
13.8239 12.298
13.8391 12.399
13.8543 12.422
13.8695 12.400
13.8846 12.132
13.8998 12.185
13.9150 12.293
13.9302 12.363
13.9453 12.369
13.9605 12.088
13.9757 11.395
13.9909 11.218
14.0060 11.677
14.0212 11.587
14.0364 11.439
14.0516 11.351
14.0667 11.546
14.0819 11.520
14.0971 11.512
14.1123 11.548
14.1274 11.693
14.1426 11.670
14.1578 12.011
14.1730 11.675
14.1881 11.686
14.2033 11.701
14.2185 11.602
14.2337 11.690
14.2488 11.522
14.2640 11.463
14.2792 12.236
14.2944 11.971
14.3095 12.111
14.3247 12.148
14.3399 12.116
14.3551 12.414
14.3702 12.883
14.3854 12.986
14.4006 13.203
14.4158 13.028
14.4309 12.637
14.4461 12.565
14.4613 12.475
14.4765 12.289
14.4916 12.222
14.5068 11.715
14.5220 11.254
14.5372 11.582
14.5523 11.157
14.5675 11.066
14.5827 10.937
14.5979 10.607
14.6130 10.778
14.6282 10.821
14.6434 10.556
14.6586 10.921
14.6737 10.591
14.6889 10.555
14.7041 10.577
14.7193 10.557
14.7344 10.478
14.7496 10.592
14.7648 10.293
14.7800 10.325
14.7951 10.812
14.8103 10.782
14.8255 10.682
14.8407 10.290
14.8558 10.434
14.8710 10.439
14.8862 10.716
14.9014 10.256
14.9165 10.889
14.9317 10.876
14.9469 10.791
14.9621 10.149
14.9772 10.402
14.9924 10.097
15.0076 10.503
15.0228 9.921
15.0379 10.400
15.0531 10.266
15.0683 10.124
15.0835 10.303
15.0986 10.111
15.1138 10.172
15.1290 9.987
15.1442 10.184
15.1593 10.235
15.1745 9.996
15.1897 9.936
15.2049 10.000
15.2200 9.992
15.2352 10.120
15.2504 10.255
15.2656 10.100
15.2807 9.947
15.2959 10.046
15.3111 9.803
15.3263 9.717
15.3414 9.980
15.3566 9.734
15.3718 9.924
15.3870 9.879
15.4021 9.922
15.4173 10.028
15.4325 10.373
15.4477 10.305
15.4628 9.983
15.4780 10.254
15.4932 10.450
15.5084 10.115
15.5235 10.103
15.5387 10.152
15.5539 10.045
15.5691 9.880
15.5842 9.580
15.5994 9.811
15.6146 9.632
15.6298 9.894
15.6449 9.813
15.6601 9.676
15.6753 9.899
15.6905 9.616
15.7056 9.855
15.7208 9.469
15.7360 9.621
15.7512 9.565
15.7663 9.814
15.7815 9.890
15.7967 9.711
15.8119 9.636
15.8270 9.723
15.8422 9.719
15.8574 9.680
15.8726 9.623
15.8877 9.410
15.9029 9.366
15.9181 9.586
15.9333 9.425
15.9484 9.359
15.9636 9.499
15.9788 9.686
15.9940 9.313
16.0091 9.585
16.0243 9.698
16.0395 9.397
16.0547 9.643
16.0698 9.479
16.0850 9.542
16.1002 9.607
16.1154 9.467
16.1305 9.415
16.1457 9.574
16.1609 9.438
16.1761 9.271
16.1912 9.449
16.2064 9.587
16.2216 9.742
16.2368 10.047
16.2519 9.913
16.2671 9.782
16.2823 9.902
16.2975 9.816
16.3126 9.696
16.3278 9.720
16.3430 9.886
16.3582 9.758
16.3733 9.842
16.3885 9.916
16.4037 9.892
16.4189 9.575
16.4340 9.429
16.4492 9.526
16.4644 9.945
16.4796 9.992
16.4947 9.750
16.5099 9.717
16.5251 9.481
16.5403 9.295
16.5554 9.503
16.5706 9.692
16.5858 9.586
16.6010 9.427
16.6161 9.697
16.6313 9.770
16.6465 9.647
16.6617 9.671
16.6768 9.939
16.6920 9.855
16.7072 9.707
16.7224 9.942
16.7375 9.943
16.7527 9.678
16.7679 9.746
16.7831 10.081
16.7982 9.974
16.8134 9.923
16.8286 9.785
16.8438 9.446
16.8589 9.470
16.8741 9.696
16.8893 9.781
16.9045 9.833
16.9196 9.860
16.9348 9.662
16.9500 9.505
16.9652 9.478
16.9803 9.835
16.9955 9.825
17.0107 9.770
17.0259 9.945
17.0410 9.995
17.0562 9.929
17.0714 10.106
17.0866 10.283
17.1017 10.368
17.1169 10.467
17.1321 10.731
17.1473 11.006
17.1624 11.510
17.1776 12.161
17.1928 12.964
17.2080 13.840
17.2231 14.752
17.2383 16.068
17.2535 17.484
17.2687 18.560
17.2838 18.824
17.2990 18.045
17.3142 17.167
17.3294 16.456
17.3445 15.736
17.3597 15.915
17.3749 16.100
17.3901 15.460
17.4052 14.308
17.4204 13.174
17.4356 12.471
17.4508 11.891
17.4659 11.642
17.4811 11.542
17.4963 11.217
17.5115 11.105
17.5266 11.047
17.5418 10.819
17.5570 10.959
17.5722 10.875
17.5873 10.945
17.6025 11.238
17.6177 11.168
17.6329 11.181
17.6480 11.212
17.6632 11.512
17.6784 11.727
17.6936 11.427
17.7087 11.186
17.7239 11.103
17.7391 11.007
17.7543 11.101
17.7694 11.133
17.7846 10.962
17.7998 10.665
17.8150 10.518
17.8301 10.334
17.8453 10.173
17.8605 10.185
17.8757 10.226
17.8908 10.247
17.9060 10.323
17.9212 10.254
17.9364 10.130
17.9515 10.043
17.9667 10.180
17.9819 10.374
17.9971 10.312
18.0122 10.098
18.0274 10.091
18.0426 10.297
18.0578 10.151
18.0729 10.100
18.0881 9.989
18.1033 10.011
18.1185 9.966
18.1336 9.745
18.1488 9.610
18.1640 9.560
18.1792 9.753
18.1943 9.980
18.2095 9.870
18.2247 9.984
18.2399 10.067
18.2550 9.905
18.2702 9.997
18.2854 10.071
18.3006 9.952
18.3157 9.684
18.3309 9.636
18.3461 9.645
18.3613 9.825
18.3764 9.822
18.3916 9.827
18.4068 9.764
18.4220 9.840
18.4371 9.960
18.4523 9.943
18.4675 9.817
18.4827 9.568
18.4978 9.757
18.5130 9.723
18.5282 9.692
18.5434 9.760
18.5585 9.628
18.5737 9.699
18.5889 9.671
18.6041 9.599
18.6192 9.566
18.6344 9.585
18.6496 9.631
18.6648 9.590
18.6799 9.580
18.6951 9.748
18.7103 9.845
18.7255 9.813
18.7406 9.710
18.7558 9.619
18.7710 9.759
18.7862 9.907
18.8013 10.038
18.8165 9.890
18.8317 9.736
18.8469 9.879
18.8620 10.058
18.8772 10.053
18.8924 10.077
18.9076 9.913
18.9227 9.667
18.9379 9.871
18.9531 9.996
18.9683 9.905
18.9834 10.022
18.9986 10.249
19.0138 10.216
19.0290 10.165
19.0441 10.113
19.0593 10.197
19.0745 10.333
19.0897 10.231
19.1048 10.045
19.1200 10.407
19.1352 10.313
19.1504 10.282
19.1655 10.271
19.1807 10.344
19.1959 10.564
19.2111 10.590
19.2262 10.671
19.2414 10.758
19.2566 10.979
19.2718 11.001
19.2869 10.982
19.3021 10.945
19.3173 10.869
19.3325 10.991
19.3476 10.982
19.3628 10.950
19.3780 11.055
19.3932 11.036
19.4083 11.151
19.4235 11.225
19.4387 11.224
19.4539 11.282
19.4690 11.288
19.4842 11.276
19.4994 11.242
19.5146 11.583
19.5297 11.662
19.5449 11.608
19.5601 11.566
19.5753 11.662
19.5904 11.646
19.6056 11.365
19.6208 11.595
19.6360 11.716
19.6511 11.399
19.6663 11.408
19.6815 11.574
19.6967 11.632
19.7118 11.752
19.7270 11.810
19.7422 11.950
19.7574 12.057
19.7725 12.049
19.7877 11.896
19.8029 12.077
19.8180 12.233
19.8332 12.235
19.8484 12.468
19.8636 12.324
19.8787 12.467
19.8939 12.934
19.9091 13.150
19.9243 13.513
19.9394 14.031
19.9546 14.523
19.9698 14.714
19.9850 14.596
20.0001 14.309
20.0153 14.144
20.0305 14.226
20.0457 14.282
20.0608 13.970
20.0760 13.993
20.0912 13.871
20.1064 13.826
20.1215 13.635
20.1367 13.514
20.1519 13.290
20.1671 12.886
20.1822 12.788
20.1974 13.068
20.2126 13.063
20.2278 12.988
20.2429 12.694
20.2581 12.318
20.2733 12.157
20.2885 11.963
20.3036 12.002
20.3188 12.141
20.3340 12.237
20.3492 12.245
20.3643 12.259
20.3795 12.272
20.3947 11.905
20.4099 12.019
20.4250 11.839
20.4402 11.894
20.4554 11.795
20.4706 11.852
20.4857 11.628
20.5009 11.755
20.5161 11.840
20.5313 11.467
20.5464 11.266
20.5616 11.323
20.5768 11.382
20.5920 11.417
20.6071 11.120
20.6223 11.038
20.6375 10.855
20.6527 10.645
20.6678 10.938
20.6830 10.849
20.6982 10.663
20.7134 10.637
20.7285 10.621
20.7437 10.624
20.7589 10.439
20.7741 10.240
20.7892 10.618
20.8044 10.474
20.8196 10.101
20.8348 10.334
20.8499 10.317
20.8651 10.374
20.8803 10.193
20.8955 10.210
20.9106 10.228
20.9258 9.972
20.9410 10.233
20.9562 10.437
20.9713 10.078
20.9865 10.027
21.0017 9.990
21.0169 10.198
21.0320 10.009
21.0472 9.811
21.0624 9.829
21.0776 9.846
21.0927 9.764
21.1079 9.763
21.1231 9.821
21.1383 9.855
21.1534 9.905
21.1686 9.682
21.1838 9.881
21.1990 9.983
21.2141 9.831
21.2293 9.756
21.2445 9.270
21.2597 9.661
21.2748 9.575
21.2900 9.531
21.3052 9.718
21.3204 9.929
21.3355 9.575
21.3507 9.489
21.3659 9.464
21.3811 9.469
21.3962 9.490
21.4114 9.364
21.4266 9.674
21.4418 9.251
21.4569 9.436
21.4721 9.680
21.4873 9.509
21.5025 9.693
21.5176 9.606
21.5328 9.084
21.5480 9.206
21.5632 9.170
21.5783 9.204
21.5935 9.141
21.6087 8.829
21.6239 8.820
21.6390 8.818
21.6542 9.130
21.6694 9.405
21.6846 9.254
21.6997 9.021
21.7149 9.208
21.7301 9.223
21.7453 9.200
21.7604 9.044
21.7756 9.057
21.7908 8.804
21.8060 8.796
21.8211 8.879
21.8363 8.964
21.8515 9.062
21.8667 9.032
21.8818 8.960
21.8970 9.019
21.9122 8.937
21.9274 8.933
21.9425 8.891
21.9577 8.712
21.9729 8.726
21.9881 8.643
22.0032 8.855
22.0184 8.871
22.0336 8.829
22.0488 8.758
22.0639 8.645
22.0791 8.644
22.0943 8.700
22.1095 8.666
22.1246 8.528
22.1398 8.566
22.1550 8.533
22.1702 8.683
22.1853 8.809
22.2005 8.659
22.2157 8.604
22.2309 8.701
22.2460 8.694
22.2612 8.599
22.2764 8.625
22.2916 8.391
22.3067 8.517
22.3219 8.527
22.3371 8.562
22.3523 8.405
22.3674 8.470
22.3826 8.526
22.3978 8.456
22.4130 8.421
22.4281 8.230
22.4433 8.451
22.4585 8.543
22.4737 8.510
22.4888 8.322
22.5040 8.419
22.5192 8.299
22.5344 8.373
22.5495 8.476
22.5647 8.159
22.5799 8.323
22.5951 8.402
22.6102 8.527
22.6254 8.309
22.6406 8.124
22.6558 8.409
22.6709 8.569
22.6861 8.178
22.7013 8.052
22.7165 7.993
22.7316 6.342
