'Id: "" Comment: "" Operator: "Lab Manager" Anode: "Mo" Scantype: "Still (Eiger2R_500K (1D mode))" TimePerStep: "300" X: "11.8" Y: "9.4" Z: "11.284" 
7.2532 19.254
7.2684 18.966
7.2836 19.382
7.2987 19.167
7.3139 19.321
7.3291 19.312
7.3443 19.670
7.3594 19.385
7.3746 19.575
7.3898 19.885
7.4050 19.516
7.4201 19.697
7.4353 19.497
7.4505 19.515
7.4657 19.630
7.4808 19.489
7.4960 19.363
7.5112 19.871
7.5264 19.756
7.5415 19.504
7.5567 19.924
7.5719 20.119
7.5871 20.135
7.6022 19.799
7.6174 19.913
7.6326 20.162
7.6478 20.841
7.6629 20.734
7.6781 20.337
7.6933 20.243
7.7085 20.331
7.7236 20.254
7.7388 20.790
7.7540 20.645
7.7692 20.525
7.7843 20.749
7.7995 20.979
7.8147 20.837
7.8299 20.699
7.8450 20.819
7.8602 20.872
7.8754 20.828
7.8905 20.843
7.9057 20.901
7.9209 20.898
7.9361 20.871
7.9512 20.758
7.9664 20.954
7.9816 21.104
7.9968 21.115
8.0119 21.344
8.0271 21.594
8.0423 21.454
8.0575 21.273
8.0726 21.589
8.0878 21.311
8.1030 21.470
8.1182 21.685
8.1333 21.637
8.1485 21.931
8.1637 21.704
8.1789 22.159
8.1940 22.092
8.2092 22.068
8.2244 21.900
8.2396 21.821
8.2547 22.089
8.2699 21.918
8.2851 21.770
8.3003 22.257
8.3154 22.400
8.3306 22.095
8.3458 21.849
8.3610 21.962
8.3761 22.534
8.3913 22.254
8.4065 21.995
8.4217 22.393
8.4368 22.362
8.4520 22.027
8.4672 22.087
8.4824 22.236
8.4975 22.161
8.5127 22.078
8.5279 22.384
8.5431 22.044
8.5582 22.579
8.5734 22.159
8.5886 22.291
8.6038 22.273
8.6189 22.510
8.6341 22.125
8.6493 21.882
8.6645 22.620
8.6796 22.533
8.6948 22.435
8.7100 22.147
8.7252 21.762
8.7403 22.051
8.7555 22.273
8.7707 22.174
8.7859 22.460
8.8010 22.360
8.8162 22.842
8.8314 22.608
8.8466 22.428
8.8617 22.463
8.8769 22.922
8.8921 22.735
8.9073 22.395
8.9224 22.430
8.9376 22.930
8.9528 22.641
8.9680 22.784
8.9831 22.832
8.9983 22.826
9.0135 22.303
9.0287 22.564
9.0438 22.791
9.0590 22.999
9.0742 22.777
9.0894 22.732
9.1045 22.780
9.1197 22.945
9.1349 22.621
9.1501 22.938
9.1652 22.592
9.1804 22.785
9.1956 23.050
9.2108 22.872
9.2259 22.868
9.2411 22.814
9.2563 23.093
9.2715 23.425
9.2866 23.141
9.3018 23.363
9.3170 23.078
9.3322 23.169
9.3473 23.085
9.3625 23.333
9.3777 23.041
9.3929 23.328
9.4080 23.299
9.4232 23.407
9.4384 23.245
9.4536 22.947
9.4687 23.232
9.4839 23.241
9.4991 23.220
9.5143 23.482
9.5294 23.468
9.5446 23.358
9.5598 23.330
9.5750 23.308
9.5901 23.217
9.6053 23.331
9.6205 23.370
9.6357 23.608
9.6508 23.800
9.6660 23.743
9.6812 23.768
9.6964 24.038
9.7115 24.120
9.7267 24.166
9.7419 24.464
9.7571 24.320
9.7722 23.947
9.7874 24.098
9.8026 24.305
9.8178 23.876
9.8329 23.834
9.8481 23.960
9.8633 23.679
9.8785 24.131
9.8936 24.285
9.9088 24.118
9.9240 24.423
9.9392 24.421
9.9543 24.282
9.9695 24.375
9.9847 24.243
9.9999 23.951
10.0150 23.622
10.0302 23.613
10.0454 23.800
10.0606 23.465
10.0757 23.379
10.0909 23.603
10.1061 23.585
10.1213 23.911
10.1364 23.904
10.1516 23.583
10.1668 23.512
10.1820 23.645
10.1971 23.900
10.2123 23.932
10.2275 23.760
10.2427 23.878
10.2578 23.979
10.2730 23.762
10.2882 23.379
10.3034 23.335
10.3185 23.209
10.3337 23.122
10.3489 23.080
10.3641 23.258
10.3792 23.283
10.3944 23.008
10.4096 23.129
10.4248 23.246
10.4399 23.286
10.4551 23.083
10.4703 22.964
10.4855 22.771
10.5006 22.840
10.5158 22.877
10.5310 23.126
10.5462 23.069
10.5613 22.929
10.5765 23.046
10.5917 22.962
10.6069 22.654
10.6220 22.894
10.6372 22.974
10.6524 22.899
10.6676 23.072
10.6827 23.006
10.6979 22.654
10.7131 22.683
10.7283 22.587
10.7434 22.426
10.7586 22.702
10.7738 22.979
10.7890 22.421
10.8041 22.512
10.8193 22.731
10.8345 22.545
10.8497 22.314
10.8648 22.170
10.8800 22.421
10.8952 22.382
10.9104 22.233
10.9255 22.074
10.9407 22.100
10.9559 21.989
10.9711 22.206
10.9862 22.071
11.0014 22.041
11.0166 22.168
11.0318 22.136
11.0469 21.960
11.0621 21.630
11.0773 21.991
11.0925 22.088
11.1076 21.648
11.1228 21.301
11.1380 21.481
11.1532 21.942
11.1683 21.685
11.1835 21.946
11.1987 22.017
11.2139 21.771
11.2290 21.830
11.2442 21.731
11.2594 21.398
11.2746 21.587
11.2897 21.946
11.3049 21.786
11.3201 21.365
11.3353 21.495
11.3504 21.944
11.3656 21.739
11.3808 21.332
11.3960 21.108
11.4111 21.492
11.4263 21.722
11.4415 21.354
11.4567 21.298
11.4718 21.361
11.4870 21.615
11.5022 21.461
11.5174 21.060
11.5325 21.119
11.5477 21.255
11.5629 21.302
11.5781 21.377
11.5932 21.129
11.6084 20.665
11.6236 20.801
11.6388 20.807
11.6539 20.671
11.6691 21.025
11.6843 20.697
11.6995 20.660
11.7146 20.641
11.7298 20.605
11.7450 20.796
11.7602 20.588
11.7753 20.101
11.7905 19.876
11.8057 20.156
11.8209 20.143
11.8360 19.788
11.8512 20.281
11.8664 20.162
11.8816 20.178
11.8967 19.531
11.9119 19.446
11.9271 19.265
11.9423 19.321
11.9574 19.435
11.9726 19.269
11.9878 19.415
12.0030 19.240
12.0181 18.985
12.0333 19.143
12.0485 19.258
12.0637 18.918
12.0788 18.690
12.0940 18.545
12.1092 18.615
12.1244 18.682
12.1395 19.009
12.1547 18.625
12.1699 18.331
12.1851 18.245
12.2002 18.265
12.2154 18.176
12.2306 17.784
12.2458 18.004
12.2609 18.067
12.2761 17.815
12.2913 17.489
12.3065 17.496
12.3216 17.802
12.3368 17.485
12.3520 17.221
12.3672 17.132
12.3823 16.853
12.3975 17.106
12.4127 17.275
12.4279 17.063
12.4430 16.961
12.4582 16.904
12.4734 16.581
12.4886 16.576
12.5037 16.860
12.5189 17.136
12.5341 16.587
12.5493 16.071
12.5644 16.378
12.5796 16.399
12.5948 16.202
12.6100 15.904
12.6251 15.878
12.6403 15.823
12.6555 15.706
12.6707 15.980
12.6858 15.825
12.7010 15.822
12.7162 15.957
12.7314 15.447
12.7465 15.321
12.7617 15.258
12.7769 15.291
12.7921 15.283
12.8072 15.329
12.8224 15.258
12.8376 15.088
12.8528 14.939
12.8679 14.461
12.8831 14.492
12.8983 14.644
12.9135 14.739
12.9286 14.772
12.9438 14.658
12.9590 14.404
12.9742 14.346
12.9893 14.382
13.0045 14.335
13.0197 14.347
13.0349 14.207
13.0500 13.971
13.0652 13.943
13.0804 13.799
13.0956 13.732
13.1107 13.845
13.1259 13.634
13.1411 13.711
13.1563 13.699
13.1714 13.217
13.1866 13.241
13.2018 13.619
13.2170 13.513
13.2321 13.317
13.2473 13.403
13.2625 13.357
13.2777 13.267
13.2928 13.103
13.3080 12.850
13.3232 12.895
13.3384 13.104
13.3535 13.214
13.3687 13.404
13.3839 13.345
13.3991 12.868
13.4142 12.741
13.4294 12.981
13.4446 13.036
13.4598 12.924
13.4749 12.717
13.4901 12.561
13.5053 12.506
13.5205 12.334
13.5356 12.326
13.5508 12.255
13.5660 12.274
13.5812 12.298
13.5963 12.187
13.6115 12.249
13.6267 12.307
13.6419 12.203
13.6570 12.091
13.6722 11.981
13.6874 11.944
13.7026 11.896
13.7177 12.083
13.7329 11.975
13.7481 11.985
13.7633 12.311
13.7784 12.310
13.7936 12.233
13.8088 12.279
13.8239 12.305
13.8391 12.243
13.8543 12.302
13.8695 12.301
13.8846 12.167
13.8998 12.174
13.9150 12.167
13.9302 12.185
13.9453 11.979
13.9605 11.881
13.9757 11.834
13.9909 11.742
14.0060 11.576
14.0212 11.438
14.0364 11.158
14.0516 11.223
14.0667 11.313
14.0819 11.564
14.0971 11.475
14.1123 11.536
14.1274 11.519
14.1426 11.316
14.1578 11.091
14.1730 11.116
14.1881 11.170
14.2033 11.257
14.2185 11.334
14.2337 11.459
14.2488 11.400
14.2640 11.530
14.2792 11.523
14.2944 11.656
14.3095 11.688
14.3247 11.904
14.3399 12.043
14.3551 12.569
14.3702 12.637
14.3854 12.827
14.4006 13.023
14.4158 12.967
14.4309 13.547
14.4461 13.591
14.4613 13.488
14.4765 13.681
14.4916 13.226
14.5068 13.808
14.5220 13.745
14.5372 13.381
14.5523 13.399
14.5675 12.699
14.5827 12.458
14.5979 12.140
14.6130 11.887
14.6282 11.962
14.6434 11.854
14.6586 11.503
14.6737 11.563
14.6889 11.415
14.7041 11.551
14.7193 11.309
14.7344 11.345
14.7496 11.479
14.7648 11.445
14.7800 11.294
14.7951 11.372
14.8103 11.435
14.8255 11.339
14.8407 11.006
14.8558 11.271
14.8710 10.993
14.8862 11.073
14.9014 11.355
14.9165 11.409
14.9317 10.963
14.9469 10.799
14.9621 10.866
14.9772 10.459
14.9924 10.819
15.0076 10.436
15.0228 10.892
15.0379 10.704
15.0531 10.791
15.0683 10.856
15.0835 10.215
15.0986 10.417
15.1138 10.693
15.1290 10.537
15.1442 10.846
15.1593 10.271
15.1745 10.180
15.1897 10.562
15.2049 10.637
15.2200 10.538
15.2352 10.521
15.2504 10.562
15.2656 10.339
15.2807 10.004
15.2959 9.952
15.3111 10.332
15.3263 10.592
15.3414 10.442
15.3566 10.683
15.3718 10.569
15.3870 10.585
15.4021 10.736
15.4173 10.607
15.4325 10.640
15.4477 10.438
15.4628 10.455
15.4780 10.497
15.4932 10.624
15.5084 10.589
15.5235 10.052
15.5387 10.215
15.5539 10.588
15.5691 10.020
15.5842 10.444
15.5994 10.020
15.6146 10.193
15.6298 10.398
15.6449 10.381
15.6601 10.237
15.6753 10.236
15.6905 9.837
15.7056 9.883
15.7208 9.884
15.7360 9.914
15.7512 9.725
15.7663 9.944
15.7815 9.930
15.7967 9.889
15.8119 10.230
15.8270 10.097
15.8422 9.793
15.8574 9.899
15.8726 9.838
15.8877 9.939
15.9029 9.870
15.9181 9.706
15.9333 9.891
15.9484 10.057
15.9636 9.885
15.9788 9.705
15.9940 9.699
16.0091 9.871
16.0243 9.810
16.0395 9.627
16.0547 10.046
16.0698 9.904
16.0850 9.828
16.1002 9.817
16.1154 9.710
16.1305 10.032
16.1457 9.744
16.1609 9.747
16.1761 9.776
16.1912 9.790
16.2064 9.686
16.2216 9.750
16.2368 9.951
16.2519 10.066
16.2671 10.074
16.2823 9.918
16.2975 10.002
16.3126 10.058
16.3278 10.225
16.3430 10.070
16.3582 10.213
16.3733 10.271
16.3885 10.191
16.4037 10.260
16.4189 10.169
16.4340 10.119
16.4492 10.072
16.4644 10.026
16.4796 10.237
16.4947 10.155
16.5099 9.762
16.5251 9.834
16.5403 9.999
16.5554 9.796
16.5706 9.595
16.5858 9.793
16.6010 10.045
16.6161 9.982
16.6313 9.887
16.6465 9.926
16.6617 10.081
16.6768 10.053
16.6920 9.970
16.7072 9.817
16.7224 9.803
16.7375 9.951
16.7527 9.916
16.7679 9.863
16.7831 9.861
16.7982 10.004
16.8134 10.216
16.8286 10.182
16.8438 9.844
16.8589 9.862
16.8741 9.791
16.8893 9.622
16.9045 9.704
16.9196 9.660
16.9348 9.684
16.9500 9.909
16.9652 9.991
16.9803 10.014
16.9955 10.062
17.0107 9.864
17.0259 9.714
17.0410 10.015
17.0562 10.249
17.0714 10.325
17.0866 10.518
17.1017 10.681
17.1169 10.802
17.1321 11.035
17.1473 11.359
17.1624 11.768
17.1776 12.438
17.1928 13.276
17.2080 13.929
17.2231 15.122
17.2383 16.526
17.2535 17.504
17.2687 18.474
17.2838 18.756
17.2990 18.031
17.3142 17.176
17.3294 16.561
17.3445 15.960
17.3597 15.860
17.3749 15.810
17.3901 15.120
17.4052 14.053
17.4204 13.167
17.4356 12.454
17.4508 11.739
17.4659 11.453
17.4811 11.231
17.4963 10.894
17.5115 10.669
17.5266 10.659
17.5418 10.605
17.5570 10.417
17.5722 10.424
17.5873 10.476
17.6025 10.443
17.6177 10.311
17.6329 10.242
17.6480 10.371
17.6632 10.305
17.6784 10.136
17.6936 10.114
17.7087 10.291
17.7239 10.422
17.7391 10.658
17.7543 11.064
17.7694 11.370
17.7846 11.852
17.7998 12.256
17.8150 12.497
17.8301 12.667
17.8453 12.582
17.8605 12.856
17.8757 13.031
17.8908 12.718
17.9060 12.426
17.9212 12.315
17.9364 12.026
17.9515 11.880
17.9667 11.816
17.9819 11.553
17.9971 11.218
18.0122 10.943
18.0274 10.706
18.0426 10.526
18.0578 10.423
18.0729 10.390
18.0881 10.128
18.1033 10.105
18.1185 10.229
18.1336 10.278
18.1488 10.341
18.1640 10.114
18.1792 10.070
18.1943 9.955
18.2095 10.044
18.2247 10.083
18.2399 10.086
18.2550 10.033
18.2702 9.942
18.2854 10.013
18.3006 9.966
18.3157 10.141
18.3309 10.191
18.3461 10.285
18.3613 10.044
18.3764 9.937
18.3916 9.839
18.4068 9.988
18.4220 10.071
18.4371 10.083
18.4523 9.942
18.4675 10.052
18.4827 10.278
18.4978 9.957
18.5130 9.871
18.5282 9.805
18.5434 9.907
18.5585 9.931
18.5737 9.885
18.5889 9.963
18.6041 9.999
18.6192 9.745
18.6344 9.617
18.6496 9.835
18.6648 9.796
18.6799 9.723
18.6951 9.655
18.7103 9.829
18.7255 9.934
18.7406 9.785
18.7558 9.767
18.7710 9.851
18.7862 9.995
18.8013 10.067
18.8165 9.976
18.8317 9.855
18.8469 10.015
18.8620 10.004
18.8772 10.113
18.8924 9.984
18.9076 9.807
18.9227 10.064
18.9379 10.320
18.9531 10.418
18.9683 10.346
18.9834 10.012
18.9986 10.061
19.0138 10.047
19.0290 10.188
19.0441 10.325
19.0593 10.469
19.0745 10.532
19.0897 10.531
19.1048 10.515
19.1200 10.493
19.1352 10.430
19.1504 10.575
19.1655 10.603
19.1807 10.598
19.1959 10.908
19.2111 10.878
19.2262 10.615
19.2414 10.712
19.2566 11.012
19.2718 10.959
19.2869 10.867
19.3021 10.889
19.3173 11.154
19.3325 11.297
19.3476 10.993
19.3628 10.947
19.3780 10.935
19.3932 11.071
19.4083 11.169
19.4235 11.338
19.4387 11.380
19.4539 11.281
19.4690 11.460
19.4842 11.515
19.4994 11.316
19.5146 11.409
19.5297 11.587
19.5449 11.614
19.5601 11.617
19.5753 11.546
19.5904 11.564
19.6056 11.823
19.6208 11.871
19.6360 11.578
19.6511 11.576
19.6663 11.753
19.6815 11.557
19.6967 11.554
19.7118 11.704
19.7270 11.770
19.7422 11.984
19.7574 11.883
19.7725 11.747
19.7877 11.768
19.8029 11.864
19.8180 12.035
19.8332 12.059
19.8484 12.189
19.8636 12.267
19.8787 12.373
19.8939 12.953
19.9091 13.141
19.9243 13.352
19.9394 13.943
19.9546 14.153
19.9698 14.422
19.9850 14.686
20.0001 14.559
20.0153 14.231
20.0305 13.926
20.0457 13.777
20.0608 13.758
20.0760 13.873
20.0912 13.636
20.1064 13.658
20.1215 13.439
20.1367 13.210
20.1519 13.178
20.1671 12.941
20.1822 12.583
20.1974 12.578
20.2126 12.577
20.2278 12.761
20.2429 12.595
20.2581 12.132
20.2733 11.687
20.2885 11.642
20.3036 11.614
20.3188 11.553
20.3340 11.635
20.3492 11.595
20.3643 11.743
20.3795 11.717
20.3947 11.333
20.4099 11.197
20.4250 11.133
20.4402 10.937
20.4554 10.887
20.4706 10.860
20.4857 11.061
20.5009 11.178
20.5161 10.981
20.5313 10.985
20.5464 11.154
20.5616 11.196
20.5768 11.053
20.5920 11.108
20.6071 11.117
20.6223 11.226
20.6375 11.123
20.6527 10.929
20.6678 11.161
20.6830 11.065
20.6982 10.814
20.7134 10.771
20.7285 10.765
20.7437 10.935
20.7589 10.661
20.7741 10.584
20.7892 10.624
20.8044 10.693
20.8196 10.997
20.8348 10.481
20.8499 10.575
20.8651 10.432
20.8803 10.416
20.8955 10.451
20.9106 10.352
20.9258 10.702
20.9410 10.872
20.9562 10.471
20.9713 10.639
20.9865 10.929
21.0017 10.329
21.0169 10.383
21.0320 10.434
21.0472 10.465
21.0624 10.370
21.0776 10.341
21.0927 10.242
21.1079 9.973
21.1231 10.168
21.1383 9.963
21.1534 10.070
21.1686 10.122
21.1838 9.784
21.1990 9.677
21.2141 9.871
21.2293 9.823
21.2445 9.653
21.2597 9.729
21.2748 9.682
21.2900 9.710
21.3052 9.685
21.3204 9.897
21.3355 9.743
21.3507 9.859
21.3659 9.725
21.3811 9.864
21.3962 9.320
21.4114 9.336
21.4266 9.278
21.4418 9.523
21.4569 9.548
21.4721 9.526
21.4873 9.263
21.5025 9.389
21.5176 9.349
21.5328 9.272
21.5480 9.176
21.5632 9.293
21.5783 9.443
21.5935 9.111
21.6087 9.147
21.6239 9.075
21.6390 9.031
21.6542 8.981
21.6694 8.991
21.6846 9.409
21.6997 9.241
21.7149 9.223
21.7301 9.180
21.7453 9.273
21.7604 9.067
21.7756 9.173
21.7908 9.086
21.8060 8.954
21.8211 9.036
21.8363 8.863
21.8515 8.927
21.8667 8.952
21.8818 8.940
21.8970 8.854
21.9122 8.859
21.9274 9.064
21.9425 9.066
21.9577 8.797
21.9729 8.669
21.9881 8.827
22.0032 8.809
22.0184 8.729
22.0336 8.832
22.0488 8.792
22.0639 8.720
22.0791 8.676
22.0943 8.552
22.1095 8.565
22.1246 8.745
22.1398 8.838
22.1550 8.551
22.1702 8.427
22.1853 8.443
22.2005 8.498
22.2157 8.389
22.2309 8.554
22.2460 8.510
22.2612 8.591
22.2764 8.628
22.2916 8.710
22.3067 8.549
22.3219 8.712
22.3371 8.512
22.3523 8.303
22.3674 8.368
22.3826 8.462
22.3978 8.310
22.4130 8.104
22.4281 8.244
22.4433 8.640
22.4585 8.688
22.4737 8.329
22.4888 8.547
22.5040 8.287
22.5192 8.695
22.5344 8.321
22.5495 8.226
22.5647 8.461
22.5799 8.369
22.5951 8.430
22.6102 8.392
22.6254 8.378
22.6406 8.218
22.6558 8.323
22.6709 8.374
22.6861 8.432
22.7013 8.105
22.7165 7.752
22.7316 6.397
