'Id: "" Comment: "" Operator: "Lab Manager" Anode: "Mo" Scantype: "Still (Eiger2R_500K (1D mode))" TimePerStep: "300" X: "11.8" Y: "9.4" Z: "11.284" 
7.2532 18.537
7.2684 19.001
7.2836 18.660
7.2987 18.524
7.3139 18.864
7.3291 19.115
7.3443 19.101
7.3594 19.135
7.3746 18.711
7.3898 19.129
7.4050 19.098
7.4201 19.590
7.4353 19.206
7.4505 19.033
7.4657 19.158
7.4808 19.350
7.4960 19.542
7.5112 19.329
7.5264 19.297
7.5415 19.500
7.5567 19.753
7.5719 19.677
7.5871 20.006
7.6022 19.984
7.6174 20.115
7.6326 20.065
7.6478 19.871
7.6629 20.165
7.6781 20.082
7.6933 20.145
7.7085 20.389
7.7236 20.228
7.7388 20.151
7.7540 20.368
7.7692 20.464
7.7843 20.577
7.7995 20.596
7.8147 20.487
7.8299 20.280
7.8450 20.306
7.8602 20.556
7.8754 20.373
7.8905 20.390
7.9057 20.513
7.9209 20.654
7.9361 20.675
7.9512 20.861
7.9664 20.958
7.9816 21.090
7.9968 21.075
8.0119 20.954
8.0271 20.819
8.0423 20.901
8.0575 21.193
8.0726 21.046
8.0878 20.718
8.1030 20.949
8.1182 21.222
8.1333 21.326
8.1485 20.983
8.1637 20.917
8.1789 21.322
8.1940 21.557
8.2092 21.445
8.2244 21.374
8.2396 21.542
8.2547 21.552
8.2699 21.367
8.2851 21.075
8.3003 21.380
8.3154 21.671
8.3306 21.293
8.3458 21.153
8.3610 21.352
8.3761 22.199
8.3913 22.005
8.4065 22.158
8.4217 21.631
8.4368 21.748
8.4520 21.978
8.4672 22.208
8.4824 22.182
8.4975 22.054
8.5127 22.162
8.5279 22.326
8.5431 21.932
8.5582 21.716
8.5734 21.364
8.5886 22.401
8.6038 22.108
8.6189 22.078
8.6341 22.508
8.6493 21.622
8.6645 21.783
8.6796 21.827
8.6948 22.191
8.7100 22.064
8.7252 22.137
8.7403 22.212
8.7555 22.081
8.7707 22.107
8.7859 22.237
8.8010 22.167
8.8162 22.444
8.8314 22.419
8.8466 22.056
8.8617 22.499
8.8769 22.077
8.8921 22.296
8.9073 22.311
8.9224 22.522
8.9376 22.706
8.9528 22.574
8.9680 22.925
8.9831 22.339
8.9983 22.794
9.0135 22.335
9.0287 22.623
9.0438 22.620
9.0590 22.224
9.0742 22.449
9.0894 22.819
9.1045 22.913
9.1197 22.712
9.1349 22.473
9.1501 22.942
9.1652 22.930
9.1804 22.868
9.1956 22.685
9.2108 22.764
9.2259 22.886
9.2411 22.970
9.2563 22.843
9.2715 22.629
9.2866 22.756
9.3018 22.883
9.3170 22.862
9.3322 22.759
9.3473 22.709
9.3625 22.470
9.3777 22.457
9.3929 22.534
9.4080 22.483
9.4232 23.031
9.4384 22.923
9.4536 22.649
9.4687 22.949
9.4839 23.041
9.4991 23.022
9.5143 22.955
9.5294 23.032
9.5446 22.941
9.5598 22.980
9.5750 22.888
9.5901 22.645
9.6053 22.569
9.6205 23.068
9.6357 23.364
9.6508 23.348
9.6660 23.417
9.6812 23.419
9.6964 23.769
9.7115 23.787
9.7267 23.812
9.7419 24.021
9.7571 23.784
9.7722 23.987
9.7874 24.074
9.8026 23.746
9.8178 23.467
9.8329 23.261
9.8481 23.053
9.8633 22.939
9.8785 23.391
9.8936 23.482
9.9088 23.253
9.9240 23.191
9.9392 22.871
9.9543 22.725
9.9695 23.067
9.9847 23.261
9.9999 23.087
10.0150 22.935
10.0302 23.195
10.0454 23.352
10.0606 23.151
10.0757 23.000
10.0909 22.970
10.1061 23.206
10.1213 23.400
10.1364 23.632
10.1516 23.468
10.1668 23.206
10.1820 23.133
10.1971 23.570
10.2123 23.226
10.2275 23.002
10.2427 22.907
10.2578 22.752
10.2730 22.887
10.2882 22.462
10.3034 22.469
10.3185 22.892
10.3337 22.949
10.3489 22.488
10.3641 22.572
10.3792 22.709
10.3944 22.312
10.4096 22.404
10.4248 22.496
10.4399 22.356
10.4551 22.244
10.4703 22.452
10.4855 22.488
10.5006 22.490
10.5158 22.261
10.5310 22.678
10.5462 22.809
10.5613 22.511
10.5765 22.340
10.5917 22.099
10.6069 22.259
10.6220 22.443
10.6372 22.424
10.6524 22.463
10.6676 22.237
10.6827 22.585
10.6979 22.193
10.7131 22.370
10.7283 22.048
10.7434 22.362
10.7586 22.168
10.7738 22.200
10.7890 22.354
10.8041 22.202
10.8193 22.022
10.8345 21.978
10.8497 22.036
10.8648 21.693
10.8800 21.855
10.8952 21.864
10.9104 22.041
10.9255 21.934
10.9407 21.774
10.9559 21.951
10.9711 21.967
10.9862 21.873
11.0014 22.197
11.0166 22.377
11.0318 22.409
11.0469 22.044
11.0621 22.052
11.0773 21.957
11.0925 22.088
11.1076 22.384
11.1228 21.982
11.1380 21.739
11.1532 21.773
11.1683 21.629
11.1835 21.709
11.1987 21.496
11.2139 21.787
11.2290 21.384
11.2442 21.598
11.2594 21.680
11.2746 21.435
11.2897 21.215
11.3049 21.577
11.3201 21.500
11.3353 21.257
11.3504 21.378
11.3656 21.513
11.3808 21.732
11.3960 21.329
11.4111 21.414
11.4263 21.325
11.4415 20.974
11.4567 21.237
11.4718 21.557
11.4870 21.371
11.5022 21.381
11.5174 20.939
11.5325 20.637
11.5477 21.096
11.5629 20.734
11.5781 20.628
11.5932 20.932
11.6084 21.294
11.6236 21.142
11.6388 20.952
11.6539 20.736
11.6691 20.585
11.6843 20.674
11.6995 20.336
11.7146 20.133
11.7298 20.359
11.7450 20.285
11.7602 20.187
11.7753 20.345
11.7905 20.463
11.8057 20.296
11.8209 20.269
11.8360 20.025
11.8512 19.606
11.8664 19.661
11.8816 19.607
11.8967 19.513
11.9119 19.842
11.9271 19.596
11.9423 19.247
11.9574 19.493
11.9726 19.118
11.9878 19.063
12.0030 19.406
12.0181 19.373
12.0333 19.285
12.0485 18.795
12.0637 18.912
12.0788 18.846
12.0940 18.735
12.1092 18.733
12.1244 18.694
12.1395 18.810
12.1547 18.347
12.1699 18.170
12.1851 18.029
12.2002 18.172
12.2154 18.451
12.2306 18.269
12.2458 17.942
12.2609 17.944
12.2761 17.858
12.2913 17.942
12.3065 17.731
12.3216 17.563
12.3368 17.603
12.3520 17.547
12.3672 17.232
12.3823 17.274
12.3975 17.426
12.4127 17.436
12.4279 16.977
12.4430 16.835
12.4582 17.110
12.4734 16.930
12.4886 16.727
12.5037 16.778
12.5189 16.427
12.5341 16.355
12.5493 16.382
12.5644 16.295
12.5796 16.271
12.5948 16.028
12.6100 15.802
12.6251 15.687
12.6403 15.639
12.6555 15.774
12.6707 15.806
12.6858 15.614
12.7010 15.582
12.7162 15.767
12.7314 15.500
12.7465 15.270
12.7617 15.108
12.7769 15.228
12.7921 15.137
12.8072 14.996
12.8224 14.923
12.8376 14.770
12.8528 15.060
12.8679 14.870
12.8831 14.722
12.8983 14.860
12.9135 14.466
12.9286 14.466
12.9438 14.539
12.9590 14.261
12.9742 14.190
12.9893 14.411
13.0045 14.465
13.0197 14.104
13.0349 14.001
13.0500 14.021
13.0652 13.910
13.0804 13.646
13.0956 13.577
13.1107 13.569
13.1259 13.524
13.1411 13.687
13.1563 13.876
13.1714 13.809
13.1866 13.336
13.2018 13.108
13.2170 13.288
13.2321 13.227
13.2473 13.362
13.2625 13.422
13.2777 13.186
13.2928 13.178
13.3080 12.831
13.3232 12.697
13.3384 12.638
13.3535 12.653
13.3687 12.922
13.3839 12.961
13.3991 12.934
13.4142 13.052
13.4294 13.074
13.4446 12.828
13.4598 12.661
13.4749 12.723
13.4901 12.549
13.5053 12.472
13.5205 12.589
13.5356 12.422
13.5508 12.341
13.5660 12.317
13.5812 12.362
13.5963 12.362
13.6115 12.300
13.6267 12.191
13.6419 12.106
13.6570 12.081
13.6722 11.939
13.6874 11.921
13.7026 12.078
13.7177 12.204
13.7329 12.151
13.7481 11.953
13.7633 12.120
13.7784 12.263
13.7936 12.427
13.8088 12.363
13.8239 12.325
13.8391 12.242
13.8543 12.359
13.8695 12.588
13.8846 12.440
13.8998 12.098
13.9150 11.988
13.9302 12.017
13.9453 12.092
13.9605 12.337
13.9757 11.911
13.9909 11.697
14.0060 11.983
14.0212 11.617
14.0364 11.500
14.0516 11.709
14.0667 11.553
14.0819 11.491
14.0971 11.781
14.1123 11.451
14.1274 11.354
14.1426 11.533
14.1578 11.577
14.1730 11.775
14.1881 11.678
14.2033 11.493
14.2185 11.962
14.2337 12.001
14.2488 11.780
14.2640 11.828
14.2792 11.797
14.2944 12.178
14.3095 11.796
14.3247 12.142
14.3399 12.171
14.3551 12.248
14.3702 12.624
14.3854 12.689
14.4006 13.007
14.4158 12.999
14.4309 12.781
14.4461 12.731
14.4613 12.645
14.4765 12.482
14.4916 12.282
14.5068 12.001
14.5220 11.773
14.5372 11.524
14.5523 11.273
14.5675 11.602
14.5827 10.999
14.5979 10.757
14.6130 10.676
14.6282 10.916
14.6434 10.941
14.6586 10.785
14.6737 10.589
14.6889 10.733
14.7041 10.658
14.7193 10.767
14.7344 10.566
14.7496 10.574
14.7648 10.677
14.7800 10.436
14.7951 10.308
14.8103 10.353
14.8255 10.637
14.8407 10.438
14.8558 10.592
14.8710 10.214
14.8862 10.046
14.9014 10.055
14.9165 10.696
14.9317 10.587
14.9469 10.593
14.9621 10.537
14.9772 10.044
14.9924 10.327
15.0076 10.514
15.0228 10.508
15.0379 10.166
15.0531 10.077
15.0683 10.286
15.0835 10.266
15.0986 10.503
15.1138 10.184
15.1290 10.243
15.1442 10.108
15.1593 10.170
15.1745 10.013
15.1897 10.040
15.2049 9.710
15.2200 10.088
15.2352 9.991
15.2504 10.143
15.2656 10.199
15.2807 9.985
15.2959 10.142
15.3111 9.765
15.3263 10.318
15.3414 9.917
15.3566 9.905
15.3718 10.241
15.3870 10.135
15.4021 9.829
15.4173 10.079
15.4325 10.064
15.4477 10.104
15.4628 10.299
15.4780 9.904
15.4932 10.295
15.5084 9.840
15.5235 9.990
15.5387 9.837
15.5539 10.062
15.5691 10.035
15.5842 9.650
15.5994 10.283
15.6146 9.677
15.6298 9.742
15.6449 9.675
15.6601 9.614
15.6753 9.598
15.6905 9.660
15.7056 9.422
15.7208 9.719
15.7360 9.605
15.7512 9.279
15.7663 9.532
15.7815 9.650
15.7967 9.521
15.8119 9.628
15.8270 9.688
15.8422 9.427
15.8574 9.437
15.8726 9.525
15.8877 9.371
15.9029 9.707
15.9181 9.380
15.9333 9.344
15.9484 9.660
15.9636 9.573
15.9788 9.742
15.9940 9.622
16.0091 9.475
16.0243 9.381
16.0395 9.350
16.0547 9.503
16.0698 9.786
16.0850 9.534
16.1002 9.448
16.1154 9.486
16.1305 9.606
16.1457 9.679
16.1609 9.559
16.1761 9.833
16.1912 9.661
16.2064 9.535
16.2216 9.642
16.2368 9.903
16.2519 9.850
16.2671 10.116
16.2823 9.825
16.2975 9.833
16.3126 9.980
16.3278 10.058
16.3430 9.840
16.3582 9.979
16.3733 9.777
16.3885 9.717
16.4037 9.784
16.4189 9.624
16.4340 9.733
16.4492 9.538
16.4644 9.466
16.4796 9.656
16.4947 9.708
16.5099 9.593
16.5251 9.658
16.5403 9.514
16.5554 9.535
16.5706 9.499
16.5858 9.699
16.6010 9.817
16.6161 9.698
16.6313 9.544
16.6465 9.715
16.6617 9.705
16.6768 9.804
16.6920 9.686
16.7072 9.574
16.7224 9.963
16.7375 10.130
16.7527 9.960
16.7679 9.866
16.7831 9.915
16.7982 9.895
16.8134 9.938
16.8286 9.800
16.8438 9.834
16.8589 9.663
16.8741 9.515
16.8893 9.784
16.9045 9.757
16.9196 9.570
16.9348 9.643
16.9500 9.891
16.9652 9.843
16.9803 9.459
16.9955 9.704
17.0107 9.976
17.0259 9.785
17.0410 9.870
17.0562 10.069
17.0714 9.970
17.0866 9.850
17.1017 10.088
17.1169 10.520
17.1321 10.818
17.1473 11.181
17.1624 11.679
17.1776 12.488
17.1928 13.205
17.2080 14.009
17.2231 15.100
17.2383 16.158
17.2535 17.243
17.2687 18.401
17.2838 18.925
17.2990 18.132
17.3142 17.122
17.3294 16.408
17.3445 16.081
17.3597 16.054
17.3749 15.647
17.3901 14.983
17.4052 14.031
17.4204 13.153
17.4356 12.571
17.4508 11.931
17.4659 11.414
17.4811 11.365
17.4963 11.418
17.5115 11.320
17.5266 10.915
17.5418 10.669
17.5570 10.912
17.5722 10.813
17.5873 10.913
17.6025 11.100
17.6177 11.107
17.6329 11.224
17.6480 11.215
17.6632 11.201
17.6784 11.379
17.6936 11.522
17.7087 11.372
17.7239 11.295
17.7391 11.332
17.7543 11.161
17.7694 11.087
17.7846 11.281
17.7998 11.196
17.8150 10.743
17.8301 10.370
17.8453 10.501
17.8605 10.528
17.8757 10.416
17.8908 10.480
17.9060 10.232
17.9212 10.141
17.9364 10.274
17.9515 10.120
17.9667 10.225
17.9819 10.324
17.9971 10.250
18.0122 10.339
18.0274 10.125
18.0426 9.978
18.0578 10.134
18.0729 10.155
18.0881 10.144
18.1033 9.996
18.1185 9.963
18.1336 9.983
18.1488 9.873
18.1640 9.915
18.1792 9.930
18.1943 9.987
18.2095 9.822
18.2247 9.643
18.2399 9.729
18.2550 9.661
18.2702 9.448
18.2854 9.747
18.3006 9.863
18.3157 9.674
18.3309 9.802
18.3461 9.856
18.3613 9.668
18.3764 9.739
18.3916 9.632
18.4068 9.454
18.4220 9.861
18.4371 9.896
18.4523 9.915
18.4675 10.042
18.4827 9.618
18.4978 9.545
18.5130 9.634
18.5282 9.778
18.5434 9.872
18.5585 9.848
18.5737 9.830
18.5889 9.933
18.6041 9.979
18.6192 9.803
18.6344 9.848
18.6496 9.757
18.6648 9.729
18.6799 9.796
18.6951 9.793
18.7103 9.866
18.7255 9.883
18.7406 9.623
18.7558 9.759
18.7710 9.909
18.7862 9.821
18.8013 9.821
18.8165 9.638
18.8317 9.605
18.8469 9.671
18.8620 9.661
18.8772 9.916
18.8924 10.062
18.9076 10.046
18.9227 10.029
18.9379 9.950
18.9531 9.918
18.9683 10.080
18.9834 9.804
18.9986 9.901
19.0138 10.087
19.0290 10.106
19.0441 10.184
19.0593 10.422
19.0745 10.535
19.0897 10.439
19.1048 10.429
19.1200 10.443
19.1352 10.329
19.1504 10.380
19.1655 10.532
19.1807 10.783
19.1959 10.798
19.2111 10.522
19.2262 10.445
19.2414 10.690
19.2566 10.858
19.2718 10.786
19.2869 10.927
19.3021 11.078
19.3173 10.915
19.3325 11.040
19.3476 10.987
19.3628 11.119
19.3780 11.162
19.3932 11.098
19.4083 11.037
19.4235 11.265
19.4387 11.371
19.4539 11.249
19.4690 11.417
19.4842 11.339
19.4994 11.079
19.5146 11.232
19.5297 11.625
19.5449 11.681
19.5601 11.742
19.5753 11.869
19.5904 11.817
19.6056 11.710
19.6208 11.455
19.6360 11.558
19.6511 11.896
19.6663 11.831
19.6815 11.587
19.6967 11.742
19.7118 11.753
19.7270 11.815
19.7422 11.990
19.7574 11.991
19.7725 11.817
19.7877 11.833
19.8029 12.062
19.8180 12.099
19.8332 12.187
19.8484 12.314
19.8636 12.424
19.8787 12.543
19.8939 12.814
19.9091 13.348
19.9243 13.598
19.9394 13.828
19.9546 14.124
19.9698 14.467
19.9850 14.546
20.0001 14.435
20.0153 14.542
20.0305 14.416
20.0457 14.414
20.0608 14.133
20.0760 13.725
20.0912 13.588
20.1064 13.754
20.1215 13.610
20.1367 13.262
20.1519 13.384
20.1671 13.210
20.1822 12.837
20.1974 12.687
20.2126 12.802
20.2278 12.803
20.2429 12.711
20.2581 12.339
20.2733 12.168
20.2885 11.912
20.3036 11.768
20.3188 12.239
20.3340 12.214
20.3492 12.234
20.3643 12.439
20.3795 11.937
20.3947 11.637
20.4099 11.645
20.4250 11.737
20.4402 11.870
20.4554 11.791
20.4706 11.676
20.4857 11.902
20.5009 11.985
20.5161 11.693
20.5313 11.299
20.5464 11.400
20.5616 11.536
20.5768 11.283
20.5920 11.114
20.6071 11.025
20.6223 11.088
20.6375 11.017
20.6527 11.230
20.6678 11.129
20.6830 10.858
20.6982 11.064
20.7134 10.783
20.7285 10.594
20.7437 10.815
20.7589 10.740
20.7741 10.551
20.7892 10.519
20.8044 10.390
20.8196 10.497
20.8348 10.514
20.8499 10.249
20.8651 10.562
20.8803 10.381
20.8955 10.047
20.9106 10.307
20.9258 10.096
20.9410 10.340
20.9562 10.160
20.9713 10.210
20.9865 10.245
21.0017 10.001
21.0169 10.001
21.0320 10.110
21.0472 10.121
21.0624 10.104
21.0776 10.039
21.0927 10.076
21.1079 10.009
21.1231 10.231
21.1383 9.801
21.1534 10.031
21.1686 9.752
21.1838 9.499
21.1990 9.592
21.2141 9.853
21.2293 9.536
21.2445 9.770
21.2597 9.694
21.2748 9.640
21.2900 9.867
21.3052 9.610
21.3204 9.663
21.3355 9.653
21.3507 9.400
21.3659 9.567
21.3811 9.459
21.3962 9.910
21.4114 9.617
21.4266 9.589
21.4418 9.546
21.4569 9.564
21.4721 9.490
21.4873 9.507
21.5025 9.458
21.5176 9.271
21.5328 9.042
21.5480 9.272
21.5632 9.519
21.5783 9.412
21.5935 9.570
21.6087 9.118
21.6239 9.291
21.6390 9.033
21.6542 9.269
21.6694 9.221
21.6846 9.045
21.6997 9.126
21.7149 9.165
21.7301 9.223
21.7453 9.238
21.7604 9.162
21.7756 9.116
21.7908 9.035
21.8060 8.989
21.8211 8.811
21.8363 8.731
21.8515 8.923
21.8667 8.879
21.8818 8.736
21.8970 8.934
21.9122 9.042
21.9274 8.984
21.9425 8.834
21.9577 8.895
21.9729 8.863
21.9881 8.941
22.0032 9.023
22.0184 8.830
22.0336 8.759
22.0488 8.808
22.0639 8.928
22.0791 9.045
22.0943 8.810
22.1095 8.658
22.1246 8.693
22.1398 8.699
22.1550 8.679
22.1702 8.726
22.1853 8.825
22.2005 8.821
22.2157 8.663
22.2309 8.762
22.2460 8.531
22.2612 8.445
22.2764 8.506
22.2916 8.351
22.3067 8.480
22.3219 8.566
22.3371 8.534
22.3523 8.248
22.3674 8.219
22.3826 8.544
22.3978 8.398
22.4130 8.355
22.4281 8.207
22.4433 8.468
22.4585 8.435
22.4737 8.427
22.4888 8.202
22.5040 8.366
22.5192 8.533
22.5344 8.454
22.5495 8.681
22.5647 8.554
22.5799 8.510
22.5951 8.371
22.6102 8.239
22.6254 8.434
22.6406 8.649
22.6558 8.360
22.6709 8.235
22.6861 8.374
22.7013 7.985
22.7165 7.759
22.7316 6.390
