'Id: "" Comment: "" Operator: "Lab Manager" Anode: "Mo" Scantype: "Still (Eiger2R_500K (1D mode))" TimePerStep: "300" X: "11.8" Y: "9.4" Z: "11.284" 
7.2532 18.832
7.2684 19.243
7.2836 18.626
7.2987 19.485
7.3139 19.187
7.3291 19.147
7.3443 19.039
7.3594 18.719
7.3746 19.025
7.3898 18.952
7.4050 19.177
7.4201 19.228
7.4353 19.491
7.4505 19.298
7.4657 19.388
7.4808 19.519
7.4960 19.468
7.5112 19.364
7.5264 19.561
7.5415 19.426
7.5567 19.424
7.5719 19.676
7.5871 19.687
7.6022 19.980
7.6174 20.043
7.6326 19.986
7.6478 20.128
7.6629 20.206
7.6781 19.931
7.6933 20.085
7.7085 20.023
7.7236 20.236
7.7388 20.024
7.7540 20.007
7.7692 20.479
7.7843 20.365
7.7995 20.365
7.8147 20.438
7.8299 20.373
7.8450 20.500
7.8602 20.502
7.8754 20.302
7.8905 20.586
7.9057 20.803
7.9209 20.445
7.9361 20.623
7.9512 21.099
7.9664 21.009
7.9816 20.952
7.9968 21.321
8.0119 21.199
8.0271 21.058
8.0423 21.149
8.0575 20.569
8.0726 20.730
8.0878 21.369
8.1030 21.206
8.1182 21.158
8.1333 21.284
8.1485 21.068
8.1637 21.655
8.1789 21.308
8.1940 21.340
8.2092 21.643
8.2244 21.745
8.2396 21.701
8.2547 21.241
8.2699 20.975
8.2851 21.051
8.3003 21.538
8.3154 21.634
8.3306 21.578
8.3458 21.964
8.3610 21.798
8.3761 21.642
8.3913 21.887
8.4065 22.278
8.4217 22.125
8.4368 21.921
8.4520 21.818
8.4672 21.659
8.4824 21.650
8.4975 22.012
8.5127 22.031
8.5279 21.767
8.5431 22.077
8.5582 22.037
8.5734 21.747
8.5886 22.102
8.6038 22.275
8.6189 22.062
8.6341 21.989
8.6493 21.955
8.6645 22.146
8.6796 22.201
8.6948 21.991
8.7100 22.076
8.7252 22.251
8.7403 22.098
8.7555 22.401
8.7707 22.422
8.7859 22.446
8.8010 22.375
8.8162 22.347
8.8314 22.656
8.8466 21.858
8.8617 22.322
8.8769 22.272
8.8921 22.625
8.9073 22.280
8.9224 22.610
8.9376 22.615
8.9528 22.466
8.9680 22.842
8.9831 22.898
8.9983 22.830
9.0135 22.840
9.0287 22.739
9.0438 22.649
9.0590 22.904
9.0742 22.619
9.0894 22.497
9.1045 22.785
9.1197 22.836
9.1349 22.564
9.1501 22.577
9.1652 22.641
9.1804 22.684
9.1956 22.654
9.2108 22.947
9.2259 22.798
9.2411 22.778
9.2563 22.695
9.2715 22.927
9.2866 22.587
9.3018 22.330
9.3170 22.852
9.3322 22.791
9.3473 22.976
9.3625 23.125
9.3777 23.007
9.3929 22.809
9.4080 22.876
9.4232 23.017
9.4384 23.102
9.4536 22.824
9.4687 23.041
9.4839 23.048
9.4991 23.007
9.5143 23.142
9.5294 22.966
9.5446 23.165
9.5598 23.225
9.5750 23.120
9.5901 23.356
9.6053 23.160
9.6205 22.909
9.6357 23.000
9.6508 23.353
9.6660 23.531
9.6812 23.456
9.6964 23.193
9.7115 23.376
9.7267 23.714
9.7419 23.901
9.7571 24.010
9.7722 23.931
9.7874 23.778
9.8026 23.814
9.8178 23.761
9.8329 23.288
9.8481 23.218
9.8633 23.360
9.8785 23.203
9.8936 23.022
9.9088 22.952
9.9240 22.835
9.9392 22.915
9.9543 22.967
9.9695 23.330
9.9847 23.473
9.9999 23.410
10.0150 23.392
10.0302 23.437
10.0454 23.183
10.0606 22.936
10.0757 23.346
10.0909 23.589
10.1061 23.669
10.1213 23.570
10.1364 23.206
10.1516 23.508
10.1668 23.571
10.1820 23.286
10.1971 23.105
10.2123 22.742
10.2275 22.808
10.2427 23.127
10.2578 22.946
10.2730 22.990
10.2882 22.864
10.3034 22.304
10.3185 22.328
10.3337 22.751
10.3489 22.484
10.3641 22.786
10.3792 22.752
10.3944 22.804
10.4096 22.949
10.4248 22.687
10.4399 22.855
10.4551 22.527
10.4703 22.556
10.4855 22.718
10.5006 22.519
10.5158 22.585
10.5310 22.602
10.5462 22.764
10.5613 22.671
10.5765 22.249
10.5917 22.392
10.6069 22.486
10.6220 22.675
10.6372 22.502
10.6524 22.459
10.6676 22.692
10.6827 22.681
10.6979 22.522
10.7131 22.442
10.7283 22.446
10.7434 22.469
10.7586 21.966
10.7738 22.093
10.7890 22.080
10.8041 22.241
10.8193 22.290
10.8345 21.964
10.8497 21.826
10.8648 22.318
10.8800 22.485
10.8952 22.245
10.9104 22.237
10.9255 21.974
10.9407 22.068
10.9559 21.968
10.9711 21.804
10.9862 21.735
11.0014 22.248
11.0166 22.511
11.0318 21.853
11.0469 21.511
11.0621 21.583
11.0773 21.791
11.0925 21.576
11.1076 21.730
11.1228 22.058
11.1380 21.642
11.1532 21.867
11.1683 21.625
11.1835 21.560
11.1987 21.789
11.2139 21.732
11.2290 21.494
11.2442 21.189
11.2594 21.541
11.2746 21.667
11.2897 21.506
11.3049 21.394
11.3201 21.426
11.3353 21.491
11.3504 21.282
11.3656 21.436
11.3808 21.374
11.3960 21.520
11.4111 21.373
11.4263 21.286
11.4415 21.117
11.4567 21.102
11.4718 21.179
11.4870 20.880
11.5022 20.773
11.5174 21.002
11.5325 20.716
11.5477 20.657
11.5629 20.924
11.5781 20.982
11.5932 20.772
11.6084 20.422
11.6236 20.586
11.6388 20.743
11.6539 20.798
11.6691 21.039
11.6843 20.570
11.6995 20.451
11.7146 20.294
11.7298 20.400
11.7450 20.742
11.7602 20.456
11.7753 19.866
11.7905 20.164
11.8057 20.217
11.8209 20.018
11.8360 20.055
11.8512 19.812
11.8664 19.966
11.8816 19.882
11.8967 19.820
11.9119 19.810
11.9271 19.514
11.9423 19.736
11.9574 19.782
11.9726 19.724
11.9878 19.523
12.0030 19.177
12.0181 18.896
12.0333 19.159
12.0485 19.093
12.0637 18.908
12.0788 19.019
12.0940 18.727
12.1092 18.652
12.1244 18.723
12.1395 18.666
12.1547 18.625
12.1699 18.431
12.1851 18.224
12.2002 17.939
12.2154 18.097
12.2306 18.245
12.2458 18.121
12.2609 17.915
12.2761 18.042
12.2913 18.060
12.3065 17.711
12.3216 17.544
12.3368 17.572
12.3520 17.283
12.3672 17.146
12.3823 17.063
12.3975 17.051
12.4127 17.006
12.4279 17.008
12.4430 16.995
12.4582 16.904
12.4734 16.801
12.4886 17.101
12.5037 16.854
12.5189 16.569
12.5341 16.609
12.5493 16.650
12.5644 16.296
12.5796 16.045
12.5948 16.115
12.6100 16.034
12.6251 15.946
12.6403 16.035
12.6555 16.008
12.6707 15.651
12.6858 15.537
12.7010 15.956
12.7162 15.877
12.7314 15.379
12.7465 15.257
12.7617 15.391
12.7769 15.351
12.7921 15.257
12.8072 15.002
12.8224 15.086
12.8376 15.004
12.8528 14.736
12.8679 14.704
12.8831 14.700
12.8983 14.564
12.9135 14.441
12.9286 14.461
12.9438 14.498
12.9590 14.381
12.9742 14.397
12.9893 14.315
13.0045 14.167
13.0197 14.266
13.0349 14.121
13.0500 13.887
13.0652 13.853
13.0804 13.916
13.0956 13.918
13.1107 13.692
13.1259 13.660
13.1411 13.816
13.1563 13.797
13.1714 13.589
13.1866 13.558
13.2018 13.660
13.2170 13.515
13.2321 13.450
13.2473 13.449
13.2625 13.045
13.2777 12.929
13.2928 13.255
13.3080 13.123
13.3232 13.022
13.3384 13.141
13.3535 13.106
13.3687 12.929
13.3839 12.831
13.3991 13.074
13.4142 13.241
13.4294 13.050
13.4446 12.894
13.4598 12.815
13.4749 12.695
13.4901 12.492
13.5053 12.492
13.5205 12.714
13.5356 12.656
13.5508 12.348
13.5660 12.242
13.5812 12.063
13.5963 11.986
13.6115 12.023
13.6267 12.003
13.6419 11.883
13.6570 11.909
13.6722 11.985
13.6874 11.917
13.7026 12.066
13.7177 12.276
13.7329 12.170
13.7481 12.109
13.7633 11.808
13.7784 11.762
13.7936 11.899
13.8088 12.162
13.8239 12.466
13.8391 12.336
13.8543 11.978
13.8695 12.265
13.8846 12.490
13.8998 12.218
13.9150 12.382
13.9302 12.265
13.9453 12.077
13.9605 12.065
13.9757 12.077
13.9909 12.123
14.0060 11.889
14.0212 12.021
14.0364 11.750
14.0516 11.512
14.0667 11.686
14.0819 11.779
14.0971 11.862
14.1123 11.845
14.1274 11.478
14.1426 11.751
14.1578 11.822
14.1730 11.801
14.1881 11.517
14.2033 11.488
14.2185 11.775
14.2337 11.688
14.2488 12.040
14.2640 11.811
14.2792 11.833
14.2944 11.741
14.3095 12.166
14.3247 11.862
14.3399 12.159
14.3551 12.389
14.3702 12.433
14.3854 13.105
14.4006 12.948
14.4158 13.248
14.4309 13.101
14.4461 12.880
14.4613 12.571
14.4765 12.178
14.4916 12.375
14.5068 11.962
14.5220 11.947
14.5372 11.593
14.5523 10.991
14.5675 11.238
14.5827 11.311
14.5979 10.969
14.6130 10.991
14.6282 11.005
14.6434 10.680
14.6586 10.613
14.6737 10.898
14.6889 10.523
14.7041 10.677
14.7193 10.919
14.7344 10.612
14.7496 10.478
14.7648 10.602
14.7800 10.674
14.7951 10.656
14.8103 10.380
14.8255 10.544
14.8407 10.568
14.8558 10.482
14.8710 10.369
14.8862 10.570
14.9014 10.540
14.9165 10.555
14.9317 10.900
14.9469 10.126
14.9621 10.638
14.9772 10.505
14.9924 10.313
15.0076 10.536
15.0228 10.361
15.0379 10.083
15.0531 10.103
15.0683 10.214
15.0835 10.048
15.0986 10.206
15.1138 10.319
15.1290 9.962
15.1442 10.264
15.1593 10.191
15.1745 10.076
15.1897 10.150
15.2049 10.172
15.2200 9.998
15.2352 10.026
15.2504 10.064
15.2656 9.925
15.2807 10.264
15.2959 10.315
15.3111 9.851
15.3263 9.818
15.3414 10.307
15.3566 10.081
15.3718 9.993
15.3870 10.094
15.4021 10.126
15.4173 10.165
15.4325 10.313
15.4477 10.181
15.4628 10.571
15.4780 10.203
15.4932 9.982
15.5084 10.070
15.5235 9.958
15.5387 10.145
15.5539 9.786
15.5691 9.785
15.5842 9.856
15.5994 10.000
15.6146 9.842
15.6298 9.785
15.6449 9.783
15.6601 9.779
15.6753 9.774
15.6905 9.615
15.7056 9.577
15.7208 9.799
15.7360 9.784
15.7512 9.462
15.7663 9.455
15.7815 9.695
15.7967 9.759
15.8119 9.724
15.8270 9.837
15.8422 9.740
15.8574 9.605
15.8726 9.606
15.8877 9.613
15.9029 9.363
15.9181 9.626
15.9333 9.720
15.9484 9.515
15.9636 9.896
15.9788 9.779
15.9940 9.637
16.0091 9.794
16.0243 9.570
16.0395 9.450
16.0547 9.274
16.0698 9.746
16.0850 9.530
16.1002 9.393
16.1154 9.384
16.1305 9.316
16.1457 9.445
16.1609 9.549
16.1761 9.829
16.1912 9.727
16.2064 9.670
16.2216 9.620
16.2368 9.625
16.2519 9.502
16.2671 9.591
16.2823 9.695
16.2975 9.806
16.3126 9.848
16.3278 9.780
16.3430 9.619
16.3582 9.823
16.3733 9.863
16.3885 9.636
16.4037 9.822
16.4189 9.916
16.4340 9.772
16.4492 9.676
16.4644 9.633
16.4796 9.505
16.4947 9.626
16.5099 9.848
16.5251 9.718
16.5403 9.707
16.5554 9.734
16.5706 9.784
16.5858 9.673
16.6010 9.754
16.6161 9.817
16.6313 9.833
16.6465 9.799
16.6617 9.752
16.6768 9.939
16.6920 9.787
16.7072 9.671
16.7224 9.770
16.7375 10.154
16.7527 10.121
16.7679 9.948
16.7831 9.793
16.7982 9.739
16.8134 9.833
16.8286 9.849
16.8438 9.732
16.8589 9.757
16.8741 9.762
16.8893 9.730
16.9045 9.837
16.9196 9.852
16.9348 9.789
16.9500 9.818
16.9652 9.878
16.9803 9.929
16.9955 9.819
17.0107 9.879
17.0259 10.109
17.0410 10.277
17.0562 10.170
17.0714 10.219
17.0866 10.361
17.1017 10.421
17.1169 10.496
17.1321 10.642
17.1473 11.012
17.1624 11.729
17.1776 12.439
17.1928 13.149
17.2080 14.285
17.2231 15.077
17.2383 16.240
17.2535 17.917
17.2687 18.791
17.2838 18.876
17.2990 18.251
17.3142 16.981
17.3294 16.240
17.3445 16.093
17.3597 16.196
17.3749 16.180
17.3901 15.662
17.4052 14.400
17.4204 13.090
17.4356 12.592
17.4508 12.135
17.4659 11.869
17.4811 11.793
17.4963 11.510
17.5115 11.265
17.5266 11.117
17.5418 10.862
17.5570 10.746
17.5722 10.897
17.5873 11.073
17.6025 11.018
17.6177 10.962
17.6329 11.206
17.6480 11.340
17.6632 11.329
17.6784 11.383
17.6936 11.675
17.7087 11.806
17.7239 11.417
17.7391 11.241
17.7543 11.138
17.7694 11.094
17.7846 11.200
17.7998 11.060
17.8150 10.665
17.8301 10.489
17.8453 10.353
17.8605 10.284
17.8757 10.386
17.8908 10.210
17.9060 10.134
17.9212 10.183
17.9364 10.163
17.9515 10.087
17.9667 10.185
17.9819 10.304
17.9971 10.209
18.0122 10.113
18.0274 10.269
18.0426 10.048
18.0578 9.990
18.0729 9.835
18.0881 9.895
18.1033 9.959
18.1185 9.966
18.1336 9.977
18.1488 9.801
18.1640 9.799
18.1792 10.043
18.1943 9.985
18.2095 9.847
18.2247 9.899
18.2399 10.147
18.2550 10.116
18.2702 10.025
18.2854 9.835
18.3006 9.790
18.3157 10.086
18.3309 10.039
18.3461 9.915
18.3613 9.951
18.3764 9.949
18.3916 10.039
18.4068 9.954
18.4220 9.783
18.4371 9.726
18.4523 9.601
18.4675 9.701
18.4827 9.687
18.4978 9.868
18.5130 10.102
18.5282 10.038
18.5434 9.838
18.5585 9.894
18.5737 9.840
18.5889 9.759
18.6041 9.652
18.6192 9.939
18.6344 9.858
18.6496 9.814
18.6648 9.892
18.6799 9.738
18.6951 9.479
18.7103 9.646
18.7255 9.750
18.7406 9.644
18.7558 9.585
18.7710 9.781
18.7862 9.625
18.8013 9.533
18.8165 9.470
18.8317 9.747
18.8469 9.974
18.8620 9.966
18.8772 9.814
18.8924 9.736
18.9076 9.928
18.9227 10.034
18.9379 9.945
18.9531 9.959
18.9683 9.945
18.9834 9.972
18.9986 10.122
19.0138 10.126
19.0290 10.155
19.0441 10.245
19.0593 10.164
19.0745 10.208
19.0897 10.226
19.1048 10.437
19.1200 10.540
19.1352 10.569
19.1504 10.479
19.1655 10.412
19.1807 10.531
19.1959 10.570
19.2111 10.658
19.2262 10.811
19.2414 10.636
19.2566 10.730
19.2718 10.892
19.2869 10.856
19.3021 11.108
19.3173 11.049
19.3325 10.946
19.3476 11.231
19.3628 11.241
19.3780 11.137
19.3932 11.069
19.4083 11.149
19.4235 11.173
19.4387 11.222
19.4539 11.317
19.4690 11.376
19.4842 11.485
19.4994 11.585
19.5146 11.400
19.5297 11.570
19.5449 11.519
19.5601 11.405
19.5753 11.536
19.5904 11.476
19.6056 11.500
19.6208 11.604
19.6360 11.431
19.6511 11.767
19.6663 11.976
19.6815 11.712
19.6967 11.766
19.7118 11.787
19.7270 11.645
19.7422 11.641
19.7574 11.758
19.7725 11.671
19.7877 11.766
19.8029 12.148
19.8180 12.376
19.8332 12.215
19.8484 12.094
19.8636 12.377
19.8787 12.791
19.8939 13.169
19.9091 13.374
19.9243 13.615
19.9394 13.850
19.9546 14.053
19.9698 14.160
19.9850 14.479
20.0001 14.416
20.0153 13.894
20.0305 13.743
20.0457 13.874
20.0608 13.710
20.0760 13.581
20.0912 13.825
20.1064 13.938
20.1215 13.498
20.1367 13.044
20.1519 13.191
20.1671 13.038
20.1822 12.891
20.1974 12.993
20.2126 13.117
20.2278 13.133
20.2429 12.839
20.2581 12.363
20.2733 12.190
20.2885 12.060
20.3036 12.181
20.3188 12.036
20.3340 12.143
20.3492 12.263
20.3643 12.076
20.3795 11.896
20.3947 11.982
20.4099 11.943
20.4250 11.970
20.4402 11.919
20.4554 11.827
20.4706 11.814
20.4857 11.840
20.5009 11.667
20.5161 11.463
20.5313 11.369
20.5464 11.290
20.5616 11.222
20.5768 11.390
20.5920 11.174
20.6071 11.353
20.6223 10.974
20.6375 10.964
20.6527 10.733
20.6678 10.726
20.6830 10.732
20.6982 10.708
20.7134 10.503
20.7285 10.561
20.7437 10.521
20.7589 10.471
20.7741 10.379
20.7892 10.305
20.8044 10.027
20.8196 10.407
20.8348 10.487
20.8499 10.265
20.8651 10.084
20.8803 10.185
20.8955 10.265
20.9106 10.027
20.9258 10.165
20.9410 10.288
20.9562 10.276
20.9713 10.133
20.9865 9.633
21.0017 10.157
21.0169 9.909
21.0320 9.999
21.0472 10.123
21.0624 9.668
21.0776 10.048
21.0927 10.032
21.1079 10.149
21.1231 9.639
21.1383 9.905
21.1534 10.002
21.1686 9.919
21.1838 9.739
21.1990 9.758
21.2141 9.708
21.2293 10.094
21.2445 9.455
21.2597 9.629
21.2748 9.626
21.2900 9.634
21.3052 9.893
21.3204 9.847
21.3355 9.770
21.3507 9.480
21.3659 9.558
21.3811 9.617
21.3962 9.746
21.4114 9.630
21.4266 9.564
21.4418 9.290
21.4569 9.328
21.4721 9.290
21.4873 9.470
21.5025 9.127
21.5176 9.455
21.5328 9.354
21.5480 9.301
21.5632 9.311
21.5783 9.228
21.5935 9.224
21.6087 9.389
21.6239 9.434
21.6390 9.244
21.6542 9.055
21.6694 8.984
21.6846 9.086
21.6997 9.158
21.7149 8.690
21.7301 8.956
21.7453 9.222
21.7604 8.855
21.7756 9.083
21.7908 9.175
21.8060 9.248
21.8211 9.275
21.8363 9.010
21.8515 8.902
21.8667 9.155
21.8818 9.256
21.8970 9.131
21.9122 9.027
21.9274 8.956
21.9425 8.805
21.9577 8.839
21.9729 9.001
21.9881 8.779
22.0032 8.759
22.0184 8.971
22.0336 9.110
22.0488 8.965
22.0639 8.772
22.0791 8.824
22.0943 8.874
22.1095 8.741
22.1246 8.707
22.1398 8.814
22.1550 8.778
22.1702 8.633
22.1853 8.719
22.2005 8.754
22.2157 8.644
22.2309 8.603
22.2460 8.638
22.2612 8.585
22.2764 8.533
22.2916 8.832
22.3067 8.551
22.3219 8.626
22.3371 8.418
22.3523 8.288
22.3674 8.486
22.3826 8.327
22.3978 8.304
22.4130 8.692
22.4281 8.413
22.4433 8.555
22.4585 8.317
22.4737 8.447
22.4888 8.563
22.5040 8.607
22.5192 8.295
22.5344 8.390
22.5495 8.406
22.5647 8.633
22.5799 8.559
22.5951 8.478
22.6102 8.065
22.6254 8.333
22.6406 8.523
22.6558 8.382
22.6709 8.196
22.6861 8.325
22.7013 8.394
22.7165 8.064
22.7316 6.282
