'Id: "" Comment: "" Operator: "Lab Manager" Anode: "Mo" Scantype: "Still (Eiger2R_500K (1D mode))" TimePerStep: "300" X: "11.8" Y: "9.4" Z: "11.284" 
7.2532 18.760
7.2684 18.658
7.2836 18.874
7.2987 18.698
7.3139 18.779
7.3291 19.064
7.3443 19.376
7.3594 19.305
7.3746 19.228
7.3898 18.925
7.4050 18.826
7.4201 19.117
7.4353 19.629
7.4505 19.321
7.4657 19.555
7.4808 19.884
7.4960 19.549
7.5112 19.331
7.5264 19.567
7.5415 19.885
7.5567 19.857
7.5719 19.776
7.5871 19.617
7.6022 19.720
7.6174 20.047
7.6326 20.171
7.6478 20.055
7.6629 19.845
7.6781 20.251
7.6933 20.334
7.7085 20.123
7.7236 20.297
7.7388 20.496
7.7540 20.459
7.7692 20.381
7.7843 20.257
7.7995 20.243
7.8147 20.545
7.8299 20.646
7.8450 20.598
7.8602 20.511
7.8754 20.327
7.8905 20.660
7.9057 21.017
7.9209 20.823
7.9361 20.768
7.9512 20.761
7.9664 20.636
7.9816 20.726
7.9968 21.033
8.0119 20.996
8.0271 21.158
8.0423 21.342
8.0575 21.437
8.0726 21.168
8.0878 21.030
8.1030 21.057
8.1182 21.425
8.1333 21.299
8.1485 21.170
8.1637 21.140
8.1789 21.626
8.1940 21.437
8.2092 21.053
8.2244 21.485
8.2396 21.454
8.2547 21.094
8.2699 21.659
8.2851 21.368
8.3003 21.781
8.3154 21.459
8.3306 21.068
8.3458 21.215
8.3610 21.944
8.3761 22.080
8.3913 21.705
8.4065 21.623
8.4217 21.822
8.4368 21.835
8.4520 22.447
8.4672 21.783
8.4824 21.374
8.4975 21.666
8.5127 22.433
8.5279 21.938
8.5431 21.740
8.5582 21.924
8.5734 22.428
8.5886 21.645
8.6038 22.128
8.6189 22.380
8.6341 22.020
8.6493 22.238
8.6645 22.088
8.6796 22.441
8.6948 21.965
8.7100 22.139
8.7252 22.120
8.7403 21.696
8.7555 22.085
8.7707 22.432
8.7859 22.324
8.8010 22.049
8.8162 22.517
8.8314 22.573
8.8466 22.448
8.8617 22.516
8.8769 22.526
8.8921 22.414
8.9073 22.448
8.9224 22.344
8.9376 22.578
8.9528 22.224
8.9680 22.655
8.9831 22.792
8.9983 22.478
9.0135 22.476
9.0287 22.338
9.0438 22.543
9.0590 22.855
9.0742 22.827
9.0894 22.640
9.1045 22.974
9.1197 22.687
9.1349 22.910
9.1501 23.086
9.1652 22.932
9.1804 23.095
9.1956 22.671
9.2108 22.945
9.2259 22.884
9.2411 22.366
9.2563 22.517
9.2715 22.816
9.2866 23.070
9.3018 22.910
9.3170 23.025
9.3322 22.976
9.3473 22.683
9.3625 22.691
9.3777 22.856
9.3929 23.115
9.4080 23.247
9.4232 22.903
9.4384 23.095
9.4536 22.796
9.4687 22.936
9.4839 22.721
9.4991 22.877
9.5143 22.999
9.5294 22.814
9.5446 22.847
9.5598 23.033
9.5750 23.360
9.5901 23.272
9.6053 23.042
9.6205 23.231
9.6357 23.143
9.6508 23.245
9.6660 23.241
9.6812 23.300
9.6964 23.751
9.7115 23.678
9.7267 23.835
9.7419 24.143
9.7571 23.854
9.7722 23.560
9.7874 23.512
9.8026 23.482
9.8178 23.321
9.8329 23.493
9.8481 23.584
9.8633 23.163
9.8785 23.142
9.8936 23.447
9.9088 23.424
9.9240 23.282
9.9392 23.179
9.9543 22.899
9.9695 23.025
9.9847 23.439
9.9999 23.152
10.0150 23.044
10.0302 23.014
10.0454 23.181
10.0606 23.379
10.0757 23.378
10.0909 23.249
10.1061 23.092
10.1213 23.340
10.1364 23.363
10.1516 23.001
10.1668 23.119
10.1820 23.082
10.1971 22.934
10.2123 23.013
10.2275 23.295
10.2427 22.924
10.2578 22.889
10.2730 23.044
10.2882 22.737
10.3034 22.889
10.3185 23.013
10.3337 22.966
10.3489 22.850
10.3641 22.660
10.3792 22.442
10.3944 22.535
10.4096 22.340
10.4248 22.394
10.4399 22.696
10.4551 22.703
10.4703 22.689
10.4855 22.822
10.5006 22.601
10.5158 22.616
10.5310 22.609
10.5462 22.413
10.5613 22.439
10.5765 22.532
10.5917 22.179
10.6069 22.738
10.6220 22.563
10.6372 22.538
10.6524 22.456
10.6676 22.673
10.6827 22.771
10.6979 22.726
10.7131 22.551
10.7283 22.063
10.7434 22.268
10.7586 22.459
10.7738 22.424
10.7890 22.154
10.8041 21.951
10.8193 22.209
10.8345 22.431
10.8497 22.370
10.8648 22.162
10.8800 22.188
10.8952 22.303
10.9104 21.999
10.9255 21.765
10.9407 21.844
10.9559 21.819
10.9711 21.798
10.9862 21.905
11.0014 21.939
11.0166 22.137
11.0318 22.474
11.0469 22.193
11.0621 21.753
11.0773 21.864
11.0925 21.854
11.1076 21.531
11.1228 21.456
11.1380 21.907
11.1532 21.634
11.1683 21.509
11.1835 21.796
11.1987 21.811
11.2139 21.649
11.2290 21.433
11.2442 21.201
11.2594 21.497
11.2746 21.480
11.2897 21.729
11.3049 21.544
11.3201 21.449
11.3353 21.201
11.3504 21.355
11.3656 21.521
11.3808 21.312
11.3960 21.255
11.4111 21.447
11.4263 21.588
11.4415 21.273
11.4567 21.213
11.4718 21.202
11.4870 20.801
11.5022 21.165
11.5174 21.122
11.5325 21.258
11.5477 21.168
11.5629 21.090
11.5781 20.970
11.5932 20.998
11.6084 20.800
11.6236 20.630
11.6388 20.683
11.6539 20.552
11.6691 20.404
11.6843 20.456
11.6995 20.326
11.7146 20.352
11.7298 20.593
11.7450 20.372
11.7602 20.399
11.7753 19.904
11.7905 19.656
11.8057 19.684
11.8209 19.731
11.8360 20.001
11.8512 20.222
11.8664 20.020
11.8816 19.970
11.8967 19.622
11.9119 19.653
11.9271 19.700
11.9423 19.476
11.9574 19.541
11.9726 18.679
11.9878 18.924
12.0030 19.436
12.0181 19.200
12.0333 18.701
12.0485 18.613
12.0637 18.591
12.0788 18.646
12.0940 18.831
12.1092 18.659
12.1244 18.389
12.1395 18.601
12.1547 18.736
12.1699 18.894
12.1851 18.859
12.2002 18.416
12.2154 18.200
12.2306 18.400
12.2458 18.137
12.2609 18.088
12.2761 18.018
12.2913 17.831
12.3065 17.556
12.3216 17.465
12.3368 17.416
12.3520 17.260
12.3672 17.337
12.3823 17.583
12.3975 17.378
12.4127 17.206
12.4279 17.164
12.4430 16.956
12.4582 16.905
12.4734 17.101
12.4886 16.845
12.5037 16.622
12.5189 16.391
12.5341 16.427
12.5493 16.420
12.5644 16.439
12.5796 16.412
12.5948 16.040
12.6100 15.828
12.6251 16.035
12.6403 15.982
12.6555 15.867
12.6707 15.799
12.6858 15.885
12.7010 15.776
12.7162 15.562
12.7314 15.704
12.7465 15.590
12.7617 15.558
12.7769 15.512
12.7921 15.183
12.8072 15.232
12.8224 15.123
12.8376 14.923
12.8528 15.027
12.8679 15.194
12.8831 15.015
12.8983 14.876
12.9135 14.810
12.9286 14.824
12.9438 14.594
12.9590 14.465
12.9742 14.680
12.9893 14.525
13.0045 14.284
13.0197 14.105
13.0349 13.861
13.0500 13.812
13.0652 13.763
13.0804 13.680
13.0956 13.909
13.1107 14.110
13.1259 13.761
13.1411 13.640
13.1563 13.677
13.1714 13.447
13.1866 13.337
13.2018 13.443
13.2170 13.506
13.2321 13.518
13.2473 13.459
13.2625 13.294
13.2777 13.364
13.2928 13.278
13.3080 13.019
13.3232 12.914
13.3384 12.967
13.3535 12.961
13.3687 12.895
13.3839 12.988
13.3991 13.202
13.4142 13.077
13.4294 13.029
13.4446 12.957
13.4598 12.745
13.4749 12.893
13.4901 12.908
13.5053 12.640
13.5205 12.470
13.5356 12.314
13.5508 12.351
13.5660 12.339
13.5812 12.310
13.5963 12.291
13.6115 12.383
13.6267 12.426
13.6419 12.481
13.6570 12.117
13.6722 12.199
13.6874 12.101
13.7026 11.868
13.7177 11.775
13.7329 12.064
13.7481 12.127
13.7633 12.133
13.7784 12.135
13.7936 12.054
13.8088 12.103
13.8239 12.026
13.8391 12.012
13.8543 12.107
13.8695 12.240
13.8846 12.208
13.8998 12.116
13.9150 12.044
13.9302 11.844
13.9453 12.108
13.9605 12.193
13.9757 11.896
13.9909 11.835
14.0060 11.680
14.0212 11.678
14.0364 11.384
14.0516 11.480
14.0667 11.815
14.0819 11.586
14.0971 11.591
14.1123 11.785
14.1274 11.772
14.1426 11.550
14.1578 11.541
14.1730 11.450
14.1881 11.585
14.2033 11.816
14.2185 11.776
14.2337 11.940
14.2488 12.192
14.2640 12.013
14.2792 11.806
14.2944 12.279
14.3095 12.193
14.3247 12.417
14.3399 12.412
14.3551 12.731
14.3702 12.728
14.3854 13.198
14.4006 13.284
14.4158 13.215
14.4309 12.953
14.4461 12.918
14.4613 12.751
14.4765 12.434
14.4916 12.587
14.5068 12.121
14.5220 11.882
14.5372 11.620
14.5523 11.149
14.5675 11.053
14.5827 11.156
14.5979 10.916
14.6130 10.876
14.6282 10.743
14.6434 11.084
14.6586 10.902
14.6737 10.714
14.6889 10.822
14.7041 10.420
14.7193 10.631
14.7344 10.487
14.7496 10.981
14.7648 10.629
14.7800 10.516
14.7951 10.442
14.8103 10.734
14.8255 10.376
14.8407 10.542
14.8558 10.502
14.8710 10.393
14.8862 10.561
14.9014 10.741
14.9165 10.987
14.9317 11.003
14.9469 10.320
14.9621 10.314
14.9772 10.252
14.9924 10.113
15.0076 10.384
15.0228 10.831
15.0379 10.808
15.0531 10.146
15.0683 10.297
15.0835 10.338
15.0986 10.087
15.1138 10.271
15.1290 10.357
15.1442 10.670
15.1593 10.366
15.1745 10.230
15.1897 9.865
15.2049 9.915
15.2200 10.132
15.2352 10.211
15.2504 10.330
15.2656 10.526
15.2807 10.131
15.2959 9.883
15.3111 10.259
15.3263 10.036
15.3414 10.002
15.3566 10.322
15.3718 10.187
15.3870 10.315
15.4021 10.008
15.4173 10.748
15.4325 10.346
15.4477 10.031
15.4628 10.189
15.4780 10.085
15.4932 10.014
15.5084 10.055
15.5235 10.242
15.5387 10.303
15.5539 10.203
15.5691 9.989
15.5842 9.775
15.5994 10.093
15.6146 10.070
15.6298 9.862
15.6449 9.811
15.6601 9.988
15.6753 9.712
15.6905 9.738
15.7056 9.606
15.7208 9.844
15.7360 9.787
15.7512 9.586
15.7663 9.738
15.7815 9.916
15.7967 9.861
15.8119 9.838
15.8270 9.915
15.8422 9.573
15.8574 9.722
15.8726 9.427
15.8877 9.457
15.9029 9.369
15.9181 9.591
15.9333 9.924
15.9484 9.764
15.9636 9.718
15.9788 9.707
15.9940 9.664
16.0091 9.725
16.0243 9.849
16.0395 9.622
16.0547 9.638
16.0698 9.700
16.0850 9.616
16.1002 9.548
16.1154 9.496
16.1305 9.446
16.1457 9.553
16.1609 9.529
16.1761 9.549
16.1912 9.867
16.2064 9.604
16.2216 9.607
16.2368 9.554
16.2519 9.445
16.2671 9.567
16.2823 9.604
16.2975 9.806
16.3126 9.720
16.3278 9.721
16.3430 9.831
16.3582 9.725
16.3733 9.900
16.3885 9.834
16.4037 9.911
16.4189 10.086
16.4340 9.836
16.4492 9.817
16.4644 9.651
16.4796 9.762
16.4947 9.822
16.5099 9.788
16.5251 9.721
16.5403 9.607
16.5554 9.694
16.5706 9.724
16.5858 9.818
16.6010 9.679
16.6161 9.704
16.6313 9.680
16.6465 9.991
16.6617 9.687
16.6768 9.704
16.6920 9.902
16.7072 9.978
16.7224 9.793
16.7375 9.856
16.7527 9.943
16.7679 9.898
16.7831 9.944
16.7982 9.954
16.8134 9.884
16.8286 9.952
16.8438 9.856
16.8589 9.919
16.8741 9.948
16.8893 9.964
16.9045 9.825
16.9196 9.881
16.9348 9.798
16.9500 9.746
16.9652 9.894
16.9803 9.715
16.9955 9.720
17.0107 9.949
17.0259 9.853
17.0410 10.027
17.0562 10.287
17.0714 10.232
17.0866 10.340
17.1017 10.512
17.1169 10.798
17.1321 11.027
17.1473 11.244
17.1624 11.787
17.1776 12.213
17.1928 12.899
17.2080 14.001
17.2231 15.050
17.2383 16.217
17.2535 17.642
17.2687 18.559
17.2838 18.792
17.2990 18.087
17.3142 16.977
17.3294 16.226
17.3445 16.111
17.3597 16.128
17.3749 16.027
17.3901 15.511
17.4052 14.359
17.4204 13.356
17.4356 12.734
17.4508 12.268
17.4659 11.793
17.4811 11.723
17.4963 11.583
17.5115 11.289
17.5266 11.313
17.5418 11.272
17.5570 10.943
17.5722 10.890
17.5873 11.162
17.6025 11.292
17.6177 11.147
17.6329 11.326
17.6480 11.255
17.6632 11.049
17.6784 11.303
17.6936 11.530
17.7087 11.719
17.7239 11.284
17.7391 10.981
17.7543 10.888
17.7694 10.787
17.7846 10.984
17.7998 10.858
17.8150 10.538
17.8301 10.539
17.8453 10.294
17.8605 10.266
17.8757 10.339
17.8908 10.296
17.9060 10.275
17.9212 10.266
17.9364 10.036
17.9515 9.945
17.9667 10.271
17.9819 10.210
17.9971 10.111
18.0122 10.080
18.0274 9.870
18.0426 9.933
18.0578 9.894
18.0729 10.094
18.0881 10.312
18.1033 9.910
18.1185 10.013
18.1336 10.202
18.1488 9.978
18.1640 9.941
18.1792 9.977
18.1943 9.982
18.2095 9.814
18.2247 9.868
18.2399 10.022
18.2550 9.953
18.2702 9.861
18.2854 9.784
18.3006 9.975
18.3157 10.175
18.3309 10.035
18.3461 9.758
18.3613 9.975
18.3764 9.991
18.3916 9.743
18.4068 9.677
18.4220 9.804
18.4371 9.745
18.4523 9.863
18.4675 9.835
18.4827 9.806
18.4978 9.766
18.5130 9.776
18.5282 9.781
18.5434 9.829
18.5585 9.662
18.5737 9.697
18.5889 9.675
18.6041 9.749
18.6192 9.607
18.6344 9.765
18.6496 9.921
18.6648 9.853
18.6799 9.763
18.6951 9.955
18.7103 10.081
18.7255 9.765
18.7406 9.496
18.7558 9.690
18.7710 9.688
18.7862 9.652
18.8013 9.447
18.8165 9.736
18.8317 9.864
18.8469 9.675
18.8620 9.964
18.8772 9.948
18.8924 9.991
18.9076 10.179
18.9227 10.076
18.9379 9.842
18.9531 9.864
18.9683 9.868
18.9834 9.980
18.9986 9.983
19.0138 10.088
19.0290 10.249
19.0441 10.272
19.0593 10.371
19.0745 10.109
19.0897 10.279
19.1048 10.403
19.1200 10.258
19.1352 10.336
19.1504 10.317
19.1655 10.509
19.1807 10.486
19.1959 10.590
19.2111 10.791
19.2262 10.682
19.2414 10.796
19.2566 10.754
19.2718 10.675
19.2869 10.853
19.3021 11.053
19.3173 11.201
19.3325 11.165
19.3476 10.971
19.3628 10.934
19.3780 11.069
19.3932 11.167
19.4083 11.143
19.4235 11.223
19.4387 11.254
19.4539 11.227
19.4690 11.245
19.4842 11.232
19.4994 11.390
19.5146 11.312
19.5297 11.516
19.5449 11.764
19.5601 11.527
19.5753 11.432
19.5904 11.574
19.6056 11.500
19.6208 11.403
19.6360 11.526
19.6511 11.725
19.6663 11.754
19.6815 11.646
19.6967 11.828
19.7118 11.731
19.7270 11.708
19.7422 11.894
19.7574 11.943
19.7725 11.848
19.7877 11.721
19.8029 11.926
19.8180 12.147
19.8332 12.331
19.8484 12.291
19.8636 12.256
19.8787 12.430
19.8939 12.708
19.9091 13.133
19.9243 13.370
19.9394 13.460
19.9546 13.969
19.9698 14.486
19.9850 14.681
20.0001 14.552
20.0153 14.395
20.0305 14.245
20.0457 13.927
20.0608 13.969
20.0760 13.631
20.0912 13.655
20.1064 13.633
20.1215 13.372
20.1367 13.361
20.1519 13.272
20.1671 13.077
20.1822 12.887
20.1974 12.713
20.2126 12.877
20.2278 12.879
20.2429 12.470
20.2581 12.355
20.2733 12.109
20.2885 11.731
20.3036 11.626
20.3188 11.918
20.3340 11.925
20.3492 11.913
20.3643 11.939
20.3795 12.199
20.3947 11.851
20.4099 11.958
20.4250 12.013
20.4402 11.744
20.4554 11.887
20.4706 11.982
20.4857 11.731
20.5009 11.758
20.5161 11.710
20.5313 11.580
20.5464 11.464
20.5616 11.205
20.5768 11.241
20.5920 10.896
20.6071 11.105
20.6223 11.028
20.6375 11.100
20.6527 10.976
20.6678 10.769
20.6830 10.374
20.6982 10.394
20.7134 10.518
20.7285 10.486
20.7437 10.376
20.7589 10.376
20.7741 10.475
20.7892 10.419
20.8044 10.363
20.8196 10.103
20.8348 10.368
20.8499 10.327
20.8651 10.399
20.8803 10.292
20.8955 10.334
20.9106 10.212
20.9258 10.209
20.9410 10.214
20.9562 9.971
20.9713 10.028
20.9865 10.056
21.0017 10.148
21.0169 9.817
21.0320 10.373
21.0472 9.834
21.0624 10.008
21.0776 9.851
21.0927 9.958
21.1079 9.747
21.1231 9.899
21.1383 9.707
21.1534 10.065
21.1686 10.028
21.1838 9.861
21.1990 9.805
21.2141 9.706
21.2293 9.584
21.2445 9.858
21.2597 9.915
21.2748 9.539
21.2900 9.450
21.3052 9.443
21.3204 9.259
21.3355 9.601
21.3507 9.625
21.3659 9.772
21.3811 9.587
21.3962 9.118
21.4114 9.349
21.4266 9.381
21.4418 9.416
21.4569 9.862
21.4721 9.493
21.4873 9.447
21.5025 9.409
21.5176 9.328
21.5328 9.497
21.5480 9.634
21.5632 9.270
21.5783 9.106
21.5935 9.159
21.6087 9.216
21.6239 9.190
21.6390 9.342
21.6542 9.267
21.6694 9.184
21.6846 8.955
21.6997 9.049
21.7149 9.122
21.7301 9.082
21.7453 9.067
21.7604 8.985
21.7756 9.171
21.7908 9.037
21.8060 9.051
21.8211 9.201
21.8363 9.070
21.8515 8.993
21.8667 9.088
21.8818 9.111
21.8970 9.120
21.9122 9.149
21.9274 8.981
21.9425 8.907
21.9577 8.978
21.9729 8.969
21.9881 8.800
22.0032 8.871
22.0184 8.990
22.0336 8.893
22.0488 8.781
22.0639 8.736
22.0791 8.668
22.0943 8.667
22.1095 8.659
22.1246 8.630
22.1398 8.509
22.1550 8.667
22.1702 8.869
22.1853 8.791
22.2005 8.734
22.2157 8.705
22.2309 8.601
22.2460 8.698
22.2612 8.345
22.2764 8.479
22.2916 8.542
22.3067 8.532
22.3219 8.469
22.3371 8.420
22.3523 8.312
22.3674 8.262
22.3826 8.628
22.3978 8.412
22.4130 8.398
22.4281 8.399
22.4433 8.568
22.4585 8.149
22.4737 8.219
22.4888 8.160
22.5040 8.466
22.5192 8.788
22.5344 8.510
22.5495 8.541
22.5647 8.673
22.5799 8.133
22.5951 8.392
22.6102 8.376
22.6254 8.124
22.6406 8.517
22.6558 8.681
22.6709 8.215
22.6861 8.515
22.7013 8.377
22.7165 8.013
22.7316 6.536
