'Id: "" Comment: "" Operator: "Lab Manager" Anode: "Mo" Scantype: "Still (Eiger2R_500K (1D mode))" TimePerStep: "300" X: "11.8" Y: "9.4" Z: "11.284" 
7.2532 18.730
7.2684 18.955
7.2836 19.092
7.2987 19.535
7.3139 19.079
7.3291 19.543
7.3443 19.134
7.3594 19.397
7.3746 19.139
7.3898 19.108
7.4050 19.390
7.4201 19.199
7.4353 19.349
7.4505 19.333
7.4657 19.751
7.4808 19.651
7.4960 19.570
7.5112 19.681
7.5264 20.253
7.5415 19.650
7.5567 19.655
7.5719 19.631
7.5871 19.865
7.6022 19.964
7.6174 19.915
7.6326 19.949
7.6478 20.226
7.6629 20.296
7.6781 20.269
7.6933 20.558
7.7085 20.698
7.7236 20.518
7.7388 20.635
7.7540 20.739
7.7692 20.588
7.7843 20.509
7.7995 20.948
7.8147 20.852
7.8299 20.698
7.8450 20.923
7.8602 21.049
7.8754 20.913
7.8905 20.922
7.9057 21.200
7.9209 21.313
7.9361 21.071
7.9512 21.133
7.9664 21.256
7.9816 21.130
7.9968 21.441
8.0119 21.490
8.0271 21.342
8.0423 21.482
8.0575 21.487
8.0726 21.316
8.0878 21.872
8.1030 21.455
8.1182 21.486
8.1333 21.365
8.1485 21.254
8.1637 21.402
8.1789 21.349
8.1940 21.617
8.2092 21.895
8.2244 21.738
8.2396 21.978
8.2547 21.997
8.2699 22.269
8.2851 21.717
8.3003 21.790
8.3154 22.236
8.3306 21.699
8.3458 21.959
8.3610 22.182
8.3761 22.090
8.3913 21.565
8.4065 22.015
8.4217 22.157
8.4368 21.979
8.4520 22.007
8.4672 22.703
8.4824 22.382
8.4975 21.979
8.5127 22.239
8.5279 21.860
8.5431 22.198
8.5582 22.583
8.5734 22.144
8.5886 22.529
8.6038 22.515
8.6189 22.384
8.6341 22.049
8.6493 22.479
8.6645 22.632
8.6796 22.235
8.6948 22.397
8.7100 23.061
8.7252 22.766
8.7403 22.961
8.7555 23.009
8.7707 22.711
8.7859 22.676
8.8010 22.730
8.8162 22.890
8.8314 22.799
8.8466 22.210
8.8617 22.520
8.8769 22.639
8.8921 22.477
8.9073 22.546
8.9224 22.849
8.9376 22.884
8.9528 22.522
8.9680 22.611
8.9831 22.752
8.9983 22.943
9.0135 22.746
9.0287 22.653
9.0438 22.842
9.0590 23.125
9.0742 23.211
9.0894 23.139
9.1045 22.870
9.1197 23.224
9.1349 23.264
9.1501 22.867
9.1652 23.050
9.1804 23.092
9.1956 23.293
9.2108 23.348
9.2259 23.208
9.2411 23.187
9.2563 23.301
9.2715 23.260
9.2866 22.955
9.3018 23.145
9.3170 22.966
9.3322 23.021
9.3473 23.165
9.3625 23.196
9.3777 23.446
9.3929 23.157
9.4080 23.302
9.4232 23.331
9.4384 23.174
9.4536 23.052
9.4687 23.343
9.4839 23.315
9.4991 23.447
9.5143 23.532
9.5294 23.368
9.5446 23.141
9.5598 22.995
9.5750 23.098
9.5901 23.450
9.6053 23.534
9.6205 23.439
9.6357 23.509
9.6508 23.352
9.6660 23.142
9.6812 23.562
9.6964 23.910
9.7115 23.899
9.7267 23.976
9.7419 23.840
9.7571 23.995
9.7722 24.005
9.7874 24.013
9.8026 23.677
9.8178 23.491
9.8329 23.758
9.8481 23.485
9.8633 23.372
9.8785 23.527
9.8936 23.574
9.9088 23.466
9.9240 23.303
9.9392 23.573
9.9543 23.593
9.9695 23.494
9.9847 23.597
9.9999 23.686
10.0150 23.931
10.0302 24.034
10.0454 23.989
10.0606 23.957
10.0757 23.901
10.0909 23.911
10.1061 24.016
10.1213 24.088
10.1364 24.140
10.1516 24.157
10.1668 24.209
10.1820 24.462
10.1971 24.237
10.2123 24.172
10.2275 24.319
10.2427 24.218
10.2578 24.178
10.2730 24.258
10.2882 23.966
10.3034 23.967
10.3185 23.552
10.3337 23.433
10.3489 23.096
10.3641 22.969
10.3792 22.930
10.3944 22.936
10.4096 23.320
10.4248 23.093
10.4399 23.149
10.4551 22.881
10.4703 22.797
10.4855 22.904
10.5006 22.939
10.5158 22.905
10.5310 22.676
10.5462 22.671
10.5613 22.745
10.5765 22.649
10.5917 22.680
10.6069 22.779
10.6220 22.920
10.6372 23.033
10.6524 23.129
10.6676 23.080
10.6827 22.687
10.6979 22.692
10.7131 22.511
10.7283 22.615
10.7434 22.657
10.7586 22.538
10.7738 22.703
10.7890 22.687
10.8041 22.485
10.8193 22.363
10.8345 22.686
10.8497 22.724
10.8648 22.813
10.8800 22.643
10.8952 22.300
10.9104 22.277
10.9255 22.020
10.9407 22.027
10.9559 22.195
10.9711 21.631
10.9862 21.921
11.0014 22.031
11.0166 22.151
11.0318 21.988
11.0469 21.450
11.0621 21.858
11.0773 22.179
11.0925 22.106
11.1076 22.020
11.1228 22.206
11.1380 22.187
11.1532 22.276
11.1683 22.151
11.1835 22.085
11.1987 22.193
11.2139 22.069
11.2290 21.914
11.2442 22.240
11.2594 21.924
11.2746 22.096
11.2897 22.299
11.3049 22.110
11.3201 21.777
11.3353 21.904
11.3504 21.817
11.3656 21.499
11.3808 21.877
11.3960 21.717
11.4111 21.549
11.4263 21.328
11.4415 21.340
11.4567 21.015
11.4718 20.870
11.4870 21.373
11.5022 21.202
11.5174 21.295
11.5325 21.618
11.5477 21.299
11.5629 21.275
11.5781 20.815
11.5932 20.524
11.6084 20.793
11.6236 20.888
11.6388 21.081
11.6539 20.680
11.6691 20.790
11.6843 20.693
11.6995 20.430
11.7146 20.323
11.7298 20.386
11.7450 20.211
11.7602 20.203
11.7753 20.170
11.7905 20.083
11.8057 20.007
11.8209 20.048
11.8360 20.028
11.8512 20.071
11.8664 20.076
11.8816 19.867
11.8967 19.473
11.9119 19.464
11.9271 19.680
11.9423 19.761
11.9574 19.473
11.9726 19.546
11.9878 19.461
12.0030 19.237
12.0181 19.176
12.0333 19.069
12.0485 18.989
12.0637 18.807
12.0788 18.556
12.0940 18.535
12.1092 18.788
12.1244 18.594
12.1395 18.704
12.1547 18.402
12.1699 18.375
12.1851 18.410
12.2002 18.245
12.2154 18.388
12.2306 18.113
12.2458 18.152
12.2609 18.276
12.2761 17.892
12.2913 17.944
12.3065 17.925
12.3216 17.823
12.3368 17.654
12.3520 17.482
12.3672 17.562
12.3823 17.696
12.3975 17.161
12.4127 16.984
12.4279 17.159
12.4430 16.999
12.4582 16.889
12.4734 17.217
12.4886 17.236
12.5037 17.118
12.5189 16.602
12.5341 16.434
12.5493 16.410
12.5644 16.328
12.5796 16.446
12.5948 16.537
12.6100 16.407
12.6251 16.048
12.6403 15.861
12.6555 15.921
12.6707 15.823
12.6858 15.830
12.7010 15.670
12.7162 15.582
12.7314 15.489
12.7465 15.299
12.7617 15.207
12.7769 14.992
12.7921 14.929
12.8072 15.101
12.8224 15.052
12.8376 15.139
12.8528 15.037
12.8679 14.518
12.8831 14.576
12.8983 14.829
12.9135 14.785
12.9286 14.626
12.9438 14.841
12.9590 14.693
12.9742 14.343
12.9893 14.410
13.0045 14.510
13.0197 14.288
13.0349 14.193
13.0500 14.285
13.0652 14.235
13.0804 14.049
13.0956 13.773
13.1107 13.739
13.1259 13.720
13.1411 13.708
13.1563 13.932
13.1714 13.675
13.1866 13.384
13.2018 13.556
13.2170 13.517
13.2321 13.459
13.2473 13.485
13.2625 13.432
13.2777 13.220
13.2928 13.228
13.3080 13.181
13.3232 13.056
13.3384 13.343
13.3535 13.169
13.3687 13.040
13.3839 13.202
13.3991 12.884
13.4142 12.808
13.4294 12.939
13.4446 12.920
13.4598 12.823
13.4749 12.563
13.4901 12.525
13.5053 12.526
13.5205 12.216
13.5356 11.988
13.5508 12.068
13.5660 12.178
13.5812 12.223
13.5963 12.217
13.6115 12.370
13.6267 12.249
13.6419 12.168
13.6570 12.028
13.6722 12.014
13.6874 12.058
13.7026 11.871
13.7177 11.996
13.7329 12.069
13.7481 11.741
13.7633 12.033
13.7784 12.198
13.7936 11.890
13.8088 11.992
13.8239 11.977
13.8391 12.124
13.8543 12.337
13.8695 12.402
13.8846 12.168
13.8998 12.071
13.9150 12.257
13.9302 12.101
13.9453 12.181
13.9605 11.967
13.9757 11.527
13.9909 11.432
14.0060 11.629
14.0212 11.728
14.0364 11.764
14.0516 11.570
14.0667 11.597
14.0819 11.472
14.0971 11.245
14.1123 11.413
14.1274 11.265
14.1426 11.332
14.1578 11.157
14.1730 11.290
14.1881 11.443
14.2033 11.582
14.2185 11.859
14.2337 11.908
14.2488 11.903
14.2640 11.940
14.2792 12.062
14.2944 11.935
14.3095 12.493
14.3247 12.347
14.3399 12.245
14.3551 12.755
14.3702 12.849
14.3854 13.161
14.4006 13.026
14.4158 13.094
14.4309 13.319
14.4461 13.099
14.4613 12.972
14.4765 13.009
14.4916 12.917
14.5068 13.061
14.5220 12.563
14.5372 12.555
14.5523 12.591
14.5675 12.407
14.5827 12.021
14.5979 11.918
14.6130 11.754
14.6282 11.940
14.6434 11.958
14.6586 11.470
14.6737 11.695
14.6889 11.463
14.7041 11.280
14.7193 11.161
14.7344 11.127
14.7496 11.281
14.7648 10.976
14.7800 11.004
14.7951 10.777
14.8103 10.857
14.8255 10.471
14.8407 10.723
14.8558 10.470
14.8710 10.583
14.8862 10.696
14.9014 10.790
14.9165 10.798
14.9317 11.269
14.9469 10.597
14.9621 10.493
14.9772 10.378
14.9924 10.852
15.0076 10.589
15.0228 10.703
15.0379 10.502
15.0531 10.516
15.0683 10.426
15.0835 10.454
15.0986 10.709
15.1138 10.630
15.1290 10.639
15.1442 10.519
15.1593 10.540
15.1745 10.826
15.1897 10.328
15.2049 10.446
15.2200 10.721
15.2352 10.556
15.2504 10.369
15.2656 10.670
15.2807 10.552
15.2959 10.570
15.3111 10.329
15.3263 10.301
15.3414 10.416
15.3566 10.363
15.3718 10.382
15.3870 10.281
15.4021 10.372
15.4173 10.738
15.4325 10.702
15.4477 10.770
15.4628 10.682
15.4780 10.605
15.4932 10.455
15.5084 10.694
15.5235 10.859
15.5387 10.668
15.5539 10.393
15.5691 10.354
15.5842 10.161
15.5994 10.189
15.6146 10.045
15.6298 10.245
15.6449 10.075
15.6601 10.079
15.6753 10.164
15.6905 9.986
15.7056 9.953
15.7208 10.055
15.7360 9.797
15.7512 9.729
15.7663 9.762
15.7815 9.994
15.7967 10.114
15.8119 9.971
15.8270 10.190
15.8422 9.935
15.8574 10.027
15.8726 9.852
15.8877 9.654
15.9029 9.629
15.9181 9.852
15.9333 9.892
15.9484 9.487
15.9636 9.953
15.9788 10.089
15.9940 10.013
16.0091 10.073
16.0243 9.765
16.0395 9.708
16.0547 9.476
16.0698 9.687
16.0850 9.592
16.1002 9.661
16.1154 9.445
16.1305 9.525
16.1457 9.693
16.1609 9.780
16.1761 9.753
16.1912 9.959
16.2064 9.986
16.2216 10.182
16.2368 9.825
16.2519 9.965
16.2671 10.068
16.2823 10.005
16.2975 10.065
16.3126 10.225
16.3278 10.122
16.3430 10.108
16.3582 9.937
16.3733 10.030
16.3885 10.142
16.4037 10.077
16.4189 10.205
16.4340 10.068
16.4492 10.067
16.4644 9.986
16.4796 9.985
16.4947 9.887
16.5099 9.740
16.5251 9.856
16.5403 9.856
16.5554 9.956
16.5706 9.752
16.5858 9.700
16.6010 9.660
16.6161 9.785
16.6313 9.695
16.6465 9.747
16.6617 9.842
16.6768 9.839
16.6920 9.923
16.7072 10.010
16.7224 10.166
16.7375 10.018
16.7527 9.840
16.7679 9.900
16.7831 9.896
16.7982 10.041
16.8134 10.295
16.8286 10.132
16.8438 9.922
16.8589 9.818
16.8741 9.717
16.8893 9.828
16.9045 9.812
16.9196 9.895
16.9348 9.934
16.9500 9.892
16.9652 9.873
16.9803 9.765
16.9955 9.849
17.0107 9.902
17.0259 9.787
17.0410 9.952
17.0562 10.015
17.0714 10.264
17.0866 10.586
17.1017 10.700
17.1169 10.631
17.1321 10.782
17.1473 11.196
17.1624 11.736
17.1776 12.281
17.1928 13.160
17.2080 14.102
17.2231 15.025
17.2383 16.301
17.2535 17.351
17.2687 18.125
17.2838 18.566
17.2990 17.911
17.3142 16.922
17.3294 16.375
17.3445 15.968
17.3597 15.845
17.3749 15.840
17.3901 15.370
17.4052 14.404
17.4204 13.187
17.4356 12.434
17.4508 12.049
17.4659 11.636
17.4811 11.524
17.4963 11.417
17.5115 11.383
17.5266 11.368
17.5418 11.462
17.5570 11.541
17.5722 11.732
17.5873 11.647
17.6025 11.356
17.6177 11.496
17.6329 11.482
17.6480 11.405
17.6632 11.026
17.6784 10.903
17.6936 11.083
17.7087 11.100
17.7239 10.852
17.7391 10.660
17.7543 10.859
17.7694 10.965
17.7846 10.923
17.7998 11.191
17.8150 11.392
17.8301 11.379
17.8453 11.328
17.8605 11.275
17.8757 11.316
17.8908 11.459
17.9060 11.427
17.9212 11.427
17.9364 11.303
17.9515 11.094
17.9667 11.116
17.9819 10.956
17.9971 10.704
18.0122 10.607
18.0274 10.584
18.0426 10.547
18.0578 10.367
18.0729 10.202
18.0881 10.104
18.1033 10.013
18.1185 9.977
18.1336 10.215
18.1488 10.113
18.1640 9.939
18.1792 10.039
18.1943 9.992
18.2095 9.911
18.2247 9.961
18.2399 9.947
18.2550 9.942
18.2702 9.819
18.2854 9.861
18.3006 9.847
18.3157 9.915
18.3309 10.005
18.3461 9.871
18.3613 9.790
18.3764 9.774
18.3916 9.797
18.4068 10.014
18.4220 9.765
18.4371 9.769
18.4523 9.859
18.4675 9.853
18.4827 9.820
18.4978 9.837
18.5130 9.805
18.5282 9.746
18.5434 9.533
18.5585 9.660
18.5737 9.732
18.5889 9.650
18.6041 9.858
18.6192 9.958
18.6344 9.935
18.6496 9.873
18.6648 9.944
18.6799 10.050
18.6951 9.895
18.7103 9.923
18.7255 9.721
18.7406 9.824
18.7558 9.863
18.7710 9.855
18.7862 9.791
18.8013 9.725
18.8165 9.685
18.8317 9.678
18.8469 9.956
18.8620 10.051
18.8772 10.079
18.8924 9.995
18.9076 10.016
18.9227 10.137
18.9379 10.157
18.9531 9.840
18.9683 9.847
18.9834 10.235
18.9986 10.145
19.0138 10.199
19.0290 10.220
19.0441 10.332
19.0593 10.464
19.0745 10.452
19.0897 10.304
19.1048 10.113
19.1200 10.087
19.1352 10.500
19.1504 10.663
19.1655 10.594
19.1807 10.626
19.1959 10.384
19.2111 10.256
19.2262 10.495
19.2414 10.793
19.2566 10.915
19.2718 10.820
19.2869 10.848
19.3021 10.860
19.3173 10.825
19.3325 10.860
19.3476 10.950
19.3628 11.249
19.3780 11.488
19.3932 11.299
19.4083 11.260
19.4235 11.211
19.4387 11.147
19.4539 11.265
19.4690 11.430
19.4842 11.439
19.4994 11.224
19.5146 11.315
19.5297 11.533
19.5449 11.623
19.5601 11.660
19.5753 11.485
19.5904 11.534
19.6056 11.539
19.6208 11.623
19.6360 11.514
19.6511 11.416
19.6663 11.828
19.6815 11.832
19.6967 11.619
19.7118 11.455
19.7270 11.563
19.7422 11.792
19.7574 11.709
19.7725 11.765
19.7877 12.019
19.8029 11.945
19.8180 11.845
19.8332 11.971
19.8484 12.055
19.8636 12.121
19.8787 12.367
19.8939 12.682
19.9091 13.084
19.9243 13.314
19.9394 13.460
19.9546 13.663
19.9698 13.968
19.9850 14.249
20.0001 14.215
20.0153 13.907
20.0305 13.672
20.0457 13.577
20.0608 13.606
20.0760 13.926
20.0912 13.876
20.1064 13.715
20.1215 13.467
20.1367 13.200
20.1519 13.206
20.1671 13.283
20.1822 13.175
20.1974 12.965
20.2126 12.899
20.2278 12.917
20.2429 12.865
20.2581 12.526
20.2733 12.434
20.2885 12.076
20.3036 11.738
20.3188 11.787
20.3340 11.790
20.3492 11.766
20.3643 11.846
20.3795 11.756
20.3947 11.190
20.4099 11.297
20.4250 11.160
20.4402 11.240
20.4554 11.217
20.4706 11.109
20.4857 10.983
20.5009 10.923
20.5161 10.768
20.5313 10.972
20.5464 10.891
20.5616 11.031
20.5768 10.998
20.5920 10.996
20.6071 10.983
20.6223 11.294
20.6375 11.244
20.6527 10.954
20.6678 10.866
20.6830 10.979
20.6982 11.257
20.7134 11.109
20.7285 10.821
20.7437 10.783
20.7589 10.590
20.7741 10.747
20.7892 10.602
20.8044 10.511
20.8196 10.234
20.8348 10.448
20.8499 10.587
20.8651 10.554
20.8803 10.164
20.8955 10.427
20.9106 10.197
20.9258 10.232
20.9410 10.349
20.9562 10.242
20.9713 10.223
20.9865 10.161
21.0017 10.116
21.0169 10.086
21.0320 9.996
21.0472 9.976
21.0624 9.691
21.0776 10.052
21.0927 9.966
21.1079 9.851
21.1231 10.087
21.1383 9.799
21.1534 9.642
21.1686 9.323
21.1838 9.855
21.1990 9.840
21.2141 10.033
21.2293 9.753
21.2445 9.502
21.2597 9.998
21.2748 9.611
21.2900 9.421
21.3052 9.459
21.3204 9.569
21.3355 9.472
21.3507 9.629
21.3659 9.336
21.3811 9.656
21.3962 9.769
21.4114 9.409
21.4266 9.394
21.4418 9.496
21.4569 9.419
21.4721 9.586
21.4873 9.174
21.5025 9.135
21.5176 9.250
21.5328 9.544
21.5480 9.446
21.5632 9.205
21.5783 9.165
21.5935 9.114
21.6087 9.352
21.6239 9.147
21.6390 9.085
21.6542 9.222
21.6694 9.193
21.6846 9.243
21.6997 9.174
21.7149 9.070
21.7301 9.064
21.7453 9.120
21.7604 9.178
21.7756 8.783
21.7908 8.898
21.8060 9.028
21.8211 9.069
21.8363 9.172
21.8515 9.065
21.8667 9.057
21.8818 9.131
21.8970 9.013
21.9122 9.117
21.9274 9.185
21.9425 8.939
21.9577 8.792
21.9729 8.814
21.9881 8.906
22.0032 8.887
22.0184 8.907
22.0336 8.875
22.0488 8.765
22.0639 8.693
22.0791 8.843
22.0943 8.854
22.1095 8.700
22.1246 8.555
22.1398 8.644
22.1550 8.685
22.1702 8.611
22.1853 8.851
22.2005 8.785
22.2157 8.604
22.2309 8.747
22.2460 8.971
22.2612 9.016
22.2764 8.958
22.2916 8.847
22.3067 8.583
22.3219 8.445
22.3371 8.476
22.3523 8.482
22.3674 8.507
22.3826 8.403
22.3978 8.701
22.4130 8.479
22.4281 8.454
22.4433 8.596
22.4585 8.427
22.4737 8.642
22.4888 8.426
22.5040 8.360
22.5192 8.501
22.5344 8.177
22.5495 8.533
22.5647 8.360
22.5799 8.493
22.5951 8.383
22.6102 8.539
22.6254 8.504
22.6406 8.417
22.6558 8.533
22.6709 8.535
22.6861 8.471
22.7013 8.336
22.7165 8.054
22.7316 6.589
