'Id: "" Comment: "" Operator: "Lab Manager" Anode: "Mo" Scantype: "Still (Eiger2R_500K (1D mode))" TimePerStep: "300" X: "11.8" Y: "9.4" Z: "11.284" 
7.2532 18.821
7.2684 18.739
7.2836 18.903
7.2987 18.951
7.3139 18.811
7.3291 19.432
7.3443 19.355
7.3594 19.432
7.3746 19.232
7.3898 19.538
7.4050 19.796
7.4201 19.447
7.4353 19.335
7.4505 19.519
7.4657 19.288
7.4808 19.594
7.4960 19.970
7.5112 19.360
7.5264 19.173
7.5415 19.492
7.5567 19.797
7.5719 19.615
7.5871 19.916
7.6022 20.345
7.6174 19.837
7.6326 19.598
7.6478 20.013
7.6629 20.049
7.6781 20.383
7.6933 20.483
7.7085 20.432
7.7236 20.532
7.7388 20.197
7.7540 20.248
7.7692 20.416
7.7843 20.675
7.7995 20.845
7.8147 20.394
7.8299 20.152
7.8450 20.623
7.8602 20.926
7.8754 20.836
7.8905 20.802
7.9057 20.915
7.9209 21.074
7.9361 20.858
7.9512 20.768
7.9664 20.903
7.9816 21.044
7.9968 20.999
8.0119 21.320
8.0271 21.529
8.0423 21.131
8.0575 21.375
8.0726 21.367
8.0878 21.222
8.1030 21.039
8.1182 21.219
8.1333 21.085
8.1485 21.488
8.1637 21.332
8.1789 21.247
8.1940 21.292
8.2092 21.300
8.2244 21.388
8.2396 21.526
8.2547 21.324
8.2699 21.796
8.2851 21.731
8.3003 21.622
8.3154 21.642
8.3306 21.528
8.3458 21.921
8.3610 21.841
8.3761 21.663
8.3913 21.531
8.4065 21.713
8.4217 22.250
8.4368 22.086
8.4520 22.225
8.4672 22.179
8.4824 21.898
8.4975 22.206
8.5127 22.472
8.5279 22.151
8.5431 21.998
8.5582 21.540
8.5734 22.289
8.5886 22.080
8.6038 22.522
8.6189 22.674
8.6341 22.484
8.6493 21.880
8.6645 22.123
8.6796 22.656
8.6948 21.959
8.7100 22.245
8.7252 22.620
8.7403 22.527
8.7555 22.374
8.7707 22.161
8.7859 22.698
8.8010 22.631
8.8162 22.590
8.8314 22.841
8.8466 22.537
8.8617 22.512
8.8769 22.465
8.8921 22.367
8.9073 22.537
8.9224 22.815
8.9376 22.816
8.9528 22.046
8.9680 22.428
8.9831 22.991
8.9983 22.593
9.0135 22.896
9.0287 22.698
9.0438 22.779
9.0590 22.833
9.0742 22.598
9.0894 22.857
9.1045 23.092
9.1197 23.159
9.1349 23.061
9.1501 22.965
9.1652 23.108
9.1804 23.128
9.1956 23.100
9.2108 23.153
9.2259 23.050
9.2411 22.883
9.2563 22.795
9.2715 22.723
9.2866 22.619
9.3018 22.768
9.3170 22.785
9.3322 23.229
9.3473 22.730
9.3625 22.959
9.3777 23.413
9.3929 22.913
9.4080 23.006
9.4232 23.002
9.4384 23.052
9.4536 23.514
9.4687 23.603
9.4839 23.258
9.4991 23.124
9.5143 23.178
9.5294 23.137
9.5446 23.160
9.5598 23.073
9.5750 23.072
9.5901 23.372
9.6053 23.867
9.6205 23.765
9.6357 23.196
9.6508 23.481
9.6660 23.764
9.6812 23.751
9.6964 23.918
9.7115 24.106
9.7267 24.082
9.7419 24.107
9.7571 23.755
9.7722 23.597
9.7874 23.887
9.8026 23.994
9.8178 23.861
9.8329 23.549
9.8481 23.306
9.8633 23.542
9.8785 23.411
9.8936 23.223
9.9088 23.141
9.9240 23.036
9.9392 23.268
9.9543 23.253
9.9695 23.194
9.9847 23.096
9.9999 23.048
10.0150 23.044
10.0302 23.086
10.0454 23.141
10.0606 23.093
10.0757 23.095
10.0909 23.445
10.1061 23.613
10.1213 23.634
10.1364 23.757
10.1516 23.610
10.1668 23.504
10.1820 23.680
10.1971 23.314
10.2123 23.299
10.2275 22.948
10.2427 23.046
10.2578 23.148
10.2730 22.854
10.2882 22.642
10.3034 22.596
10.3185 22.586
10.3337 22.852
10.3489 22.847
10.3641 23.141
10.3792 23.151
10.3944 22.769
10.4096 22.504
10.4248 22.786
10.4399 23.000
10.4551 22.778
10.4703 22.789
10.4855 22.650
10.5006 22.556
10.5158 22.443
10.5310 22.903
10.5462 22.538
10.5613 22.583
10.5765 22.701
10.5917 22.851
10.6069 22.603
10.6220 22.412
10.6372 22.651
10.6524 22.849
10.6676 22.915
10.6827 23.074
10.6979 22.846
10.7131 22.550
10.7283 22.637
10.7434 22.776
10.7586 22.489
10.7738 22.111
10.7890 22.070
10.8041 22.329
10.8193 22.531
10.8345 22.406
10.8497 22.583
10.8648 22.454
10.8800 22.530
10.8952 21.864
10.9104 21.906
10.9255 21.734
10.9407 22.110
10.9559 21.931
10.9711 22.103
10.9862 22.294
11.0014 22.115
11.0166 22.118
11.0318 21.928
11.0469 21.722
11.0621 21.740
11.0773 21.693
11.0925 21.879
11.1076 21.802
11.1228 21.596
11.1380 21.655
11.1532 21.995
11.1683 21.736
11.1835 21.432
11.1987 21.558
11.2139 21.999
11.2290 21.904
11.2442 21.873
11.2594 21.944
11.2746 21.870
11.2897 21.506
11.3049 21.411
11.3201 21.139
11.3353 21.417
11.3504 21.622
11.3656 21.820
11.3808 21.540
11.3960 21.686
11.4111 21.403
11.4263 21.355
11.4415 21.584
11.4567 21.263
11.4718 21.421
11.4870 21.205
11.5022 21.081
11.5174 21.070
11.5325 21.191
11.5477 20.846
11.5629 20.895
11.5781 20.980
11.5932 21.024
11.6084 20.978
11.6236 21.071
11.6388 20.989
11.6539 20.449
11.6691 20.393
11.6843 20.463
11.6995 20.234
11.7146 20.442
11.7298 20.700
11.7450 20.424
11.7602 20.174
11.7753 20.619
11.7905 20.533
11.8057 19.990
11.8209 20.024
11.8360 19.878
11.8512 19.693
11.8664 20.003
11.8816 19.702
11.8967 19.778
11.9119 19.786
11.9271 19.717
11.9423 19.779
11.9574 19.155
11.9726 19.228
11.9878 19.475
12.0030 19.221
12.0181 19.234
12.0333 19.297
12.0485 19.318
12.0637 18.814
12.0788 18.733
12.0940 18.608
12.1092 18.583
12.1244 19.000
12.1395 18.881
12.1547 18.672
12.1699 18.586
12.1851 18.612
12.2002 18.659
12.2154 18.512
12.2306 18.410
12.2458 18.189
12.2609 17.773
12.2761 17.961
12.2913 17.937
12.3065 17.791
12.3216 17.557
12.3368 17.347
12.3520 17.428
12.3672 17.289
12.3823 17.436
12.3975 17.324
12.4127 17.184
12.4279 17.022
12.4430 17.008
12.4582 17.084
12.4734 16.914
12.4886 16.843
12.5037 16.594
12.5189 16.321
12.5341 16.484
12.5493 16.777
12.5644 16.677
12.5796 16.553
12.5948 16.381
12.6100 16.404
12.6251 16.436
12.6403 16.014
12.6555 15.877
12.6707 15.763
12.6858 15.560
12.7010 15.638
12.7162 15.511
12.7314 15.352
12.7465 15.258
12.7617 15.108
12.7769 15.158
12.7921 15.205
12.8072 15.044
12.8224 14.832
12.8376 14.980
12.8528 15.083
12.8679 14.804
12.8831 14.687
12.8983 14.707
12.9135 14.788
12.9286 14.713
12.9438 14.630
12.9590 14.509
12.9742 14.171
12.9893 14.107
13.0045 14.091
13.0197 14.007
13.0349 14.105
13.0500 14.265
13.0652 14.223
13.0804 14.035
13.0956 13.994
13.1107 14.064
13.1259 14.245
13.1411 13.985
13.1563 13.773
13.1714 13.606
13.1866 13.423
13.2018 13.570
13.2170 13.416
13.2321 13.421
13.2473 13.443
13.2625 13.319
13.2777 13.199
13.2928 13.199
13.3080 13.380
13.3232 13.247
13.3384 13.277
13.3535 13.330
13.3687 13.169
13.3839 13.216
13.3991 13.049
13.4142 12.924
13.4294 12.867
13.4446 12.972
13.4598 12.823
13.4749 12.519
13.4901 12.717
13.5053 12.744
13.5205 12.592
13.5356 12.467
13.5508 12.534
13.5660 12.573
13.5812 12.220
13.5963 11.914
13.6115 12.379
13.6267 12.413
13.6419 12.133
13.6570 12.203
13.6722 12.282
13.6874 12.097
13.7026 12.086
13.7177 12.190
13.7329 12.151
13.7481 12.110
13.7633 12.032
13.7784 11.967
13.7936 12.161
13.8088 12.300
13.8239 12.542
13.8391 12.548
13.8543 12.368
13.8695 12.159
13.8846 12.313
13.8998 12.158
13.9150 12.140
13.9302 12.119
13.9453 12.122
13.9605 12.097
13.9757 11.767
13.9909 11.771
14.0060 11.720
14.0212 11.397
14.0364 11.559
14.0516 11.583
14.0667 11.510
14.0819 11.422
14.0971 11.327
14.1123 11.364
14.1274 11.382
14.1426 11.625
14.1578 11.445
14.1730 11.294
14.1881 11.496
14.2033 11.822
14.2185 11.531
14.2337 11.608
14.2488 11.602
14.2640 11.704
14.2792 12.033
14.2944 12.326
14.3095 12.546
14.3247 12.632
14.3399 12.663
14.3551 12.619
14.3702 12.831
14.3854 13.426
14.4006 13.636
14.4158 13.768
14.4309 13.339
14.4461 12.999
14.4613 12.903
14.4765 12.503
14.4916 12.395
14.5068 12.226
14.5220 12.005
14.5372 11.694
14.5523 11.065
14.5675 10.974
14.5827 10.825
14.5979 10.912
14.6130 10.968
14.6282 11.061
14.6434 10.979
14.6586 10.765
14.6737 10.881
14.6889 10.975
14.7041 10.977
14.7193 10.652
14.7344 10.704
14.7496 10.968
14.7648 10.970
14.7800 10.676
14.7951 10.841
14.8103 10.693
14.8255 10.548
14.8407 10.434
14.8558 10.569
14.8710 10.422
14.8862 10.670
14.9014 10.470
14.9165 10.935
14.9317 10.473
14.9469 10.372
14.9621 10.523
14.9772 10.008
14.9924 10.287
15.0076 10.511
15.0228 10.231
15.0379 10.487
15.0531 10.097
15.0683 10.471
15.0835 10.344
15.0986 10.355
15.1138 10.270
15.1290 10.496
15.1442 10.216
15.1593 10.210
15.1745 10.352
15.1897 10.203
15.2049 10.332
15.2200 10.267
15.2352 10.262
15.2504 10.072
15.2656 10.409
15.2807 10.653
15.2959 10.398
15.3111 10.182
15.3263 10.018
15.3414 10.256
15.3566 9.893
15.3718 10.270
15.3870 10.224
15.4021 10.183
15.4173 10.468
15.4325 10.262
15.4477 10.266
15.4628 10.114
15.4780 10.299
15.4932 10.216
15.5084 10.276
15.5235 10.102
15.5387 9.884
15.5539 10.138
15.5691 10.215
15.5842 10.149
15.5994 9.761
15.6146 9.813
15.6298 9.749
15.6449 9.957
15.6601 9.682
15.6753 9.852
15.6905 9.794
15.7056 9.696
15.7208 9.920
15.7360 9.943
15.7512 9.570
15.7663 10.070
15.7815 9.780
15.7967 9.818
15.8119 9.752
15.8270 9.978
15.8422 9.739
15.8574 9.514
15.8726 9.572
15.8877 9.629
15.9029 9.575
15.9181 9.800
15.9333 9.885
15.9484 9.606
15.9636 9.725
15.9788 9.673
15.9940 9.702
16.0091 9.675
16.0243 9.780
16.0395 9.600
16.0547 9.736
16.0698 9.671
16.0850 9.833
16.1002 9.837
16.1154 9.684
16.1305 9.710
16.1457 9.604
16.1609 9.620
16.1761 9.565
16.1912 9.738
16.2064 9.871
16.2216 10.057
16.2368 9.777
16.2519 9.879
16.2671 9.977
16.2823 9.853
16.2975 9.872
16.3126 10.121
16.3278 10.046
16.3430 9.777
16.3582 9.931
16.3733 9.871
16.3885 9.786
16.4037 9.869
16.4189 9.823
16.4340 9.740
16.4492 9.879
16.4644 9.879
16.4796 9.403
16.4947 9.616
16.5099 9.891
16.5251 9.805
16.5403 9.490
16.5554 9.574
16.5706 9.625
16.5858 9.537
16.6010 9.598
16.6161 9.731
16.6313 9.750
16.6465 9.957
16.6617 9.910
16.6768 9.848
16.6920 10.009
16.7072 9.922
16.7224 9.922
16.7375 9.813
16.7527 9.820
16.7679 9.785
16.7831 9.846
16.7982 9.700
16.8134 9.635
16.8286 9.969
16.8438 9.959
16.8589 9.918
16.8741 9.913
16.8893 9.862
16.9045 9.906
16.9196 9.892
16.9348 9.703
16.9500 9.662
16.9652 9.972
16.9803 9.820
16.9955 9.860
17.0107 9.965
17.0259 9.830
17.0410 9.944
17.0562 10.108
17.0714 10.314
17.0866 10.491
17.1017 10.580
17.1169 10.712
17.1321 11.036
17.1473 11.218
17.1624 11.560
17.1776 12.202
17.1928 12.677
17.2080 13.650
17.2231 14.965
17.2383 16.494
17.2535 17.898
17.2687 18.734
17.2838 18.786
17.2990 18.003
17.3142 16.871
17.3294 16.248
17.3445 16.202
17.3597 16.114
17.3749 15.845
17.3901 15.292
17.4052 14.418
17.4204 13.388
17.4356 12.414
17.4508 11.972
17.4659 11.713
17.4811 11.417
17.4963 11.447
17.5115 11.154
17.5266 10.951
17.5418 11.091
17.5570 11.052
17.5722 11.026
17.5873 11.138
17.6025 11.199
17.6177 11.284
17.6329 11.383
17.6480 11.558
17.6632 11.562
17.6784 11.403
17.6936 11.585
17.7087 11.795
17.7239 11.533
17.7391 11.226
17.7543 11.141
17.7694 11.006
17.7846 11.207
17.7998 11.165
17.8150 10.724
17.8301 10.600
17.8453 10.480
17.8605 10.246
17.8757 10.225
17.8908 10.301
17.9060 10.403
17.9212 10.082
17.9364 9.937
17.9515 10.052
17.9667 10.232
17.9819 10.287
17.9971 9.932
18.0122 9.712
18.0274 9.916
18.0426 10.395
18.0578 10.286
18.0729 10.175
18.0881 10.238
18.1033 10.149
18.1185 9.926
18.1336 9.905
18.1488 9.968
18.1640 9.708
18.1792 10.007
18.1943 10.089
18.2095 9.849
18.2247 10.158
18.2399 10.121
18.2550 9.931
18.2702 9.786
18.2854 9.743
18.3006 9.760
18.3157 9.554
18.3309 9.674
18.3461 9.754
18.3613 9.837
18.3764 9.911
18.3916 9.942
18.4068 9.996
18.4220 9.837
18.4371 9.782
18.4523 9.601
18.4675 9.527
18.4827 9.751
18.4978 9.677
18.5130 9.803
18.5282 9.719
18.5434 9.840
18.5585 9.869
18.5737 9.814
18.5889 9.818
18.6041 9.671
18.6192 9.615
18.6344 9.833
18.6496 9.837
18.6648 9.762
18.6799 9.968
18.6951 9.950
18.7103 9.812
18.7255 9.701
18.7406 9.743
18.7558 9.711
18.7710 9.770
18.7862 9.868
18.8013 9.550
18.8165 9.558
18.8317 9.697
18.8469 9.824
18.8620 9.851
18.8772 9.805
18.8924 9.839
18.9076 9.779
18.9227 9.936
18.9379 10.096
18.9531 10.164
18.9683 10.128
18.9834 10.153
18.9986 10.396
19.0138 10.252
19.0290 10.142
19.0441 10.160
19.0593 10.245
19.0745 10.523
19.0897 10.540
19.1048 10.383
19.1200 10.291
19.1352 10.351
19.1504 10.595
19.1655 10.568
19.1807 10.472
19.1959 10.537
19.2111 10.648
19.2262 10.838
19.2414 10.979
19.2566 10.828
19.2718 10.599
19.2869 10.811
19.3021 10.985
19.3173 11.103
19.3325 11.055
19.3476 11.140
19.3628 11.136
19.3780 11.128
19.3932 11.324
19.4083 11.382
19.4235 11.120
19.4387 11.145
19.4539 11.231
19.4690 11.345
19.4842 11.412
19.4994 11.400
19.5146 11.479
19.5297 11.513
19.5449 11.507
19.5601 11.464
19.5753 11.467
19.5904 11.639
19.6056 11.662
19.6208 11.510
19.6360 11.556
19.6511 11.665
19.6663 11.723
19.6815 11.685
19.6967 11.799
19.7118 11.628
19.7270 11.644
19.7422 11.932
19.7574 11.886
19.7725 11.862
19.7877 12.077
19.8029 12.047
19.8180 11.921
19.8332 12.033
19.8484 12.081
19.8636 12.225
19.8787 12.346
19.8939 12.961
19.9091 13.547
19.9243 13.440
19.9394 13.372
19.9546 13.996
19.9698 14.260
19.9850 14.102
20.0001 14.019
20.0153 14.055
20.0305 13.963
20.0457 13.378
20.0608 13.186
20.0760 13.571
20.0912 13.608
20.1064 13.455
20.1215 13.285
20.1367 13.154
20.1519 13.143
20.1671 12.865
20.1822 12.744
20.1974 12.494
20.2126 12.572
20.2278 12.694
20.2429 12.478
20.2581 12.147
20.2733 11.982
20.2885 11.761
20.3036 11.872
20.3188 12.157
20.3340 12.043
20.3492 12.030
20.3643 12.110
20.3795 12.044
20.3947 11.916
20.4099 11.774
20.4250 12.003
20.4402 11.918
20.4554 12.015
20.4706 12.028
20.4857 11.888
20.5009 12.029
20.5161 11.852
20.5313 11.512
20.5464 11.457
20.5616 11.311
20.5768 11.328
20.5920 11.269
20.6071 11.146
20.6223 11.155
20.6375 11.191
20.6527 10.848
20.6678 10.703
20.6830 10.650
20.6982 10.672
20.7134 10.678
20.7285 10.696
20.7437 10.433
20.7589 10.381
20.7741 10.354
20.7892 10.644
20.8044 10.280
20.8196 10.171
20.8348 10.146
20.8499 10.142
20.8651 10.496
20.8803 10.392
20.8955 9.980
20.9106 9.969
20.9258 9.974
20.9410 9.963
20.9562 10.326
20.9713 10.021
20.9865 10.025
21.0017 10.246
21.0169 10.111
21.0320 10.185
21.0472 9.815
21.0624 9.904
21.0776 10.085
21.0927 9.980
21.1079 10.214
21.1231 10.039
21.1383 10.212
21.1534 9.474
21.1686 9.694
21.1838 9.771
21.1990 10.131
21.2141 9.995
21.2293 9.854
21.2445 9.925
21.2597 9.724
21.2748 9.547
21.2900 9.960
21.3052 9.652
21.3204 9.769
21.3355 9.650
21.3507 9.588
21.3659 9.616
21.3811 9.549
21.3962 9.523
21.4114 9.428
21.4266 9.586
21.4418 9.571
21.4569 9.380
21.4721 9.448
21.4873 9.339
21.5025 9.232
21.5176 9.310
21.5328 9.380
21.5480 9.266
21.5632 9.067
21.5783 9.223
21.5935 9.159
21.6087 9.564
21.6239 9.441
21.6390 9.208
21.6542 9.170
21.6694 9.144
21.6846 9.170
21.6997 9.085
21.7149 9.160
21.7301 9.154
21.7453 9.208
21.7604 9.154
21.7756 9.235
21.7908 9.242
21.8060 9.033
21.8211 8.909
21.8363 9.168
21.8515 8.995
21.8667 8.837
21.8818 8.915
21.8970 8.997
21.9122 8.857
21.9274 8.911
21.9425 8.989
21.9577 8.969
21.9729 9.192
21.9881 8.899
22.0032 8.518
22.0184 8.710
22.0336 8.772
22.0488 8.695
22.0639 8.687
22.0791 8.657
22.0943 8.699
22.1095 8.632
22.1246 8.558
22.1398 8.749
22.1550 8.760
22.1702 8.680
22.1853 8.702
22.2005 8.700
22.2157 8.609
22.2309 8.421
22.2460 8.504
22.2612 8.369
22.2764 8.405
22.2916 8.446
22.3067 8.678
22.3219 8.625
22.3371 8.617
22.3523 8.601
22.3674 8.243
22.3826 8.388
22.3978 8.254
22.4130 8.385
22.4281 8.543
22.4433 8.435
22.4585 8.639
22.4737 8.581
22.4888 8.410
22.5040 8.439
22.5192 8.413
22.5344 8.200
22.5495 8.621
22.5647 8.593
22.5799 8.605
22.5951 8.447
22.6102 8.663
22.6254 8.799
22.6406 8.589
22.6558 8.532
22.6709 8.388
22.6861 8.407
22.7013 8.336
22.7165 7.966
22.7316 6.354
