'Id: "" Comment: "" Operator: "Lab Manager" Anode: "Mo" Scantype: "Still (Eiger2R_500K (1D mode))" TimePerStep: "300" X: "11.8" Y: "9.4" Z: "11.284" 
7.2532 19.173
7.2684 18.935
7.2836 18.730
7.2987 19.146
7.3139 18.763
7.3291 19.031
7.3443 19.161
7.3594 18.922
7.3746 18.944
7.3898 19.264
7.4050 19.145
7.4201 18.907
7.4353 19.637
7.4505 19.593
7.4657 19.514
7.4808 19.657
7.4960 19.490
7.5112 19.801
7.5264 19.776
7.5415 19.876
7.5567 20.031
7.5719 19.757
7.5871 19.685
7.6022 19.786
7.6174 19.696
7.6326 19.514
7.6478 20.249
7.6629 20.183
7.6781 19.996
7.6933 19.900
7.7085 20.345
7.7236 20.164
7.7388 20.179
7.7540 20.454
7.7692 20.279
7.7843 20.390
7.7995 20.241
7.8147 20.461
7.8299 20.537
7.8450 20.392
7.8602 20.382
7.8754 20.505
7.8905 20.644
7.9057 20.795
7.9209 20.988
7.9361 20.792
7.9512 20.646
7.9664 21.033
7.9816 21.007
7.9968 20.892
8.0119 20.783
8.0271 20.911
8.0423 20.970
8.0575 21.099
8.0726 21.286
8.0878 21.244
8.1030 20.991
8.1182 21.619
8.1333 21.570
8.1485 21.546
8.1637 21.117
8.1789 21.207
8.1940 21.378
8.2092 21.422
8.2244 21.727
8.2396 21.501
8.2547 21.352
8.2699 21.812
8.2851 21.489
8.3003 21.733
8.3154 21.821
8.3306 21.575
8.3458 21.714
8.3610 21.644
8.3761 21.839
8.3913 21.740
8.4065 21.334
8.4217 21.490
8.4368 21.707
8.4520 21.859
8.4672 21.706
8.4824 21.072
8.4975 21.734
8.5127 22.511
8.5279 22.351
8.5431 22.563
8.5582 22.166
8.5734 21.927
8.5886 21.891
8.6038 21.854
8.6189 22.270
8.6341 21.908
8.6493 21.612
8.6645 22.211
8.6796 22.262
8.6948 22.424
8.7100 22.155
8.7252 22.678
8.7403 22.356
8.7555 22.137
8.7707 22.598
8.7859 22.203
8.8010 22.452
8.8162 22.265
8.8314 22.320
8.8466 22.080
8.8617 22.501
8.8769 22.573
8.8921 22.625
8.9073 22.368
8.9224 22.176
8.9376 22.599
8.9528 23.024
8.9680 22.870
8.9831 22.495
8.9983 22.826
9.0135 22.381
9.0287 22.642
9.0438 22.412
9.0590 22.361
9.0742 23.126
9.0894 22.826
9.1045 22.755
9.1197 22.582
9.1349 22.800
9.1501 22.873
9.1652 22.868
9.1804 22.725
9.1956 22.705
9.2108 22.860
9.2259 23.208
9.2411 23.051
9.2563 23.315
9.2715 22.924
9.2866 22.817
9.3018 23.011
9.3170 23.105
9.3322 23.048
9.3473 23.248
9.3625 23.224
9.3777 23.103
9.3929 23.024
9.4080 22.918
9.4232 22.949
9.4384 22.951
9.4536 22.969
9.4687 22.838
9.4839 23.221
9.4991 23.386
9.5143 22.935
9.5294 22.708
9.5446 22.612
9.5598 23.036
9.5750 23.328
9.5901 22.952
9.6053 22.893
9.6205 23.036
9.6357 23.254
9.6508 23.458
9.6660 23.500
9.6812 23.615
9.6964 23.509
9.7115 23.998
9.7267 23.905
9.7419 23.528
9.7571 23.790
9.7722 23.781
9.7874 23.699
9.8026 23.538
9.8178 23.285
9.8329 23.147
9.8481 23.328
9.8633 23.649
9.8785 23.322
9.8936 23.170
9.9088 23.365
9.9240 23.040
9.9392 22.948
9.9543 23.395
9.9695 23.547
9.9847 23.462
9.9999 23.196
10.0150 23.402
10.0302 23.609
10.0454 23.748
10.0606 23.829
10.0757 23.201
10.0909 22.869
10.1061 23.251
10.1213 23.371
10.1364 23.139
10.1516 22.777
10.1668 23.234
10.1820 23.305
10.1971 23.378
10.2123 23.349
10.2275 23.276
10.2427 22.891
10.2578 22.782
10.2730 22.893
10.2882 23.004
10.3034 23.041
10.3185 22.825
10.3337 22.792
10.3489 22.967
10.3641 22.701
10.3792 22.684
10.3944 22.871
10.4096 22.658
10.4248 22.751
10.4399 22.725
10.4551 22.597
10.4703 22.925
10.4855 22.688
10.5006 22.782
10.5158 22.480
10.5310 22.246
10.5462 22.456
10.5613 22.460
10.5765 22.493
10.5917 22.276
10.6069 22.339
10.6220 22.304
10.6372 22.427
10.6524 22.599
10.6676 22.729
10.6827 22.451
10.6979 22.332
10.7131 22.612
10.7283 22.801
10.7434 22.651
10.7586 22.160
10.7738 22.639
10.7890 22.473
10.8041 22.481
10.8193 22.218
10.8345 22.114
10.8497 21.995
10.8648 21.928
10.8800 22.026
10.8952 22.119
10.9104 22.284
10.9255 22.011
10.9407 22.330
10.9559 22.217
10.9711 21.685
10.9862 22.142
11.0014 21.896
11.0166 21.916
11.0318 22.453
11.0469 22.513
11.0621 21.915
11.0773 21.566
11.0925 21.999
11.1076 22.115
11.1228 21.852
11.1380 21.711
11.1532 21.734
11.1683 21.771
11.1835 21.664
11.1987 21.801
11.2139 21.937
11.2290 21.552
11.2442 21.965
11.2594 21.608
11.2746 21.402
11.2897 21.441
11.3049 21.700
11.3201 22.048
11.3353 21.644
11.3504 21.212
11.3656 21.038
11.3808 21.151
11.3960 21.354
11.4111 21.428
11.4263 21.204
11.4415 21.196
11.4567 21.209
11.4718 21.157
11.4870 21.026
11.5022 21.040
11.5174 20.861
11.5325 20.949
11.5477 21.185
11.5629 21.176
11.5781 20.570
11.5932 20.580
11.6084 20.956
11.6236 21.016
11.6388 20.838
11.6539 20.632
11.6691 20.780
11.6843 20.278
11.6995 20.204
11.7146 20.489
11.7298 20.738
11.7450 20.451
11.7602 20.453
11.7753 20.515
11.7905 20.261
11.8057 20.280
11.8209 20.087
11.8360 19.704
11.8512 19.592
11.8664 19.872
11.8816 20.072
11.8967 20.024
11.9119 19.842
11.9271 19.820
11.9423 19.680
11.9574 19.364
11.9726 19.287
11.9878 19.401
12.0030 19.274
12.0181 19.074
12.0333 19.043
12.0485 19.345
12.0637 19.142
12.0788 18.960
12.0940 19.190
12.1092 18.940
12.1244 18.839
12.1395 18.689
12.1547 18.365
12.1699 18.493
12.1851 18.458
12.2002 18.302
12.2154 18.321
12.2306 18.244
12.2458 18.049
12.2609 18.045
12.2761 18.196
12.2913 18.018
12.3065 17.845
12.3216 17.683
12.3368 17.383
12.3520 17.431
12.3672 17.232
12.3823 17.341
12.3975 17.215
12.4127 17.039
12.4279 16.888
12.4430 16.757
12.4582 16.842
12.4734 16.738
12.4886 16.794
12.5037 16.799
12.5189 16.579
12.5341 16.548
12.5493 16.635
12.5644 16.369
12.5796 16.029
12.5948 15.883
12.6100 16.068
12.6251 15.963
12.6403 15.861
12.6555 15.967
12.6707 16.086
12.6858 15.775
12.7010 15.621
12.7162 15.797
12.7314 15.689
12.7465 15.580
12.7617 15.632
12.7769 15.455
12.7921 15.405
12.8072 15.197
12.8224 14.786
12.8376 14.732
12.8528 14.767
12.8679 14.958
12.8831 14.955
12.8983 14.814
12.9135 14.611
12.9286 14.494
12.9438 14.777
12.9590 14.701
12.9742 14.505
12.9893 14.223
13.0045 14.174
13.0197 14.378
13.0349 14.207
13.0500 13.922
13.0652 13.811
13.0804 13.923
13.0956 13.772
13.1107 13.726
13.1259 13.790
13.1411 13.638
13.1563 13.449
13.1714 13.419
13.1866 13.560
13.2018 13.519
13.2170 13.463
13.2321 13.328
13.2473 13.197
13.2625 13.134
13.2777 12.960
13.2928 12.938
13.3080 13.013
13.3232 13.129
13.3384 13.130
13.3535 12.876
13.3687 12.885
13.3839 12.927
13.3991 12.867
13.4142 12.707
13.4294 12.831
13.4446 13.137
13.4598 12.883
13.4749 12.666
13.4901 12.576
13.5053 12.604
13.5205 12.329
13.5356 12.542
13.5508 12.744
13.5660 12.371
13.5812 12.417
13.5963 12.202
13.6115 12.222
13.6267 12.268
13.6419 12.093
13.6570 11.953
13.6722 12.072
13.6874 12.340
13.7026 12.189
13.7177 12.074
13.7329 11.992
13.7481 12.171
13.7633 12.085
13.7784 12.008
13.7936 11.949
13.8088 12.114
13.8239 12.245
13.8391 12.381
13.8543 12.466
13.8695 12.336
13.8846 12.318
13.8998 12.015
13.9150 12.037
13.9302 12.037
13.9453 11.890
13.9605 11.755
13.9757 11.841
13.9909 11.596
14.0060 11.555
14.0212 11.499
14.0364 11.551
14.0516 11.724
14.0667 11.519
14.0819 11.548
14.0971 11.508
14.1123 11.356
14.1274 11.517
14.1426 11.565
14.1578 11.301
14.1730 11.518
14.1881 11.604
14.2033 11.558
14.2185 11.518
14.2337 11.515
14.2488 11.444
14.2640 11.832
14.2792 11.806
14.2944 11.312
14.3095 11.869
14.3247 11.933
14.3399 12.351
14.3551 12.423
14.3702 12.609
14.3854 12.772
14.4006 13.191
14.4158 13.404
14.4309 13.449
14.4461 13.395
14.4613 13.044
14.4765 12.953
14.4916 12.897
14.5068 12.221
14.5220 12.008
14.5372 11.841
14.5523 11.672
14.5675 11.227
14.5827 11.331
14.5979 11.176
14.6130 10.966
14.6282 10.866
14.6434 11.092
14.6586 11.046
14.6737 11.235
14.6889 10.793
14.7041 10.638
14.7193 10.564
14.7344 10.752
14.7496 10.131
14.7648 10.346
14.7800 10.665
14.7951 10.776
14.8103 10.842
14.8255 10.838
14.8407 10.808
14.8558 10.491
14.8710 10.783
14.8862 10.087
14.9014 10.190
14.9165 10.669
14.9317 10.878
14.9469 10.538
14.9621 10.585
14.9772 10.362
14.9924 10.141
15.0076 10.412
15.0228 10.401
15.0379 10.313
15.0531 10.078
15.0683 10.375
15.0835 10.022
15.0986 10.323
15.1138 10.338
15.1290 10.532
15.1442 10.190
15.1593 10.341
15.1745 10.362
15.1897 10.099
15.2049 10.089
15.2200 9.963
15.2352 10.137
15.2504 10.529
15.2656 10.116
15.2807 10.282
15.2959 9.987
15.3111 10.039
15.3263 10.023
15.3414 10.142
15.3566 10.664
15.3718 10.239
15.3870 10.140
15.4021 10.267
15.4173 10.450
15.4325 10.416
15.4477 10.099
15.4628 10.241
15.4780 10.246
15.4932 9.892
15.5084 10.163
15.5235 10.015
15.5387 10.102
15.5539 10.023
15.5691 10.068
15.5842 9.806
15.5994 9.959
15.6146 9.680
15.6298 9.993
15.6449 9.738
15.6601 10.076
15.6753 9.739
15.6905 9.819
15.7056 9.764
15.7208 9.637
15.7360 9.767
15.7512 9.816
15.7663 9.936
15.7815 9.696
15.7967 9.973
15.8119 9.671
15.8270 9.847
15.8422 9.671
15.8574 9.538
15.8726 9.661
15.8877 9.698
15.9029 9.860
15.9181 9.627
15.9333 9.324
15.9484 9.731
15.9636 9.653
15.9788 9.503
15.9940 9.882
16.0091 9.789
16.0243 9.567
16.0395 9.551
16.0547 9.354
16.0698 9.699
16.0850 9.602
16.1002 9.696
16.1154 9.532
16.1305 9.567
16.1457 9.466
16.1609 9.749
16.1761 9.716
16.1912 9.675
16.2064 9.684
16.2216 10.008
16.2368 9.809
16.2519 9.531
16.2671 9.671
16.2823 9.878
16.2975 10.022
16.3126 9.938
16.3278 9.973
16.3430 9.902
16.3582 9.834
16.3733 9.859
16.3885 9.818
16.4037 9.818
16.4189 9.678
16.4340 9.702
16.4492 9.598
16.4644 9.581
16.4796 9.642
16.4947 9.578
16.5099 9.711
16.5251 9.649
16.5403 9.724
16.5554 9.695
16.5706 9.563
16.5858 9.706
16.6010 9.620
16.6161 9.384
16.6313 9.363
16.6465 9.623
16.6617 9.974
16.6768 9.919
16.6920 9.770
16.7072 9.844
16.7224 9.957
16.7375 9.983
16.7527 9.997
16.7679 10.051
16.7831 9.935
16.7982 10.017
16.8134 9.929
16.8286 9.775
16.8438 9.874
16.8589 9.884
16.8741 9.771
16.8893 9.639
16.9045 9.841
16.9196 9.993
16.9348 9.794
16.9500 9.862
16.9652 9.931
16.9803 9.620
16.9955 9.796
17.0107 9.954
17.0259 9.868
17.0410 9.856
17.0562 9.950
17.0714 10.119
17.0866 10.168
17.1017 10.347
17.1169 10.513
17.1321 10.778
17.1473 11.317
17.1624 11.788
17.1776 12.234
17.1928 12.864
17.2080 13.857
17.2231 15.115
17.2383 16.258
17.2535 17.625
17.2687 18.563
17.2838 18.420
17.2990 17.408
17.3142 16.673
17.3294 16.449
17.3445 16.054
17.3597 15.958
17.3749 15.717
17.3901 15.037
17.4052 13.975
17.4204 12.912
17.4356 12.367
17.4508 11.925
17.4659 11.333
17.4811 10.977
17.4963 11.236
17.5115 11.330
17.5266 10.940
17.5418 10.689
17.5570 10.674
17.5722 10.662
17.5873 10.676
17.6025 10.994
17.6177 11.111
17.6329 11.074
17.6480 11.357
17.6632 11.635
17.6784 11.882
17.6936 12.056
17.7087 12.059
17.7239 11.764
17.7391 11.441
17.7543 11.420
17.7694 11.423
17.7846 11.411
17.7998 11.342
17.8150 11.480
17.8301 11.392
17.8453 10.825
17.8605 10.614
17.8757 10.477
17.8908 10.511
17.9060 10.344
17.9212 10.303
17.9364 10.290
17.9515 10.196
17.9667 10.231
17.9819 10.151
17.9971 10.151
18.0122 10.301
18.0274 10.445
18.0426 10.313
18.0578 10.214
18.0729 10.241
18.0881 10.199
18.1033 10.038
18.1185 10.026
18.1336 10.258
18.1488 10.061
18.1640 9.975
18.1792 9.924
18.1943 9.934
18.2095 9.893
18.2247 9.871
18.2399 10.049
18.2550 9.974
18.2702 9.990
18.2854 9.978
18.3006 9.890
18.3157 9.936
18.3309 9.913
18.3461 9.893
18.3613 9.986
18.3764 9.757
18.3916 9.779
18.4068 9.708
18.4220 9.852
18.4371 9.675
18.4523 9.629
18.4675 9.688
18.4827 9.632
18.4978 9.774
18.5130 9.849
18.5282 9.723
18.5434 9.704
18.5585 9.783
18.5737 9.724
18.5889 9.934
18.6041 10.019
18.6192 9.719
18.6344 9.605
18.6496 9.699
18.6648 9.685
18.6799 9.735
18.6951 9.645
18.7103 9.624
18.7255 9.772
18.7406 9.647
18.7558 9.886
18.7710 10.072
18.7862 10.083
18.8013 9.652
18.8165 9.553
18.8317 9.894
18.8469 9.989
18.8620 9.923
18.8772 10.141
18.8924 9.873
18.9076 9.909
18.9227 10.077
18.9379 10.040
18.9531 10.070
18.9683 10.017
18.9834 10.101
18.9986 10.137
19.0138 10.092
19.0290 10.124
19.0441 10.154
19.0593 10.323
19.0745 10.238
19.0897 10.160
19.1048 10.259
19.1200 10.333
19.1352 10.404
19.1504 10.260
19.1655 10.303
19.1807 10.355
19.1959 10.402
19.2111 10.464
19.2262 10.772
19.2414 10.889
19.2566 10.832
19.2718 10.789
19.2869 10.895
19.3021 10.796
19.3173 10.668
19.3325 10.922
19.3476 10.979
19.3628 10.650
19.3780 10.619
19.3932 10.946
19.4083 10.963
19.4235 10.987
19.4387 11.099
19.4539 11.272
19.4690 11.297
19.4842 11.219
19.4994 11.322
19.5146 11.463
19.5297 11.495
19.5449 11.309
19.5601 11.307
19.5753 11.376
19.5904 11.464
19.6056 11.622
19.6208 11.641
19.6360 11.525
19.6511 11.357
19.6663 11.605
19.6815 12.054
19.6967 11.702
19.7118 11.409
19.7270 11.339
19.7422 11.386
19.7574 11.609
19.7725 11.890
19.7877 11.844
19.8029 11.736
19.8180 12.000
19.8332 12.011
19.8484 12.068
19.8636 12.266
19.8787 12.599
19.8939 12.892
19.9091 13.083
19.9243 13.355
19.9394 13.645
19.9546 13.994
19.9698 14.312
19.9850 14.407
20.0001 14.223
20.0153 13.992
20.0305 13.648
20.0457 13.573
20.0608 13.737
20.0760 13.525
20.0912 13.401
20.1064 13.400
20.1215 13.383
20.1367 13.002
20.1519 12.970
20.1671 12.699
20.1822 12.511
20.1974 12.714
20.2126 12.507
20.2278 12.607
20.2429 12.658
20.2581 12.106
20.2733 11.777
20.2885 11.936
20.3036 11.901
20.3188 11.862
20.3340 11.921
20.3492 11.853
20.3643 11.863
20.3795 11.861
20.3947 11.630
20.4099 11.927
20.4250 11.944
20.4402 11.622
20.4554 11.775
20.4706 12.167
20.4857 12.431
20.5009 12.434
20.5161 12.124
20.5313 11.739
20.5464 11.761
20.5616 11.768
20.5768 11.513
20.5920 11.565
20.6071 11.441
20.6223 11.326
20.6375 11.453
20.6527 11.163
20.6678 10.641
20.6830 10.864
20.6982 10.905
20.7134 10.638
20.7285 10.363
20.7437 10.593
20.7589 10.487
20.7741 10.603
20.7892 10.788
20.8044 10.399
20.8196 10.458
20.8348 10.348
20.8499 10.191
20.8651 9.861
20.8803 10.446
20.8955 10.483
20.9106 9.976
20.9258 10.136
20.9410 9.970
20.9562 9.844
20.9713 9.920
20.9865 9.944
21.0017 10.217
21.0169 9.806
21.0320 9.934
21.0472 9.917
21.0624 9.765
21.0776 10.057
21.0927 9.929
21.1079 10.016
21.1231 9.634
21.1383 10.040
21.1534 9.869
21.1686 9.864
21.1838 9.640
21.1990 9.695
21.2141 9.481
21.2293 9.658
21.2445 9.922
21.2597 9.710
21.2748 9.600
21.2900 9.710
21.3052 9.733
21.3204 9.306
21.3355 9.779
21.3507 9.791
21.3659 9.475
21.3811 9.395
21.3962 9.600
21.4114 9.501
21.4266 9.216
21.4418 9.097
21.4569 9.504
21.4721 9.408
21.4873 9.295
21.5025 9.352
21.5176 9.443
21.5328 9.333
21.5480 9.309
21.5632 9.259
21.5783 9.322
21.5935 9.166
21.6087 9.265
21.6239 9.293
21.6390 9.428
21.6542 8.943
21.6694 9.104
21.6846 9.228
21.6997 9.244
21.7149 9.133
21.7301 9.112
21.7453 9.106
21.7604 9.151
21.7756 9.058
21.7908 9.044
21.8060 8.861
21.8211 8.929
21.8363 8.854
21.8515 9.048
21.8667 9.058
21.8818 9.130
21.8970 9.129
21.9122 9.222
21.9274 8.918
21.9425 8.869
21.9577 8.856
21.9729 8.832
21.9881 9.034
22.0032 8.885
22.0184 8.760
22.0336 8.675
22.0488 8.643
22.0639 8.778
22.0791 8.929
22.0943 8.826
22.1095 8.747
22.1246 8.755
22.1398 8.647
22.1550 8.596
22.1702 8.706
22.1853 8.554
22.2005 8.527
22.2157 8.735
22.2309 8.637
22.2460 8.584
22.2612 8.234
22.2764 8.462
22.2916 8.470
22.3067 8.599
22.3219 8.462
22.3371 8.620
22.3523 8.621
22.3674 8.403
22.3826 8.329
22.3978 8.241
22.4130 8.479
22.4281 8.421
22.4433 8.304
22.4585 8.136
22.4737 8.306
22.4888 8.389
22.5040 8.529
22.5192 8.213
22.5344 8.446
22.5495 8.379
22.5647 8.452
22.5799 8.486
22.5951 7.951
22.6102 8.197
22.6254 8.194
22.6406 8.221
22.6558 8.086
22.6709 8.224
22.6861 8.356
22.7013 8.098
22.7165 8.083
22.7316 6.550
