'Id: "" Comment: "" Operator: "Lab Manager" Anode: "Mo" Scantype: "Still (Eiger2R_500K (1D mode))" TimePerStep: "300" X: "11.8" Y: "9.4" Z: "11.284" 
7.2532 18.412
7.2684 18.696
7.2836 18.747
7.2987 19.183
7.3139 19.294
7.3291 19.146
7.3443 18.980
7.3594 19.420
7.3746 19.026
7.3898 19.294
7.4050 19.407
7.4201 19.372
7.4353 19.465
7.4505 19.616
7.4657 19.442
7.4808 18.958
7.4960 19.399
7.5112 19.849
7.5264 19.484
7.5415 19.575
7.5567 19.687
7.5719 19.560
7.5871 19.742
7.6022 19.955
7.6174 20.130
7.6326 20.071
7.6478 19.959
7.6629 19.785
7.6781 20.085
7.6933 20.060
7.7085 19.979
7.7236 20.183
7.7388 20.569
7.7540 20.427
7.7692 20.139
7.7843 20.081
7.7995 20.111
7.8147 20.287
7.8299 20.624
7.8450 20.265
7.8602 20.029
7.8754 20.395
7.8905 20.749
7.9057 20.766
7.9209 20.628
7.9361 20.649
7.9512 20.576
7.9664 20.438
7.9816 20.944
7.9968 20.900
8.0119 20.947
8.0271 21.179
8.0423 21.160
8.0575 21.217
8.0726 20.888
8.0878 20.573
8.1030 20.498
8.1182 21.054
8.1333 20.938
8.1485 21.200
8.1637 21.547
8.1789 21.693
8.1940 21.044
8.2092 20.867
8.2244 21.205
8.2396 21.119
8.2547 21.199
8.2699 21.480
8.2851 21.364
8.3003 21.089
8.3154 21.304
8.3306 21.232
8.3458 21.392
8.3610 21.554
8.3761 21.268
8.3913 21.173
8.4065 21.879
8.4217 21.764
8.4368 22.014
8.4520 21.861
8.4672 21.664
8.4824 21.784
8.4975 22.195
8.5127 21.825
8.5279 21.819
8.5431 21.734
8.5582 22.204
8.5734 21.932
8.5886 21.858
8.6038 21.994
8.6189 21.636
8.6341 22.275
8.6493 22.010
8.6645 21.981
8.6796 22.106
8.6948 22.051
8.7100 21.676
8.7252 22.663
8.7403 22.307
8.7555 22.453
8.7707 22.309
8.7859 22.195
8.8010 22.728
8.8162 22.404
8.8314 22.329
8.8466 22.162
8.8617 22.465
8.8769 21.891
8.8921 22.087
8.9073 22.164
8.9224 22.476
8.9376 22.359
8.9528 22.607
8.9680 22.092
8.9831 22.441
8.9983 22.203
9.0135 22.436
9.0287 22.702
9.0438 22.365
9.0590 21.911
9.0742 22.400
9.0894 22.441
9.1045 22.670
9.1197 22.603
9.1349 22.743
9.1501 22.728
9.1652 22.722
9.1804 22.592
9.1956 23.026
9.2108 22.854
9.2259 22.558
9.2411 22.934
9.2563 23.008
9.2715 22.849
9.2866 22.826
9.3018 22.973
9.3170 22.594
9.3322 22.474
9.3473 22.968
9.3625 23.340
9.3777 23.101
9.3929 22.897
9.4080 22.755
9.4232 23.050
9.4384 22.986
9.4536 23.064
9.4687 23.108
9.4839 23.135
9.4991 23.031
9.5143 22.503
9.5294 22.368
9.5446 22.683
9.5598 22.916
9.5750 23.155
9.5901 23.115
9.6053 23.138
9.6205 23.153
9.6357 23.587
9.6508 23.671
9.6660 23.391
9.6812 23.436
9.6964 23.720
9.7115 23.798
9.7267 24.023
9.7419 23.998
9.7571 23.827
9.7722 23.907
9.7874 23.548
9.8026 23.333
9.8178 23.423
9.8329 23.510
9.8481 23.222
9.8633 22.970
9.8785 23.036
9.8936 22.984
9.9088 23.219
9.9240 23.385
9.9392 22.945
9.9543 22.785
9.9695 23.016
9.9847 23.180
9.9999 23.234
10.0150 23.230
10.0302 23.376
10.0454 23.119
10.0606 22.855
10.0757 23.133
10.0909 23.140
10.1061 22.913
10.1213 23.243
10.1364 23.408
10.1516 23.316
10.1668 23.516
10.1820 23.236
10.1971 23.179
10.2123 23.376
10.2275 23.512
10.2427 23.088
10.2578 22.627
10.2730 22.883
10.2882 22.837
10.3034 22.760
10.3185 22.850
10.3337 22.657
10.3489 22.713
10.3641 22.698
10.3792 22.456
10.3944 22.558
10.4096 22.245
10.4248 22.217
10.4399 22.305
10.4551 22.481
10.4703 22.697
10.4855 22.734
10.5006 22.674
10.5158 22.253
10.5310 21.895
10.5462 22.073
10.5613 22.599
10.5765 22.427
10.5917 22.505
10.6069 22.338
10.6220 22.187
10.6372 22.572
10.6524 22.323
10.6676 22.063
10.6827 22.175
10.6979 22.219
10.7131 22.339
10.7283 22.271
10.7434 22.367
10.7586 22.109
10.7738 21.916
10.7890 21.808
10.8041 21.814
10.8193 22.128
10.8345 21.999
10.8497 21.971
10.8648 22.187
10.8800 21.823
10.8952 21.719
10.9104 22.084
10.9255 22.168
10.9407 22.199
10.9559 21.804
10.9711 21.787
10.9862 22.152
11.0014 22.090
11.0166 21.918
11.0318 21.807
11.0469 21.790
11.0621 22.133
11.0773 21.815
11.0925 21.603
11.1076 21.848
11.1228 21.711
11.1380 21.819
11.1532 21.756
11.1683 22.180
11.1835 21.721
11.1987 21.322
11.2139 21.403
11.2290 21.266
11.2442 21.414
11.2594 21.539
11.2746 21.574
11.2897 21.529
11.3049 21.258
11.3201 21.347
11.3353 21.025
11.3504 20.970
11.3656 21.332
11.3808 21.396
11.3960 21.262
11.4111 21.051
11.4263 21.270
11.4415 21.410
11.4567 20.993
11.4718 21.063
11.4870 21.052
11.5022 21.164
11.5174 20.953
11.5325 20.917
11.5477 21.044
11.5629 20.519
11.5781 20.576
11.5932 20.913
11.6084 21.044
11.6236 20.546
11.6388 20.781
11.6539 20.760
11.6691 20.874
11.6843 20.633
11.6995 20.582
11.7146 20.478
11.7298 20.401
11.7450 20.438
11.7602 20.544
11.7753 20.627
11.7905 20.388
11.8057 20.070
11.8209 19.768
11.8360 19.719
11.8512 20.046
11.8664 20.107
11.8816 20.012
11.8967 19.650
11.9119 19.406
11.9271 19.277
11.9423 19.284
11.9574 18.839
11.9726 19.132
11.9878 19.169
12.0030 19.312
12.0181 18.796
12.0333 18.909
12.0485 18.792
12.0637 18.569
12.0788 18.700
12.0940 18.654
12.1092 18.790
12.1244 18.364
12.1395 18.457
12.1547 18.665
12.1699 18.764
12.1851 18.665
12.2002 18.363
12.2154 17.873
12.2306 17.830
12.2458 18.220
12.2609 18.098
12.2761 17.696
12.2913 17.886
12.3065 17.563
12.3216 17.305
12.3368 17.697
12.3520 17.639
12.3672 17.308
12.3823 17.008
12.3975 17.216
12.4127 17.005
12.4279 16.894
12.4430 17.011
12.4582 16.779
12.4734 16.526
12.4886 16.619
12.5037 16.655
12.5189 16.445
12.5341 16.547
12.5493 16.371
12.5644 16.335
12.5796 16.425
12.5948 16.240
12.6100 16.120
12.6251 15.939
12.6403 15.889
12.6555 15.982
12.6707 15.984
12.6858 15.856
12.7010 15.694
12.7162 15.582
12.7314 15.380
12.7465 15.360
12.7617 15.366
12.7769 15.248
12.7921 14.950
12.8072 14.811
12.8224 15.109
12.8376 14.919
12.8528 14.895
12.8679 14.884
12.8831 14.564
12.8983 14.544
12.9135 14.691
12.9286 14.737
12.9438 14.340
12.9590 14.270
12.9742 14.294
12.9893 14.307
13.0045 14.324
13.0197 14.092
13.0349 14.111
13.0500 14.221
13.0652 14.164
13.0804 14.050
13.0956 13.837
13.1107 13.623
13.1259 13.579
13.1411 13.676
13.1563 13.674
13.1714 13.571
13.1866 13.512
13.2018 13.413
13.2170 13.365
13.2321 13.412
13.2473 13.557
13.2625 13.499
13.2777 13.105
13.2928 12.917
13.3080 13.061
13.3232 13.097
13.3384 12.997
13.3535 13.030
13.3687 13.080
13.3839 12.883
13.3991 12.730
13.4142 12.797
13.4294 12.898
13.4446 13.058
13.4598 12.861
13.4749 12.688
13.4901 12.761
13.5053 12.734
13.5205 12.597
13.5356 12.506
13.5508 12.463
13.5660 12.400
13.5812 12.229
13.5963 12.227
13.6115 12.243
13.6267 12.260
13.6419 12.327
13.6570 12.301
13.6722 12.340
13.6874 12.168
13.7026 12.230
13.7177 12.078
13.7329 12.093
13.7481 12.181
13.7633 12.244
13.7784 12.034
13.7936 12.036
13.8088 12.335
13.8239 12.530
13.8391 12.446
13.8543 12.395
13.8695 12.220
13.8846 12.090
13.8998 12.139
13.9150 12.264
13.9302 12.178
13.9453 12.232
13.9605 12.078
13.9757 11.958
13.9909 11.903
14.0060 11.856
14.0212 11.730
14.0364 11.707
14.0516 11.844
14.0667 11.610
14.0819 11.592
14.0971 11.422
14.1123 11.737
14.1274 11.877
14.1426 11.938
14.1578 11.862
14.1730 11.768
14.1881 11.735
14.2033 11.926
14.2185 11.754
14.2337 11.790
14.2488 11.979
14.2640 11.772
14.2792 11.625
14.2944 11.524
14.3095 12.061
14.3247 11.945
14.3399 12.052
14.3551 12.564
14.3702 12.752
14.3854 12.855
14.4006 12.727
14.4158 12.836
14.4309 12.954
14.4461 12.712
14.4613 12.433
14.4765 12.029
14.4916 11.937
14.5068 12.016
14.5220 11.830
14.5372 11.505
14.5523 11.226
14.5675 11.246
14.5827 11.154
14.5979 10.983
14.6130 10.643
14.6282 10.601
14.6434 10.673
14.6586 10.889
14.6737 11.048
14.6889 10.776
14.7041 10.707
14.7193 10.454
14.7344 10.687
14.7496 10.307
14.7648 10.566
14.7800 10.730
14.7951 10.735
14.8103 10.620
14.8255 10.891
14.8407 10.368
14.8558 10.591
14.8710 10.380
14.8862 10.455
14.9014 10.486
14.9165 10.629
14.9317 10.912
14.9469 10.405
14.9621 10.381
14.9772 9.887
14.9924 9.965
15.0076 10.454
15.0228 10.152
15.0379 9.824
15.0531 10.220
15.0683 10.249
15.0835 10.265
15.0986 10.057
15.1138 10.199
15.1290 10.250
15.1442 10.524
15.1593 9.931
15.1745 10.190
15.1897 10.282
15.2049 10.249
15.2200 10.323
15.2352 9.901
15.2504 9.635
15.2656 9.821
15.2807 10.305
15.2959 9.995
15.3111 10.166
15.3263 10.204
15.3414 10.114
15.3566 10.397
15.3718 9.919
15.3870 9.806
15.4021 10.002
15.4173 10.444
15.4325 10.573
15.4477 10.219
15.4628 9.890
15.4780 9.960
15.4932 9.828
15.5084 9.880
15.5235 9.897
15.5387 10.029
15.5539 10.160
15.5691 9.863
15.5842 9.998
15.5994 9.885
15.6146 9.631
15.6298 9.812
15.6449 9.626
15.6601 9.472
15.6753 10.195
15.6905 10.652
15.7056 10.322
15.7208 9.706
15.7360 9.705
15.7512 9.466
15.7663 9.677
15.7815 9.476
15.7967 9.410
15.8119 9.581
15.8270 9.847
15.8422 9.882
15.8574 9.577
15.8726 9.604
15.8877 9.459
15.9029 9.678
15.9181 9.590
15.9333 9.541
15.9484 9.709
15.9636 9.355
15.9788 9.429
15.9940 9.584
16.0091 9.477
16.0243 9.630
16.0395 9.576
16.0547 9.537
16.0698 9.546
16.0850 9.561
16.1002 9.796
16.1154 9.669
16.1305 9.753
16.1457 9.474
16.1609 9.514
16.1761 9.516
16.1912 9.584
16.2064 9.588
16.2216 9.689
16.2368 9.653
16.2519 9.450
16.2671 9.739
16.2823 9.862
16.2975 9.881
16.3126 9.988
16.3278 9.864
16.3430 9.731
16.3582 9.996
16.3733 10.032
16.3885 9.961
16.4037 9.885
16.4189 9.807
16.4340 9.798
16.4492 9.534
16.4644 9.469
16.4796 9.617
16.4947 9.595
16.5099 9.518
16.5251 9.719
16.5403 9.567
16.5554 9.502
16.5706 9.452
16.5858 9.471
16.6010 9.590
16.6161 9.608
16.6313 9.610
16.6465 9.607
16.6617 9.650
16.6768 9.800
16.6920 9.772
16.7072 10.018
16.7224 10.010
16.7375 9.923
16.7527 9.794
16.7679 9.733
16.7831 9.646
16.7982 9.659
16.8134 9.741
16.8286 9.636
16.8438 9.823
16.8589 9.835
16.8741 9.880
16.8893 10.053
16.9045 9.783
16.9196 9.715
16.9348 9.652
16.9500 9.495
16.9652 9.640
16.9803 9.835
16.9955 10.011
17.0107 9.991
17.0259 9.658
17.0410 9.877
17.0562 10.248
17.0714 10.417
17.0866 10.359
17.1017 10.389
17.1169 10.722
17.1321 11.045
17.1473 11.119
17.1624 11.334
17.1776 12.055
17.1928 12.972
17.2080 13.944
17.2231 15.082
17.2383 16.249
17.2535 17.388
17.2687 18.374
17.2838 18.581
17.2990 18.097
17.3142 17.054
17.3294 16.370
17.3445 16.355
17.3597 16.266
17.3749 15.782
17.3901 15.131
17.4052 14.226
17.4204 13.037
17.4356 12.505
17.4508 12.158
17.4659 11.745
17.4811 11.660
17.4963 11.435
17.5115 11.146
17.5266 11.112
17.5418 10.854
17.5570 10.776
17.5722 10.939
17.5873 10.986
17.6025 11.115
17.6177 11.221
17.6329 11.358
17.6480 11.450
17.6632 11.470
17.6784 11.326
17.6936 11.440
17.7087 11.409
17.7239 11.115
17.7391 10.996
17.7543 10.904
17.7694 11.053
17.7846 11.186
17.7998 11.070
17.8150 10.953
17.8301 10.665
17.8453 10.274
17.8605 10.157
17.8757 10.368
17.8908 10.336
17.9060 10.279
17.9212 10.206
17.9364 9.919
17.9515 9.883
17.9667 10.205
17.9819 10.162
17.9971 9.958
18.0122 9.972
18.0274 10.082
18.0426 10.357
18.0578 10.299
18.0729 10.051
18.0881 9.940
18.1033 9.930
18.1185 9.660
18.1336 9.966
18.1488 10.037
18.1640 9.864
18.1792 9.833
18.1943 9.835
18.2095 10.072
18.2247 10.194
18.2399 10.105
18.2550 9.941
18.2702 9.980
18.2854 9.776
18.3006 9.549
18.3157 9.767
18.3309 9.841
18.3461 9.851
18.3613 9.724
18.3764 9.656
18.3916 9.684
18.4068 9.628
18.4220 9.858
18.4371 9.881
18.4523 9.697
18.4675 9.797
18.4827 9.655
18.4978 9.615
18.5130 9.732
18.5282 9.770
18.5434 9.759
18.5585 9.826
18.5737 9.787
18.5889 9.553
18.6041 9.598
18.6192 9.741
18.6344 9.748
18.6496 9.605
18.6648 9.664
18.6799 9.955
18.6951 9.772
18.7103 9.761
18.7255 9.569
18.7406 9.524
18.7558 9.805
18.7710 10.066
18.7862 9.934
18.8013 9.597
18.8165 9.586
18.8317 9.504
18.8469 9.532
18.8620 9.724
18.8772 9.965
18.8924 9.942
18.9076 9.778
18.9227 10.010
18.9379 10.046
18.9531 10.048
18.9683 10.026
18.9834 10.083
18.9986 10.154
19.0138 10.308
19.0290 10.458
19.0441 10.367
19.0593 10.310
19.0745 10.351
19.0897 10.258
19.1048 10.350
19.1200 10.414
19.1352 10.398
19.1504 10.391
19.1655 10.535
19.1807 10.784
19.1959 10.648
19.2111 10.485
19.2262 10.659
19.2414 10.702
19.2566 10.691
19.2718 10.789
19.2869 11.096
19.3021 10.982
19.3173 10.852
19.3325 11.052
19.3476 11.196
19.3628 11.319
19.3780 11.214
19.3932 11.023
19.4083 11.077
19.4235 11.204
19.4387 11.342
19.4539 11.436
19.4690 11.421
19.4842 11.620
19.4994 11.565
19.5146 11.448
19.5297 11.533
19.5449 11.550
19.5601 11.564
19.5753 11.636
19.5904 11.541
19.6056 11.593
19.6208 11.692
19.6360 11.556
19.6511 11.664
19.6663 11.786
19.6815 11.732
19.6967 11.655
19.7118 11.707
19.7270 11.704
19.7422 11.669
19.7574 11.661
19.7725 11.843
19.7877 11.984
19.8029 12.042
19.8180 12.291
19.8332 12.227
19.8484 12.196
19.8636 12.333
19.8787 12.635
19.8939 13.010
19.9091 13.042
19.9243 13.304
19.9394 13.890
19.9546 14.139
19.9698 14.367
19.9850 14.792
20.0001 14.768
20.0153 14.495
20.0305 14.422
20.0457 14.017
20.0608 13.914
20.0760 14.116
20.0912 13.982
20.1064 13.825
20.1215 13.652
20.1367 13.241
20.1519 12.965
20.1671 13.004
20.1822 12.971
20.1974 12.991
20.2126 12.731
20.2278 12.604
20.2429 12.585
20.2581 12.654
20.2733 12.290
20.2885 11.937
20.3036 11.901
20.3188 12.113
20.3340 11.940
20.3492 12.094
20.3643 11.961
20.3795 11.972
20.3947 11.876
20.4099 11.760
20.4250 11.857
20.4402 12.098
20.4554 12.016
20.4706 11.803
20.4857 11.672
20.5009 11.699
20.5161 11.680
20.5313 11.560
20.5464 11.324
20.5616 11.186
20.5768 11.276
20.5920 11.221
20.6071 11.478
20.6223 11.339
20.6375 11.043
20.6527 10.896
20.6678 10.566
20.6830 10.698
20.6982 10.624
20.7134 10.732
20.7285 10.843
20.7437 10.614
20.7589 10.567
20.7741 10.518
20.7892 10.383
20.8044 10.553
20.8196 10.317
20.8348 10.440
20.8499 10.362
20.8651 10.191
20.8803 10.494
20.8955 10.428
20.9106 9.978
20.9258 10.331
20.9410 10.432
20.9562 10.161
20.9713 10.235
20.9865 10.208
21.0017 9.823
21.0169 10.138
21.0320 10.043
21.0472 10.222
21.0624 9.945
21.0776 9.969
21.0927 9.625
21.1079 9.963
21.1231 9.754
21.1383 9.972
21.1534 9.692
21.1686 9.813
21.1838 9.942
21.1990 9.749
21.2141 9.587
21.2293 9.958
21.2445 9.764
21.2597 9.621
21.2748 9.850
21.2900 9.811
21.3052 9.538
21.3204 9.339
21.3355 9.416
21.3507 9.533
21.3659 9.581
21.3811 9.572
21.3962 9.777
21.4114 9.538
21.4266 9.613
21.4418 9.252
21.4569 9.373
21.4721 9.318
21.4873 9.586
21.5025 9.395
21.5176 9.194
21.5328 9.220
21.5480 9.253
21.5632 9.260
21.5783 9.363
21.5935 9.414
21.6087 9.078
21.6239 9.222
21.6390 9.190
21.6542 9.311
21.6694 8.957
21.6846 9.065
21.6997 8.927
21.7149 9.164
21.7301 9.312
21.7453 9.203
21.7604 9.000
21.7756 8.868
21.7908 8.779
21.8060 8.992
21.8211 9.187
21.8363 9.015
21.8515 8.940
21.8667 8.932
21.8818 9.037
21.8970 8.941
21.9122 8.992
21.9274 9.014
21.9425 9.012
21.9577 8.889
21.9729 8.806
21.9881 8.583
22.0032 8.758
22.0184 8.748
22.0336 8.708
22.0488 8.859
22.0639 8.923
22.0791 8.906
22.0943 8.741
22.1095 8.565
22.1246 8.700
22.1398 8.608
22.1550 8.464
22.1702 8.563
22.1853 8.729
22.2005 8.693
22.2157 8.724
22.2309 8.554
22.2460 8.534
22.2612 8.745
22.2764 8.697
22.2916 8.574
22.3067 8.570
22.3219 8.464
22.3371 8.760
22.3523 8.610
22.3674 8.480
22.3826 8.490
22.3978 8.404
22.4130 8.341
22.4281 8.539
22.4433 8.442
22.4585 8.415
22.4737 8.189
22.4888 8.433
22.5040 8.445
22.5192 8.399
22.5344 8.562
22.5495 8.434
22.5647 8.356
22.5799 8.279
22.5951 8.198
22.6102 8.455
22.6254 8.256
22.6406 8.487
22.6558 8.568
22.6709 7.964
22.6861 8.219
22.7013 8.114
22.7165 7.777
22.7316 6.359
