'Id: "" Comment: "" Operator: "Lab Manager" Anode: "Mo" Scantype: "Still (Eiger2R_500K (1D mode))" TimePerStep: "300" X: "11.8" Y: "9.4" Z: "11.284" 
7.2532 18.585
7.2684 18.665
7.2836 18.906
7.2987 18.814
7.3139 19.338
7.3291 18.901
7.3443 19.154
7.3594 19.315
7.3746 18.977
7.3898 19.375
7.4050 19.058
7.4201 19.452
7.4353 19.394
7.4505 19.324
7.4657 19.123
7.4808 19.317
7.4960 19.500
7.5112 19.547
7.5264 19.858
7.5415 19.427
7.5567 19.538
7.5719 19.653
7.5871 20.058
7.6022 20.061
7.6174 20.078
7.6326 20.169
7.6478 19.797
7.6629 20.308
7.6781 20.258
7.6933 20.165
7.7085 20.453
7.7236 20.291
7.7388 20.478
7.7540 20.318
7.7692 20.147
7.7843 20.184
7.7995 20.059
7.8147 20.342
7.8299 20.354
7.8450 20.343
7.8602 20.354
7.8754 20.498
7.8905 20.441
7.9057 20.428
7.9209 20.715
7.9361 20.730
7.9512 21.086
7.9664 21.096
7.9816 20.971
7.9968 20.931
8.0119 20.808
8.0271 20.758
8.0423 20.982
8.0575 20.801
8.0726 20.642
8.0878 20.940
8.1030 21.222
8.1182 21.110
8.1333 21.031
8.1485 21.206
8.1637 21.246
8.1789 21.227
8.1940 21.503
8.2092 21.621
8.2244 21.271
8.2396 21.516
8.2547 21.209
8.2699 21.396
8.2851 21.511
8.3003 21.936
8.3154 21.863
8.3306 21.556
8.3458 21.499
8.3610 21.564
8.3761 21.931
8.3913 22.224
8.4065 21.887
8.4217 21.603
8.4368 21.832
8.4520 21.646
8.4672 21.979
8.4824 21.718
8.4975 22.116
8.5127 22.066
8.5279 22.000
8.5431 21.936
8.5582 21.914
8.5734 21.979
8.5886 22.195
8.6038 22.061
8.6189 22.332
8.6341 22.179
8.6493 21.547
8.6645 22.408
8.6796 22.455
8.6948 22.212
8.7100 22.250
8.7252 22.354
8.7403 21.815
8.7555 22.207
8.7707 22.520
8.7859 22.075
8.8010 22.274
8.8162 22.574
8.8314 22.381
8.8466 22.209
8.8617 22.123
8.8769 22.269
8.8921 22.623
8.9073 22.511
8.9224 22.592
8.9376 22.575
8.9528 22.541
8.9680 22.238
8.9831 22.508
8.9983 22.727
9.0135 22.618
9.0287 22.591
9.0438 22.705
9.0590 22.689
9.0742 22.694
9.0894 22.905
9.1045 22.779
9.1197 22.640
9.1349 22.743
9.1501 23.167
9.1652 22.993
9.1804 22.763
9.1956 22.509
9.2108 22.733
9.2259 22.853
9.2411 22.670
9.2563 22.653
9.2715 23.012
9.2866 22.750
9.3018 22.632
9.3170 22.781
9.3322 22.971
9.3473 22.733
9.3625 22.697
9.3777 22.840
9.3929 23.026
9.4080 23.043
9.4232 23.124
9.4384 23.122
9.4536 23.153
9.4687 23.073
9.4839 23.124
9.4991 23.119
9.5143 23.089
9.5294 22.851
9.5446 22.670
9.5598 22.755
9.5750 23.037
9.5901 23.323
9.6053 23.255
9.6205 23.213
9.6357 23.247
9.6508 23.160
9.6660 23.297
9.6812 23.663
9.6964 23.758
9.7115 23.686
9.7267 23.575
9.7419 23.625
9.7571 23.724
9.7722 23.782
9.7874 23.422
9.8026 23.350
9.8178 23.588
9.8329 23.493
9.8481 23.365
9.8633 23.298
9.8785 23.452
9.8936 23.330
9.9088 23.288
9.9240 23.173
9.9392 23.145
9.9543 23.122
9.9695 22.927
9.9847 22.719
9.9999 22.816
10.0150 23.083
10.0302 23.004
10.0454 23.295
10.0606 23.154
10.0757 22.893
10.0909 23.273
10.1061 23.448
10.1213 23.245
10.1364 23.357
10.1516 23.179
10.1668 23.042
10.1820 23.118
10.1971 23.187
10.2123 23.253
10.2275 23.147
10.2427 22.986
10.2578 22.495
10.2730 22.641
10.2882 23.004
10.3034 22.822
10.3185 22.933
10.3337 22.935
10.3489 22.872
10.3641 23.231
10.3792 23.076
10.3944 22.402
10.4096 22.549
10.4248 22.720
10.4399 22.633
10.4551 22.408
10.4703 22.396
10.4855 22.249
10.5006 22.464
10.5158 22.662
10.5310 22.651
10.5462 22.622
10.5613 22.618
10.5765 22.540
10.5917 22.739
10.6069 22.700
10.6220 22.708
10.6372 22.652
10.6524 22.278
10.6676 22.367
10.6827 22.149
10.6979 22.109
10.7131 22.074
10.7283 22.499
10.7434 22.404
10.7586 21.861
10.7738 22.137
10.7890 22.397
10.8041 22.202
10.8193 22.125
10.8345 22.278
10.8497 22.455
10.8648 22.272
10.8800 21.866
10.8952 22.165
10.9104 22.241
10.9255 22.014
10.9407 21.887
10.9559 21.893
10.9711 21.826
10.9862 22.110
11.0014 22.234
11.0166 22.206
11.0318 22.164
11.0469 22.229
11.0621 21.744
11.0773 21.730
11.0925 22.147
11.1076 22.315
11.1228 21.806
11.1380 22.152
11.1532 22.048
11.1683 21.758
11.1835 21.710
11.1987 21.652
11.2139 21.533
11.2290 21.639
11.2442 21.512
11.2594 21.601
11.2746 21.325
11.2897 21.696
11.3049 21.816
11.3201 21.597
11.3353 21.658
11.3504 21.525
11.3656 21.446
11.3808 21.206
11.3960 21.116
11.4111 21.213
11.4263 21.223
11.4415 21.103
11.4567 21.502
11.4718 21.247
11.4870 21.017
11.5022 20.985
11.5174 20.896
11.5325 21.025
11.5477 20.930
11.5629 20.895
11.5781 20.863
11.5932 20.846
11.6084 20.788
11.6236 20.573
11.6388 20.482
11.6539 20.736
11.6691 20.688
11.6843 20.354
11.6995 20.326
11.7146 19.973
11.7298 20.430
11.7450 20.372
11.7602 19.937
11.7753 19.888
11.7905 19.695
11.8057 19.902
11.8209 20.343
11.8360 20.293
11.8512 19.933
11.8664 19.327
11.8816 19.649
11.8967 20.508
11.9119 20.458
11.9271 19.461
11.9423 19.255
11.9574 19.094
11.9726 19.059
11.9878 19.121
12.0030 18.954
12.0181 19.266
12.0333 19.100
12.0485 18.981
12.0637 18.728
12.0788 18.617
12.0940 18.828
12.1092 18.890
12.1244 18.483
12.1395 18.670
12.1547 18.601
12.1699 18.445
12.1851 18.252
12.2002 18.352
12.2154 18.240
12.2306 18.048
12.2458 17.949
12.2609 18.030
12.2761 17.745
12.2913 17.844
12.3065 17.752
12.3216 17.714
12.3368 17.652
12.3520 17.551
12.3672 17.346
12.3823 17.362
12.3975 17.234
12.4127 17.238
12.4279 16.692
12.4430 16.662
12.4582 16.787
12.4734 16.528
12.4886 16.660
12.5037 16.722
12.5189 16.453
12.5341 16.290
12.5493 16.397
12.5644 16.239
12.5796 16.068
12.5948 16.048
12.6100 16.239
12.6251 16.169
12.6403 16.162
12.6555 16.102
12.6707 15.996
12.6858 15.808
12.7010 15.629
12.7162 15.512
12.7314 15.372
12.7465 15.151
12.7617 15.231
12.7769 15.525
12.7921 15.344
12.8072 15.219
12.8224 15.253
12.8376 15.015
12.8528 14.830
12.8679 14.820
12.8831 14.856
12.8983 14.741
12.9135 14.470
12.9286 14.279
12.9438 14.474
12.9590 14.603
12.9742 14.466
12.9893 14.216
13.0045 14.016
13.0197 14.025
13.0349 13.956
13.0500 14.028
13.0652 13.968
13.0804 13.756
13.0956 13.805
13.1107 13.889
13.1259 13.759
13.1411 13.497
13.1563 13.521
13.1714 13.783
13.1866 13.866
13.2018 13.578
13.2170 13.329
13.2321 13.301
13.2473 13.317
13.2625 13.361
13.2777 13.108
13.2928 12.941
13.3080 13.014
13.3232 13.038
13.3384 13.035
13.3535 12.902
13.3687 13.039
13.3839 13.233
13.3991 12.969
13.4142 12.764
13.4294 12.911
13.4446 12.716
13.4598 12.690
13.4749 12.826
13.4901 12.463
13.5053 12.259
13.5205 12.458
13.5356 12.486
13.5508 12.463
13.5660 12.629
13.5812 12.541
13.5963 12.370
13.6115 12.361
13.6267 12.457
13.6419 12.228
13.6570 12.119
13.6722 12.151
13.6874 12.023
13.7026 12.065
13.7177 11.997
13.7329 11.978
13.7481 12.101
13.7633 12.193
13.7784 12.200
13.7936 11.999
13.8088 12.155
13.8239 12.009
13.8391 12.057
13.8543 12.167
13.8695 12.466
13.8846 12.387
13.8998 12.196
13.9150 12.280
13.9302 12.239
13.9453 11.768
13.9605 11.782
13.9757 11.766
13.9909 11.940
14.0060 11.892
14.0212 11.659
14.0364 11.514
14.0516 11.288
14.0667 11.489
14.0819 11.432
14.0971 11.347
14.1123 11.597
14.1274 11.794
14.1426 11.630
14.1578 11.615
14.1730 11.596
14.1881 11.278
14.2033 11.531
14.2185 11.676
14.2337 11.511
14.2488 11.715
14.2640 11.765
14.2792 11.574
14.2944 11.573
14.3095 12.044
14.3247 12.350
14.3399 12.051
14.3551 12.420
14.3702 12.533
14.3854 12.945
14.4006 13.140
14.4158 13.357
14.4309 13.486
14.4461 12.915
14.4613 12.720
14.4765 12.457
14.4916 12.508
14.5068 12.223
14.5220 11.591
14.5372 11.580
14.5523 11.744
14.5675 11.448
14.5827 11.241
14.5979 11.024
14.6130 10.855
14.6282 10.896
14.6434 11.012
14.6586 11.019
14.6737 10.777
14.6889 10.743
14.7041 10.596
14.7193 10.446
14.7344 10.797
14.7496 10.342
14.7648 10.520
14.7800 10.576
14.7951 10.338
14.8103 10.427
14.8255 10.365
14.8407 10.490
14.8558 10.456
14.8710 10.518
14.8862 10.296
14.9014 10.603
14.9165 10.483
14.9317 10.580
14.9469 10.579
14.9621 10.465
14.9772 10.442
14.9924 10.157
15.0076 10.289
15.0228 10.352
15.0379 10.121
15.0531 10.185
15.0683 9.956
15.0835 10.382
15.0986 10.044
15.1138 10.118
15.1290 10.103
15.1442 10.315
15.1593 10.304
15.1745 10.300
15.1897 9.704
15.2049 10.466
15.2200 10.035
15.2352 10.280
15.2504 10.388
15.2656 10.071
15.2807 10.026
15.2959 10.160
15.3111 10.090
15.3263 9.953
15.3414 10.067
15.3566 9.877
15.3718 9.944
15.3870 10.370
15.4021 10.125
15.4173 9.939
15.4325 10.254
15.4477 10.089
15.4628 10.031
15.4780 10.217
15.4932 9.946
15.5084 10.175
15.5235 9.933
15.5387 9.961
15.5539 10.115
15.5691 9.980
15.5842 9.900
15.5994 9.833
15.6146 9.917
15.6298 9.555
15.6449 9.863
15.6601 9.665
15.6753 10.044
15.6905 9.952
15.7056 9.754
15.7208 9.647
15.7360 9.682
15.7512 9.599
15.7663 9.702
15.7815 9.880
15.7967 9.885
15.8119 9.792
15.8270 9.733
15.8422 9.702
15.8574 9.691
15.8726 9.444
15.8877 9.441
15.9029 9.340
15.9181 9.523
15.9333 9.768
15.9484 9.647
15.9636 9.395
15.9788 9.676
15.9940 9.582
16.0091 9.520
16.0243 9.679
16.0395 9.568
16.0547 9.522
16.0698 9.598
16.0850 9.598
16.1002 9.519
16.1154 9.676
16.1305 9.619
16.1457 9.572
16.1609 9.640
16.1761 9.537
16.1912 9.579
16.2064 9.666
16.2216 9.812
16.2368 9.627
16.2519 9.822
16.2671 9.726
16.2823 9.834
16.2975 9.979
16.3126 9.670
16.3278 9.701
16.3430 9.918
16.3582 9.742
16.3733 9.732
16.3885 9.840
16.4037 9.725
16.4189 9.683
16.4340 9.617
16.4492 9.420
16.4644 9.550
16.4796 9.845
16.4947 9.785
16.5099 9.454
16.5251 9.572
16.5403 9.634
16.5554 9.683
16.5706 9.604
16.5858 9.439
16.6010 9.493
16.6161 9.406
16.6313 9.667
16.6465 9.799
16.6617 9.484
16.6768 9.460
16.6920 9.584
16.7072 9.785
16.7224 9.914
16.7375 9.873
16.7527 9.840
16.7679 9.799
16.7831 9.597
16.7982 9.715
16.8134 9.704
16.8286 9.834
16.8438 9.892
16.8589 9.655
16.8741 9.595
16.8893 9.576
16.9045 9.629
16.9196 9.585
16.9348 9.632
16.9500 9.616
16.9652 9.568
16.9803 9.602
16.9955 9.709
17.0107 9.722
17.0259 9.838
17.0410 9.816
17.0562 10.042
17.0714 10.271
17.0866 10.191
17.1017 10.597
17.1169 10.735
17.1321 10.739
17.1473 11.114
17.1624 11.444
17.1776 11.867
17.1928 12.730
17.2080 13.953
17.2231 15.026
17.2383 16.115
17.2535 17.393
17.2687 18.630
17.2838 19.085
17.2990 18.362
17.3142 17.121
17.3294 16.368
17.3445 16.302
17.3597 16.233
17.3749 15.835
17.3901 15.298
17.4052 14.110
17.4204 12.968
17.4356 12.539
17.4508 12.030
17.4659 11.585
17.4811 11.430
17.4963 11.432
17.5115 11.260
17.5266 11.039
17.5418 10.927
17.5570 11.068
17.5722 10.974
17.5873 10.849
17.6025 11.066
17.6177 11.122
17.6329 11.296
17.6480 11.290
17.6632 11.374
17.6784 11.588
17.6936 11.719
17.7087 11.894
17.7239 11.789
17.7391 11.521
17.7543 11.289
17.7694 11.324
17.7846 11.398
17.7998 11.187
17.8150 10.972
17.8301 10.797
17.8453 10.553
17.8605 10.469
17.8757 10.591
17.8908 10.341
17.9060 10.247
17.9212 10.402
17.9364 10.404
17.9515 10.339
17.9667 10.088
17.9819 10.209
17.9971 10.175
18.0122 9.999
18.0274 10.125
18.0426 10.271
18.0578 10.298
18.0729 10.274
18.0881 10.174
18.1033 10.151
18.1185 10.016
18.1336 10.016
18.1488 10.008
18.1640 9.717
18.1792 9.589
18.1943 9.870
18.2095 9.896
18.2247 9.640
18.2399 9.707
18.2550 9.843
18.2702 9.914
18.2854 9.952
18.3006 9.998
18.3157 10.058
18.3309 9.867
18.3461 9.714
18.3613 9.908
18.3764 10.060
18.3916 9.928
18.4068 9.927
18.4220 9.746
18.4371 9.632
18.4523 9.723
18.4675 9.838
18.4827 9.846
18.4978 9.906
18.5130 10.008
18.5282 9.809
18.5434 9.741
18.5585 9.842
18.5737 9.723
18.5889 9.790
18.6041 9.915
18.6192 9.606
18.6344 9.583
18.6496 9.871
18.6648 9.825
18.6799 9.856
18.6951 9.921
18.7103 9.726
18.7255 9.840
18.7406 9.694
18.7558 9.576
18.7710 9.894
18.7862 10.005
18.8013 9.656
18.8165 9.588
18.8317 9.817
18.8469 9.856
18.8620 9.860
18.8772 9.872
18.8924 9.807
18.9076 9.784
18.9227 9.900
18.9379 9.894
18.9531 9.800
18.9683 9.778
18.9834 9.969
18.9986 10.156
19.0138 10.191
19.0290 10.357
19.0441 10.387
19.0593 10.217
19.0745 10.382
19.0897 10.163
19.1048 10.179
19.1200 10.469
19.1352 10.531
19.1504 10.590
19.1655 10.698
19.1807 11.017
19.1959 10.867
19.2111 10.531
19.2262 10.711
19.2414 10.805
19.2566 10.681
19.2718 10.722
19.2869 10.810
19.3021 10.988
19.3173 11.142
19.3325 11.093
19.3476 10.961
19.3628 10.927
19.3780 10.992
19.3932 11.172
19.4083 11.276
19.4235 11.519
19.4387 11.533
19.4539 11.311
19.4690 11.068
19.4842 10.912
19.4994 11.308
19.5146 11.542
19.5297 11.592
19.5449 11.649
19.5601 11.440
19.5753 11.432
19.5904 11.732
19.6056 11.826
19.6208 11.750
19.6360 11.665
19.6511 11.531
19.6663 11.508
19.6815 11.652
19.6967 11.622
19.7118 11.636
19.7270 11.628
19.7422 11.698
19.7574 11.811
19.7725 11.856
19.7877 12.003
19.8029 12.217
19.8180 12.052
19.8332 11.959
19.8484 12.330
19.8636 12.403
19.8787 12.586
19.8939 12.955
19.9091 13.190
19.9243 13.402
19.9394 13.681
19.9546 14.124
19.9698 14.091
19.9850 14.172
20.0001 14.310
20.0153 13.927
20.0305 13.651
20.0457 13.923
20.0608 14.084
20.0760 13.785
20.0912 13.870
20.1064 13.913
20.1215 13.652
20.1367 13.174
20.1519 13.139
20.1671 13.188
20.1822 13.132
20.1974 12.800
20.2126 12.739
20.2278 12.975
20.2429 12.830
20.2581 12.418
20.2733 12.079
20.2885 11.957
20.3036 12.081
20.3188 12.027
20.3340 12.054
20.3492 11.963
20.3643 11.869
20.3795 11.879
20.3947 12.085
20.4099 11.906
20.4250 11.796
20.4402 11.868
20.4554 11.937
20.4706 12.092
20.4857 12.040
20.5009 11.806
20.5161 11.532
20.5313 11.681
20.5464 11.657
20.5616 11.490
20.5768 11.651
20.5920 11.788
20.6071 11.482
20.6223 11.484
20.6375 11.180
20.6527 10.920
20.6678 10.846
20.6830 10.876
20.6982 10.931
20.7134 10.853
20.7285 10.667
20.7437 10.524
20.7589 10.574
20.7741 10.706
20.7892 10.595
20.8044 10.318
20.8196 10.501
20.8348 10.653
20.8499 10.472
20.8651 10.224
20.8803 10.188
20.8955 10.375
20.9106 10.554
20.9258 10.520
20.9410 10.191
20.9562 10.058
20.9713 9.976
20.9865 10.085
21.0017 10.120
21.0169 9.938
21.0320 10.169
21.0472 9.783
21.0624 9.954
21.0776 9.833
21.0927 10.156
21.1079 10.207
21.1231 10.027
21.1383 10.126
21.1534 9.452
21.1686 9.825
21.1838 9.939
21.1990 9.743
21.2141 9.795
21.2293 9.787
21.2445 9.655
21.2597 9.848
21.2748 9.707
21.2900 9.492
21.3052 9.780
21.3204 9.769
21.3355 9.422
21.3507 9.387
21.3659 9.592
21.3811 9.567
21.3962 9.725
21.4114 9.803
21.4266 9.688
21.4418 9.325
21.4569 9.420
21.4721 9.357
21.4873 9.265
21.5025 9.279
21.5176 9.221
21.5328 9.205
21.5480 8.973
21.5632 9.261
21.5783 9.368
21.5935 9.389
21.6087 8.932
21.6239 9.407
21.6390 8.973
21.6542 9.245
21.6694 9.090
21.6846 9.242
21.6997 9.156
21.7149 9.179
21.7301 9.080
21.7453 8.997
21.7604 8.961
21.7756 9.058
21.7908 9.052
21.8060 8.846
21.8211 8.984
21.8363 9.054
21.8515 9.056
21.8667 9.253
21.8818 9.203
21.8970 8.930
21.9122 9.003
21.9274 8.966
21.9425 8.839
21.9577 8.907
21.9729 9.015
21.9881 8.908
22.0032 8.984
22.0184 8.967
22.0336 8.749
22.0488 8.741
22.0639 8.718
22.0791 8.630
22.0943 8.503
22.1095 8.471
22.1246 8.801
22.1398 8.723
22.1550 8.477
22.1702 8.341
22.1853 8.494
22.2005 8.493
22.2157 8.395
22.2309 8.460
22.2460 8.580
22.2612 8.304
22.2764 8.329
22.2916 8.284
22.3067 8.537
22.3219 8.525
22.3371 8.498
22.3523 8.388
22.3674 8.469
22.3826 8.431
22.3978 8.309
22.4130 8.504
22.4281 8.377
22.4433 8.317
22.4585 8.260
22.4737 8.322
22.4888 8.167
22.5040 8.419
22.5192 8.258
22.5344 8.200
22.5495 8.473
22.5647 8.563
22.5799 8.403
22.5951 8.293
22.6102 8.310
22.6254 8.001
22.6406 8.387
22.6558 8.300
22.6709 8.132
22.6861 8.135
22.7013 8.286
22.7165 7.780
22.7316 6.252
