'Id: "" Comment: "" Operator: "Lab Manager" Anode: "Mo" Scantype: "Still (Eiger2R_500K (1D mode))" TimePerStep: "300" X: "11.8" Y: "9.4" Z: "11.284" 
7.2532 18.597
7.2684 19.104
7.2836 19.268
7.2987 19.227
7.3139 19.259
7.3291 19.233
7.3443 19.576
7.3594 20.010
7.3746 20.072
7.3898 20.331
7.4050 19.876
7.4201 19.795
7.4353 19.908
7.4505 19.773
7.4657 19.858
7.4808 20.133
7.4960 19.897
7.5112 19.951
7.5264 20.018
7.5415 20.273
7.5567 20.494
7.5719 20.478
7.5871 20.225
7.6022 20.257
7.6174 20.201
7.6326 20.323
7.6478 20.188
7.6629 20.418
7.6781 20.726
7.6933 20.554
7.7085 20.453
7.7236 20.336
7.7388 20.167
7.7540 20.543
7.7692 20.983
7.7843 20.727
7.7995 20.635
7.8147 21.014
7.8299 20.949
7.8450 21.233
7.8602 21.443
7.8754 21.327
7.8905 21.337
7.9057 21.522
7.9209 21.460
7.9361 21.117
7.9512 21.187
7.9664 21.193
7.9816 21.201
7.9968 21.380
8.0119 21.558
8.0271 21.457
8.0423 21.722
8.0575 21.194
8.0726 21.203
8.0878 21.474
8.1030 21.493
8.1182 21.663
8.1333 21.932
8.1485 21.696
8.1637 21.639
8.1789 21.466
8.1940 21.910
8.2092 22.134
8.2244 22.158
8.2396 21.820
8.2547 22.101
8.2699 22.013
8.2851 21.920
8.3003 22.121
8.3154 22.262
8.3306 22.013
8.3458 22.104
8.3610 22.208
8.3761 22.084
8.3913 22.121
8.4065 22.685
8.4217 22.426
8.4368 22.416
8.4520 22.383
8.4672 22.364
8.4824 21.910
8.4975 22.605
8.5127 22.744
8.5279 23.173
8.5431 22.919
8.5582 22.970
8.5734 23.234
8.5886 22.775
8.6038 22.123
8.6189 22.667
8.6341 22.808
8.6493 22.589
8.6645 22.692
8.6796 22.416
8.6948 22.875
8.7100 22.714
8.7252 23.148
8.7403 22.487
8.7555 22.053
8.7707 23.052
8.7859 22.389
8.8010 22.883
8.8162 22.731
8.8314 22.822
8.8466 23.381
8.8617 23.306
8.8769 23.126
8.8921 23.218
8.9073 23.078
8.9224 22.759
8.9376 23.107
8.9528 23.336
8.9680 23.143
8.9831 22.947
8.9983 23.266
9.0135 23.313
9.0287 23.247
9.0438 22.782
9.0590 23.249
9.0742 23.544
9.0894 23.290
9.1045 23.308
9.1197 23.020
9.1349 22.957
9.1501 22.883
9.1652 23.052
9.1804 23.257
9.1956 22.923
9.2108 23.168
9.2259 23.240
9.2411 22.776
9.2563 23.329
9.2715 23.521
9.2866 23.348
9.3018 23.192
9.3170 23.470
9.3322 23.287
9.3473 22.875
9.3625 23.192
9.3777 23.406
9.3929 23.816
9.4080 23.478
9.4232 23.262
9.4384 23.291
9.4536 23.334
9.4687 23.186
9.4839 23.246
9.4991 23.473
9.5143 23.749
9.5294 23.739
9.5446 23.345
9.5598 23.729
9.5750 24.212
9.5901 24.004
9.6053 23.768
9.6205 23.677
9.6357 23.678
9.6508 23.852
9.6660 24.079
9.6812 24.354
9.6964 24.208
9.7115 24.126
9.7267 24.366
9.7419 24.321
9.7571 24.477
9.7722 24.840
9.7874 25.001
9.8026 25.079
9.8178 24.539
9.8329 24.070
9.8481 24.376
9.8633 24.586
9.8785 24.649
9.8936 24.646
9.9088 24.716
9.9240 25.079
9.9392 24.918
9.9543 24.791
9.9695 24.993
9.9847 24.763
9.9999 24.450
10.0150 23.954
10.0302 23.922
10.0454 24.290
10.0606 24.017
10.0757 23.981
10.0909 24.321
10.1061 24.517
10.1213 24.511
10.1364 24.428
10.1516 24.549
10.1668 24.784
10.1820 24.657
10.1971 24.237
10.2123 24.171
10.2275 24.114
10.2427 23.575
10.2578 23.161
10.2730 23.021
10.2882 23.151
10.3034 23.654
10.3185 23.920
10.3337 23.599
10.3489 23.214
10.3641 23.542
10.3792 23.659
10.3944 23.498
10.4096 23.682
10.4248 23.926
10.4399 23.251
10.4551 23.056
10.4703 23.572
10.4855 23.834
10.5006 23.332
10.5158 23.029
10.5310 22.955
10.5462 23.239
10.5613 23.213
10.5765 23.435
10.5917 23.185
10.6069 23.000
10.6220 23.245
10.6372 22.897
10.6524 22.938
10.6676 23.294
10.6827 23.103
10.6979 23.129
10.7131 23.266
10.7283 22.956
10.7434 22.577
10.7586 22.974
10.7738 23.158
10.7890 22.999
10.8041 22.937
10.8193 22.926
10.8345 22.715
10.8497 22.548
10.8648 22.741
10.8800 22.521
10.8952 22.735
10.9104 22.763
10.9255 22.773
10.9407 22.366
10.9559 22.449
10.9711 21.867
10.9862 22.320
11.0014 22.642
11.0166 22.519
11.0318 22.583
11.0469 22.043
11.0621 21.984
11.0773 21.794
11.0925 21.866
11.1076 22.140
11.1228 21.845
11.1380 21.814
11.1532 22.227
11.1683 22.088
11.1835 21.829
11.1987 21.907
11.2139 22.139
11.2290 21.902
11.2442 22.045
11.2594 22.166
11.2746 22.225
11.2897 21.640
11.3049 21.650
11.3201 21.697
11.3353 21.801
11.3504 21.960
11.3656 21.957
11.3808 21.930
11.3960 21.853
11.4111 22.046
11.4263 21.715
11.4415 21.384
11.4567 21.637
11.4718 21.604
11.4870 21.855
11.5022 21.664
11.5174 21.387
11.5325 21.681
11.5477 21.681
11.5629 21.302
11.5781 21.253
11.5932 21.315
11.6084 21.212
11.6236 20.968
11.6388 20.820
11.6539 21.215
11.6691 21.032
11.6843 20.719
11.6995 20.827
11.7146 20.526
11.7298 20.456
11.7450 20.451
11.7602 20.388
11.7753 20.336
11.7905 20.500
11.8057 20.716
11.8209 20.295
11.8360 20.323
11.8512 20.240
11.8664 20.162
11.8816 20.072
11.8967 19.893
11.9119 19.756
11.9271 19.417
11.9423 19.816
11.9574 20.032
11.9726 19.989
11.9878 19.623
12.0030 19.479
12.0181 19.211
12.0333 19.083
12.0485 19.190
12.0637 19.412
12.0788 19.299
12.0940 18.998
12.1092 19.275
12.1244 19.173
12.1395 18.795
12.1547 18.345
12.1699 18.384
12.1851 18.604
12.2002 18.523
12.2154 18.334
12.2306 18.015
12.2458 18.022
12.2609 18.306
12.2761 17.993
12.2913 17.894
12.3065 18.042
12.3216 17.951
12.3368 17.701
12.3520 17.652
12.3672 17.597
12.3823 17.539
12.3975 17.566
12.4127 17.322
12.4279 17.192
12.4430 17.043
12.4582 17.065
12.4734 17.043
12.4886 16.951
12.5037 16.652
12.5189 16.726
12.5341 16.859
12.5493 16.398
12.5644 16.166
12.5796 16.252
12.5948 16.260
12.6100 16.270
12.6251 16.056
12.6403 16.068
12.6555 16.189
12.6707 16.147
12.6858 15.948
12.7010 15.979
12.7162 15.833
12.7314 15.655
12.7465 15.546
12.7617 15.387
12.7769 15.459
12.7921 15.503
12.8072 15.317
12.8224 15.054
12.8376 15.016
12.8528 14.917
12.8679 14.942
12.8831 14.991
12.8983 14.968
12.9135 14.927
12.9286 14.705
12.9438 14.579
12.9590 14.450
12.9742 14.342
12.9893 14.405
13.0045 14.336
13.0197 14.313
13.0349 14.306
13.0500 14.264
13.0652 14.059
13.0804 14.020
13.0956 14.093
13.1107 14.035
13.1259 14.092
13.1411 14.211
13.1563 14.182
13.1714 13.711
13.1866 13.579
13.2018 13.683
13.2170 13.644
13.2321 13.614
13.2473 13.430
13.2625 13.200
13.2777 13.239
13.2928 13.648
13.3080 13.664
13.3232 13.441
13.3384 13.152
13.3535 13.088
13.3687 13.253
13.3839 13.002
13.3991 12.891
13.4142 12.897
13.4294 12.933
13.4446 13.073
13.4598 12.908
13.4749 12.808
13.4901 12.769
13.5053 12.912
13.5205 12.849
13.5356 12.229
13.5508 12.282
13.5660 12.476
13.5812 12.478
13.5963 12.190
13.6115 12.215
13.6267 12.153
13.6419 12.071
13.6570 12.194
13.6722 12.242
13.6874 12.186
13.7026 12.259
13.7177 12.286
13.7329 12.205
13.7481 12.229
13.7633 12.227
13.7784 12.237
13.7936 12.263
13.8088 12.402
13.8239 12.566
13.8391 12.280
13.8543 12.145
13.8695 12.220
13.8846 12.147
13.8998 12.161
13.9150 12.040
13.9302 11.980
13.9453 11.919
13.9605 12.086
13.9757 11.954
13.9909 11.486
14.0060 11.596
14.0212 11.660
14.0364 11.677
14.0516 11.353
14.0667 11.318
14.0819 11.350
14.0971 11.619
14.1123 11.734
14.1274 11.441
14.1426 11.414
14.1578 11.362
14.1730 11.402
14.1881 11.446
14.2033 11.437
14.2185 11.498
14.2337 11.733
14.2488 11.356
14.2640 11.576
14.2792 11.572
14.2944 11.907
14.3095 11.876
14.3247 12.165
14.3399 12.258
14.3551 12.923
14.3702 13.401
14.3854 13.584
14.4006 14.411
14.4158 15.172
14.4309 15.448
14.4461 15.237
14.4613 14.596
14.4765 14.025
14.4916 13.827
14.5068 13.980
14.5220 13.658
14.5372 12.937
14.5523 12.125
14.5675 11.702
14.5827 11.405
14.5979 11.305
14.6130 11.544
14.6282 11.313
14.6434 11.614
14.6586 10.894
14.6737 11.262
14.6889 11.478
14.7041 11.114
14.7193 11.151
14.7344 11.307
14.7496 11.447
14.7648 11.321
14.7800 11.603
14.7951 11.653
14.8103 11.243
14.8255 11.157
14.8407 11.140
14.8558 11.227
14.8710 11.390
14.8862 10.941
14.9014 11.158
14.9165 11.000
14.9317 11.095
14.9469 10.855
14.9621 10.951
14.9772 10.674
14.9924 10.680
15.0076 10.710
15.0228 10.653
15.0379 10.880
15.0531 10.986
15.0683 10.728
15.0835 10.477
15.0986 10.549
15.1138 10.639
15.1290 10.360
15.1442 10.533
15.1593 10.372
15.1745 10.771
15.1897 10.763
15.2049 10.460
15.2200 10.582
15.2352 10.282
15.2504 10.656
15.2656 10.899
15.2807 10.435
15.2959 10.389
15.3111 10.399
15.3263 10.913
15.3414 10.359
15.3566 10.116
15.3718 10.331
15.3870 10.222
15.4021 10.137
15.4173 10.492
15.4325 10.436
15.4477 10.553
15.4628 10.533
15.4780 10.423
15.4932 10.509
15.5084 10.843
15.5235 10.547
15.5387 10.571
15.5539 10.477
15.5691 10.730
15.5842 10.617
15.5994 10.444
15.6146 10.578
15.6298 10.403
15.6449 10.259
15.6601 10.205
15.6753 10.126
15.6905 10.186
15.7056 10.078
15.7208 10.228
15.7360 10.083
15.7512 10.151
15.7663 9.924
15.7815 9.738
15.7967 10.302
15.8119 9.994
15.8270 9.960
15.8422 9.845
15.8574 9.709
15.8726 9.834
15.8877 9.951
15.9029 9.895
15.9181 9.917
15.9333 9.653
15.9484 9.882
15.9636 9.691
15.9788 9.829
15.9940 9.984
16.0091 10.167
16.0243 9.981
16.0395 9.835
16.0547 9.836
16.0698 9.660
16.0850 9.723
16.1002 9.777
16.1154 9.892
16.1305 9.793
16.1457 9.568
16.1609 9.752
16.1761 9.895
16.1912 9.889
16.2064 9.817
16.2216 9.936
16.2368 10.094
16.2519 10.284
16.2671 10.168
16.2823 10.457
16.2975 10.489
16.3126 10.298
16.3278 10.386
16.3430 10.360
16.3582 10.436
16.3733 10.230
16.3885 10.248
16.4037 10.197
16.4189 10.211
16.4340 10.100
16.4492 10.118
16.4644 10.083
16.4796 9.997
16.4947 10.094
16.5099 10.013
16.5251 10.057
16.5403 10.079
16.5554 9.899
16.5706 10.102
16.5858 9.981
16.6010 10.078
16.6161 9.971
16.6313 9.908
16.6465 10.002
16.6617 10.194
16.6768 10.110
16.6920 9.981
16.7072 10.118
16.7224 10.307
16.7375 10.328
16.7527 10.355
16.7679 10.142
16.7831 9.896
16.7982 9.986
16.8134 10.317
16.8286 10.348
16.8438 10.216
16.8589 10.031
16.8741 9.706
16.8893 9.923
16.9045 10.030
16.9196 9.933
16.9348 10.006
16.9500 9.849
16.9652 10.051
16.9803 10.201
16.9955 9.978
17.0107 9.888
17.0259 10.208
17.0410 10.143
17.0562 10.299
17.0714 10.387
17.0866 10.365
17.1017 10.809
17.1169 10.939
17.1321 11.082
17.1473 11.265
17.1624 11.847
17.1776 12.583
17.1928 13.261
17.2080 14.149
17.2231 15.115
17.2383 16.456
17.2535 17.741
17.2687 18.574
17.2838 18.830
17.2990 18.430
17.3142 17.491
17.3294 16.364
17.3445 16.187
17.3597 16.418
17.3749 16.213
17.3901 15.536
17.4052 14.282
17.4204 13.089
17.4356 12.340
17.4508 11.906
17.4659 11.725
17.4811 11.488
17.4963 11.200
17.5115 11.169
17.5266 11.130
17.5418 10.891
17.5570 10.458
17.5722 10.472
17.5873 10.902
17.6025 10.973
17.6177 10.739
17.6329 10.755
17.6480 11.214
17.6632 11.825
17.6784 12.465
17.6936 13.206
17.7087 13.510
17.7239 12.958
17.7391 12.366
17.7543 12.148
17.7694 12.401
17.7846 12.756
17.7998 12.770
17.8150 12.855
17.8301 12.489
17.8453 12.062
17.8605 11.643
17.8757 11.631
17.8908 11.691
17.9060 11.726
17.9212 11.617
17.9364 11.244
17.9515 10.934
17.9667 10.840
17.9819 10.957
17.9971 10.866
18.0122 10.503
18.0274 10.579
18.0426 10.787
18.0578 10.748
18.0729 10.591
18.0881 10.256
18.1033 10.038
18.1185 10.173
18.1336 10.322
18.1488 10.246
18.1640 10.137
18.1792 10.208
18.1943 10.082
18.2095 10.140
18.2247 10.313
18.2399 10.266
18.2550 10.030
18.2702 9.962
18.2854 10.077
18.3006 10.216
18.3157 10.275
18.3309 10.296
18.3461 10.124
18.3613 9.987
18.3764 10.293
18.3916 10.221
18.4068 9.896
18.4220 9.728
18.4371 9.994
18.4523 9.992
18.4675 10.019
18.4827 10.255
18.4978 10.061
18.5130 9.935
18.5282 9.869
18.5434 9.677
18.5585 9.987
18.5737 10.070
18.5889 10.152
18.6041 9.994
18.6192 10.071
18.6344 10.066
18.6496 10.012
18.6648 10.191
18.6799 10.277
18.6951 9.864
18.7103 9.588
18.7255 9.772
18.7406 9.910
18.7558 9.916
18.7710 9.901
18.7862 9.891
18.8013 10.006
18.8165 9.842
18.8317 9.945
18.8469 9.859
18.8620 10.027
18.8772 10.116
18.8924 10.117
18.9076 10.096
18.9227 10.256
18.9379 10.178
18.9531 9.817
18.9683 10.088
18.9834 10.427
18.9986 10.428
19.0138 10.190
19.0290 10.172
19.0441 10.536
19.0593 10.495
19.0745 10.438
19.0897 10.489
19.1048 10.399
19.1200 10.481
19.1352 10.398
19.1504 10.579
19.1655 10.779
19.1807 10.682
19.1959 10.687
19.2111 10.914
19.2262 10.798
19.2414 10.863
19.2566 10.990
19.2718 11.201
19.2869 11.306
19.3021 11.174
19.3173 11.166
19.3325 11.244
19.3476 11.223
19.3628 11.171
19.3780 11.024
19.3932 11.157
19.4083 11.272
19.4235 11.153
19.4387 11.164
19.4539 11.506
19.4690 11.533
19.4842 11.542
19.4994 11.556
19.5146 11.328
19.5297 11.344
19.5449 11.444
19.5601 11.514
19.5753 11.573
19.5904 11.740
19.6056 11.952
19.6208 11.575
19.6360 11.410
19.6511 11.694
19.6663 11.781
19.6815 11.777
19.6967 11.870
19.7118 11.728
19.7270 11.739
19.7422 11.888
19.7574 11.991
19.7725 11.982
19.7877 11.730
19.8029 11.898
19.8180 12.153
19.8332 12.187
19.8484 12.488
19.8636 12.764
19.8787 12.633
19.8939 12.631
19.9091 12.871
19.9243 13.442
19.9394 14.035
19.9546 14.197
19.9698 14.529
19.9850 14.743
20.0001 14.687
20.0153 14.591
20.0305 14.601
20.0457 14.258
20.0608 13.960
20.0760 14.087
20.0912 13.968
20.1064 13.869
20.1215 13.783
20.1367 13.409
20.1519 13.244
20.1671 12.824
20.1822 12.751
20.1974 12.819
20.2126 12.553
20.2278 12.602
20.2429 12.357
20.2581 11.898
20.2733 11.863
20.2885 11.894
20.3036 11.736
20.3188 11.659
20.3340 11.725
20.3492 11.620
20.3643 11.605
20.3795 11.413
20.3947 11.601
20.4099 11.923
20.4250 11.712
20.4402 12.056
20.4554 12.189
20.4706 12.386
20.4857 12.690
20.5009 12.309
20.5161 11.910
20.5313 11.593
20.5464 11.641
20.5616 11.867
20.5768 11.766
20.5920 11.897
20.6071 12.178
20.6223 11.844
20.6375 11.556
20.6527 11.307
20.6678 10.863
20.6830 10.869
20.6982 10.958
20.7134 10.602
20.7285 10.502
20.7437 10.378
20.7589 10.533
20.7741 10.405
20.7892 10.391
20.8044 10.505
20.8196 10.747
20.8348 10.626
20.8499 10.379
20.8651 10.393
20.8803 10.439
20.8955 10.587
20.9106 10.391
20.9258 10.692
20.9410 10.889
20.9562 10.638
20.9713 10.580
20.9865 10.655
21.0017 10.884
21.0169 10.415
21.0320 10.251
21.0472 10.533
21.0624 10.404
21.0776 10.518
21.0927 10.064
21.1079 10.561
21.1231 10.440
21.1383 10.174
21.1534 10.365
21.1686 10.169
21.1838 10.176
21.1990 10.109
21.2141 9.891
21.2293 10.370
21.2445 9.854
21.2597 9.596
21.2748 9.872
21.2900 9.643
21.3052 9.869
21.3204 9.725
21.3355 9.717
21.3507 9.582
21.3659 9.536
21.3811 9.843
21.3962 9.623
21.4114 9.450
21.4266 9.828
21.4418 9.539
21.4569 9.678
21.4721 9.730
21.4873 9.561
21.5025 9.329
21.5176 9.155
21.5328 9.389
21.5480 9.243
21.5632 9.232
21.5783 9.198
21.5935 9.309
21.6087 9.304
21.6239 9.343
21.6390 9.286
21.6542 8.999
21.6694 9.446
21.6846 9.145
21.6997 9.101
21.7149 9.240
21.7301 9.255
21.7453 9.008
21.7604 9.066
21.7756 9.200
21.7908 9.239
21.8060 9.209
21.8211 9.154
21.8363 8.970
21.8515 8.974
21.8667 9.178
21.8818 9.182
21.8970 9.080
21.9122 9.106
21.9274 9.192
21.9425 9.396
21.9577 9.220
21.9729 9.003
21.9881 8.987
22.0032 8.914
22.0184 8.814
22.0336 8.704
22.0488 8.944
22.0639 8.955
22.0791 8.969
22.0943 8.967
22.1095 8.747
22.1246 8.702
22.1398 8.682
22.1550 8.674
22.1702 8.711
22.1853 8.853
22.2005 8.724
22.2157 8.576
22.2309 8.636
22.2460 8.728
22.2612 8.614
22.2764 8.699
22.2916 8.517
22.3067 8.345
22.3219 8.452
22.3371 8.563
22.3523 8.557
22.3674 8.530
22.3826 8.413
22.3978 8.686
22.4130 8.687
22.4281 8.699
22.4433 8.696
22.4585 8.456
22.4737 8.524
22.4888 8.614
22.5040 8.649
22.5192 8.353
22.5344 8.456
22.5495 8.761
22.5647 8.499
22.5799 9.042
22.5951 8.521
22.6102 8.541
22.6254 8.580
22.6406 8.448
22.6558 8.493
22.6709 8.155
22.6861 8.302
22.7013 8.444
22.7165 8.074
22.7316 6.465
