'Id: "" Comment: "" Operator: "Lab Manager" Anode: "Mo" Scantype: "Still (Eiger2R_500K (1D mode))" TimePerStep: "300" X: "11.8" Y: "9.4" Z: "11.284" 
7.2532 18.918
7.2684 18.597
7.2836 18.946
7.2987 18.985
7.3139 18.537
7.3291 18.997
7.3443 18.720
7.3594 19.477
7.3746 18.656
7.3898 19.141
7.4050 19.036
7.4201 19.417
7.4353 19.515
7.4505 19.348
7.4657 19.487
7.4808 19.414
7.4960 19.736
7.5112 19.349
7.5264 19.528
7.5415 19.525
7.5567 19.488
7.5719 19.685
7.5871 20.084
7.6022 19.987
7.6174 19.715
7.6326 20.025
7.6478 20.149
7.6629 20.104
7.6781 20.155
7.6933 20.237
7.7085 20.330
7.7236 20.243
7.7388 20.157
7.7540 20.428
7.7692 20.509
7.7843 20.383
7.7995 20.512
7.8147 20.749
7.8299 20.415
7.8450 20.389
7.8602 20.539
7.8754 20.679
7.8905 20.727
7.9057 20.581
7.9209 20.495
7.9361 20.645
7.9512 20.769
7.9664 20.694
7.9816 20.765
7.9968 20.691
8.0119 20.648
8.0271 20.708
8.0423 20.862
8.0575 21.119
8.0726 21.001
8.0878 20.848
8.1030 21.303
8.1182 21.030
8.1333 21.160
8.1485 20.863
8.1637 21.014
8.1789 21.062
8.1940 21.644
8.2092 21.350
8.2244 21.296
8.2396 21.640
8.2547 21.040
8.2699 21.213
8.2851 21.754
8.3003 21.703
8.3154 21.563
8.3306 21.830
8.3458 21.807
8.3610 21.905
8.3761 21.809
8.3913 22.001
8.4065 21.350
8.4217 22.245
8.4368 22.311
8.4520 22.341
8.4672 21.398
8.4824 22.157
8.4975 21.973
8.5127 21.991
8.5279 22.295
8.5431 22.089
8.5582 22.367
8.5734 21.692
8.5886 22.145
8.6038 22.724
8.6189 22.515
8.6341 22.632
8.6493 22.377
8.6645 22.187
8.6796 22.088
8.6948 22.218
8.7100 22.039
8.7252 22.333
8.7403 21.930
8.7555 22.311
8.7707 22.251
8.7859 22.936
8.8010 22.352
8.8162 22.687
8.8314 22.559
8.8466 22.688
8.8617 22.430
8.8769 22.959
8.8921 22.921
8.9073 22.382
8.9224 22.833
8.9376 22.470
8.9528 22.607
8.9680 22.348
8.9831 22.720
8.9983 22.586
9.0135 22.695
9.0287 22.527
9.0438 22.581
9.0590 22.629
9.0742 22.903
9.0894 22.704
9.1045 22.451
9.1197 22.675
9.1349 22.969
9.1501 22.734
9.1652 22.741
9.1804 23.057
9.1956 22.744
9.2108 22.777
9.2259 22.680
9.2411 22.571
9.2563 22.725
9.2715 22.930
9.2866 22.960
9.3018 23.186
9.3170 23.238
9.3322 22.895
9.3473 23.029
9.3625 23.079
9.3777 22.818
9.3929 22.475
9.4080 22.874
9.4232 22.888
9.4384 22.855
9.4536 22.901
9.4687 22.697
9.4839 22.827
9.4991 23.023
9.5143 23.107
9.5294 23.219
9.5446 23.149
9.5598 23.046
9.5750 22.825
9.5901 22.900
9.6053 23.325
9.6205 23.236
9.6357 23.176
9.6508 23.451
9.6660 23.641
9.6812 23.964
9.6964 24.135
9.7115 24.012
9.7267 23.972
9.7419 24.317
9.7571 24.444
9.7722 23.855
9.7874 23.628
9.8026 23.792
9.8178 23.797
9.8329 23.699
9.8481 23.590
9.8633 23.138
9.8785 23.065
9.8936 23.406
9.9088 23.452
9.9240 23.400
9.9392 23.417
9.9543 23.445
9.9695 23.224
9.9847 23.074
9.9999 23.202
10.0150 22.991
10.0302 22.983
10.0454 23.222
10.0606 22.922
10.0757 23.152
10.0909 23.583
10.1061 23.547
10.1213 23.429
10.1364 23.347
10.1516 23.472
10.1668 23.651
10.1820 23.300
10.1971 23.048
10.2123 23.128
10.2275 23.317
10.2427 23.096
10.2578 22.864
10.2730 22.788
10.2882 22.550
10.3034 22.740
10.3185 22.881
10.3337 22.958
10.3489 22.849
10.3641 23.015
10.3792 22.895
10.3944 22.877
10.4096 22.922
10.4248 22.429
10.4399 22.446
10.4551 22.436
10.4703 22.574
10.4855 22.686
10.5006 22.826
10.5158 22.938
10.5310 22.474
10.5462 22.077
10.5613 22.346
10.5765 22.773
10.5917 22.712
10.6069 22.678
10.6220 22.536
10.6372 22.595
10.6524 22.608
10.6676 22.908
10.6827 22.782
10.6979 22.609
10.7131 22.549
10.7283 22.451
10.7434 22.699
10.7586 22.586
10.7738 22.257
10.7890 22.229
10.8041 22.681
10.8193 22.288
10.8345 22.063
10.8497 21.946
10.8648 21.931
10.8800 22.129
10.8952 22.533
10.9104 22.600
10.9255 22.114
10.9407 21.967
10.9559 21.851
10.9711 21.885
10.9862 22.171
11.0014 22.296
11.0166 22.131
11.0318 22.345
11.0469 21.587
11.0621 21.260
11.0773 21.620
11.0925 21.921
11.1076 21.793
11.1228 22.002
11.1380 21.902
11.1532 21.708
11.1683 21.939
11.1835 21.992
11.1987 21.954
11.2139 21.945
11.2290 21.855
11.2442 22.025
11.2594 21.940
11.2746 21.442
11.2897 21.662
11.3049 21.480
11.3201 21.458
11.3353 21.555
11.3504 21.175
11.3656 21.120
11.3808 21.201
11.3960 21.255
11.4111 21.520
11.4263 21.409
11.4415 21.380
11.4567 21.400
11.4718 21.207
11.4870 20.958
11.5022 21.320
11.5174 21.277
11.5325 20.912
11.5477 20.807
11.5629 20.813
11.5781 21.057
11.5932 20.922
11.6084 20.841
11.6236 20.811
11.6388 20.571
11.6539 20.692
11.6691 20.483
11.6843 20.495
11.6995 20.523
11.7146 20.244
11.7298 20.161
11.7450 20.062
11.7602 20.347
11.7753 20.058
11.7905 19.775
11.8057 20.262
11.8209 20.204
11.8360 19.792
11.8512 19.645
11.8664 20.074
11.8816 19.846
11.8967 19.605
11.9119 19.926
11.9271 19.682
11.9423 19.258
11.9574 19.324
11.9726 19.220
11.9878 19.016
12.0030 19.154
12.0181 19.039
12.0333 19.379
12.0485 19.322
12.0637 18.881
12.0788 18.920
12.0940 18.549
12.1092 18.779
12.1244 18.874
12.1395 18.845
12.1547 18.808
12.1699 18.418
12.1851 18.320
12.2002 18.188
12.2154 17.974
12.2306 17.885
12.2458 17.944
12.2609 17.911
12.2761 17.930
12.2913 17.934
12.3065 17.781
12.3216 17.433
12.3368 17.389
12.3520 17.514
12.3672 17.378
12.3823 17.322
12.3975 17.198
12.4127 16.743
12.4279 16.772
12.4430 17.088
12.4582 17.062
12.4734 16.919
12.4886 16.700
12.5037 16.463
12.5189 16.505
12.5341 16.340
12.5493 16.136
12.5644 16.131
12.5796 16.442
12.5948 16.288
12.6100 16.070
12.6251 15.910
12.6403 16.137
12.6555 15.985
12.6707 15.825
12.6858 15.683
12.7010 15.748
12.7162 15.744
12.7314 15.550
12.7465 15.183
12.7617 15.089
12.7769 15.171
12.7921 15.027
12.8072 14.929
12.8224 14.844
12.8376 14.753
12.8528 14.885
12.8679 14.923
12.8831 14.902
12.8983 14.804
12.9135 14.445
12.9286 14.450
12.9438 14.658
12.9590 14.502
12.9742 14.450
12.9893 14.370
13.0045 14.180
13.0197 14.246
13.0349 14.031
13.0500 13.632
13.0652 13.584
13.0804 13.860
13.0956 13.873
13.1107 13.869
13.1259 13.926
13.1411 13.662
13.1563 13.591
13.1714 13.573
13.1866 13.553
13.2018 13.509
13.2170 13.434
13.2321 13.376
13.2473 13.467
13.2625 13.295
13.2777 13.121
13.2928 13.158
13.3080 13.110
13.3232 13.131
13.3384 12.886
13.3535 12.979
13.3687 13.062
13.3839 13.192
13.3991 13.079
13.4142 12.895
13.4294 12.809
13.4446 12.629
13.4598 12.552
13.4749 12.538
13.4901 12.672
13.5053 12.611
13.5205 12.426
13.5356 12.271
13.5508 12.141
13.5660 12.053
13.5812 12.203
13.5963 12.459
13.6115 12.367
13.6267 12.269
13.6419 12.152
13.6570 12.078
13.6722 11.972
13.6874 11.989
13.7026 11.990
13.7177 12.072
13.7329 12.152
13.7481 12.258
13.7633 12.063
13.7784 12.034
13.7936 11.973
13.8088 12.146
13.8239 12.265
13.8391 12.228
13.8543 12.269
13.8695 12.354
13.8846 12.191
13.8998 12.182
13.9150 12.270
13.9302 12.276
13.9453 11.936
13.9605 11.720
13.9757 11.778
13.9909 11.679
14.0060 11.504
14.0212 11.542
14.0364 11.599
14.0516 11.682
14.0667 11.733
14.0819 11.723
14.0971 11.618
14.1123 11.722
14.1274 11.509
14.1426 11.483
14.1578 11.525
14.1730 11.364
14.1881 11.364
14.2033 11.511
14.2185 11.485
14.2337 11.409
14.2488 11.569
14.2640 11.683
14.2792 11.691
14.2944 11.849
14.3095 12.000
14.3247 12.050
14.3399 12.407
14.3551 12.604
14.3702 12.935
14.3854 12.945
14.4006 13.113
14.4158 13.404
14.4309 13.452
14.4461 13.178
14.4613 13.058
14.4765 12.973
14.4916 12.561
14.5068 12.432
14.5220 12.015
14.5372 11.549
14.5523 11.631
14.5675 11.471
14.5827 11.030
14.5979 11.072
14.6130 11.262
14.6282 11.050
14.6434 11.004
14.6586 11.010
14.6737 10.748
14.6889 10.678
14.7041 10.940
14.7193 10.855
14.7344 10.591
14.7496 10.327
14.7648 10.681
14.7800 10.335
14.7951 10.697
14.8103 10.757
14.8255 10.736
14.8407 10.830
14.8558 10.593
14.8710 10.391
14.8862 10.721
14.9014 10.513
14.9165 11.006
14.9317 10.865
14.9469 10.548
14.9621 10.597
14.9772 10.321
14.9924 10.105
15.0076 10.129
15.0228 10.201
15.0379 9.903
15.0531 10.398
15.0683 10.080
15.0835 10.103
15.0986 10.018
15.1138 10.481
15.1290 10.307
15.1442 10.608
15.1593 10.102
15.1745 10.269
15.1897 10.268
15.2049 10.167
15.2200 10.102
15.2352 10.403
15.2504 10.150
15.2656 9.964
15.2807 10.059
15.2959 10.052
15.3111 10.250
15.3263 10.153
15.3414 10.504
15.3566 10.195
15.3718 10.197
15.3870 10.414
15.4021 10.151
15.4173 10.417
15.4325 10.406
15.4477 10.385
15.4628 10.326
15.4780 10.465
15.4932 10.228
15.5084 9.941
15.5235 10.435
15.5387 9.903
15.5539 9.990
15.5691 10.069
15.5842 9.735
15.5994 9.846
15.6146 9.987
15.6298 9.578
15.6449 9.730
15.6601 9.467
15.6753 9.541
15.6905 9.932
15.7056 9.761
15.7208 9.824
15.7360 9.682
15.7512 9.732
15.7663 9.786
15.7815 9.868
15.7967 9.582
15.8119 9.842
15.8270 9.725
15.8422 9.816
15.8574 9.749
15.8726 9.820
15.8877 9.825
15.9029 9.602
15.9181 9.515
15.9333 9.632
15.9484 9.737
15.9636 9.532
15.9788 9.847
15.9940 9.778
16.0091 9.834
16.0243 9.678
16.0395 9.618
16.0547 9.242
16.0698 9.392
16.0850 9.435
16.1002 9.400
16.1154 9.435
16.1305 9.614
16.1457 9.735
16.1609 9.658
16.1761 9.798
16.1912 9.789
16.2064 9.713
16.2216 9.721
16.2368 9.716
16.2519 9.663
16.2671 9.623
16.2823 9.545
16.2975 9.626
16.3126 9.872
16.3278 10.056
16.3430 9.880
16.3582 9.882
16.3733 10.236
16.3885 10.090
16.4037 9.756
16.4189 9.771
16.4340 9.636
16.4492 9.785
16.4644 10.018
16.4796 9.710
16.4947 9.351
16.5099 9.649
16.5251 9.726
16.5403 9.524
16.5554 9.442
16.5706 9.660
16.5858 9.680
16.6010 9.621
16.6161 9.526
16.6313 9.477
16.6465 9.533
16.6617 9.546
16.6768 9.698
16.6920 9.805
16.7072 9.900
16.7224 9.835
16.7375 9.855
16.7527 9.880
16.7679 9.595
16.7831 9.481
16.7982 9.771
16.8134 9.931
16.8286 9.871
16.8438 9.780
16.8589 9.632
16.8741 9.595
16.8893 9.720
16.9045 9.995
16.9196 10.002
16.9348 9.805
16.9500 9.769
16.9652 9.793
16.9803 9.831
16.9955 9.988
17.0107 9.954
17.0259 9.784
17.0410 9.880
17.0562 10.127
17.0714 10.212
17.0866 10.321
17.1017 10.543
17.1169 10.529
17.1321 10.537
17.1473 11.200
17.1624 11.707
17.1776 12.083
17.1928 12.694
17.2080 13.803
17.2231 15.041
17.2383 16.174
17.2535 17.349
17.2687 18.294
17.2838 18.445
17.2990 17.875
17.3142 17.139
17.3294 16.168
17.3445 15.852
17.3597 16.220
17.3749 16.052
17.3901 15.178
17.4052 14.027
17.4204 12.811
17.4356 11.950
17.4508 11.851
17.4659 11.805
17.4811 11.420
17.4963 11.176
17.5115 10.966
17.5266 10.785
17.5418 10.712
17.5570 10.677
17.5722 10.773
17.5873 10.818
17.6025 10.821
17.6177 10.856
17.6329 10.899
17.6480 11.305
17.6632 11.500
17.6784 11.571
17.6936 12.018
17.7087 12.219
17.7239 12.166
17.7391 11.767
17.7543 11.526
17.7694 11.378
17.7846 11.273
17.7998 11.281
17.8150 11.164
17.8301 10.944
17.8453 10.616
17.8605 10.454
17.8757 10.473
17.8908 10.462
17.9060 10.418
17.9212 10.329
17.9364 10.289
17.9515 10.228
17.9667 10.132
17.9819 10.283
17.9971 10.309
18.0122 10.165
18.0274 10.039
18.0426 10.081
18.0578 10.184
18.0729 10.334
18.0881 10.089
18.1033 9.999
18.1185 10.083
18.1336 9.954
18.1488 9.836
18.1640 9.901
18.1792 9.973
18.1943 10.074
18.2095 9.857
18.2247 9.775
18.2399 9.848
18.2550 10.024
18.2702 9.980
18.2854 9.918
18.3006 9.823
18.3157 9.686
18.3309 9.795
18.3461 9.873
18.3613 9.772
18.3764 9.771
18.3916 9.867
18.4068 9.757
18.4220 9.818
18.4371 9.824
18.4523 9.770
18.4675 9.798
18.4827 9.894
18.4978 9.823
18.5130 9.696
18.5282 9.783
18.5434 10.037
18.5585 10.094
18.5737 10.082
18.5889 9.839
18.6041 9.786
18.6192 9.878
18.6344 9.517
18.6496 9.516
18.6648 9.760
18.6799 9.917
18.6951 10.012
18.7103 9.811
18.7255 9.738
18.7406 10.036
18.7558 10.092
18.7710 9.852
18.7862 9.765
18.8013 9.706
18.8165 9.973
18.8317 9.969
18.8469 9.983
18.8620 10.026
18.8772 10.044
18.8924 10.087
18.9076 10.058
18.9227 10.025
18.9379 10.135
18.9531 10.155
18.9683 10.024
18.9834 10.062
18.9986 10.041
19.0138 9.952
19.0290 10.021
19.0441 9.930
19.0593 9.949
19.0745 9.963
19.0897 10.225
19.1048 10.426
19.1200 10.420
19.1352 10.478
19.1504 10.517
19.1655 10.501
19.1807 10.409
19.1959 10.497
19.2111 10.818
19.2262 10.929
19.2414 10.715
19.2566 10.682
19.2718 10.740
19.2869 10.633
19.3021 10.901
19.3173 10.873
19.3325 10.874
19.3476 11.147
19.3628 11.186
19.3780 11.160
19.3932 11.198
19.4083 11.275
19.4235 11.153
19.4387 11.172
19.4539 11.210
19.4690 11.251
19.4842 11.431
19.4994 11.558
19.5146 11.499
19.5297 11.466
19.5449 11.376
19.5601 11.515
19.5753 11.524
19.5904 11.515
19.6056 11.412
19.6208 11.498
19.6360 11.615
19.6511 11.397
19.6663 11.649
19.6815 11.948
19.6967 11.969
19.7118 11.957
19.7270 11.785
19.7422 11.685
19.7574 11.690
19.7725 11.642
19.7877 11.839
19.8029 11.938
19.8180 12.053
19.8332 12.364
19.8484 12.231
19.8636 12.352
19.8787 12.616
19.8939 12.820
19.9091 12.928
19.9243 13.268
19.9394 13.723
19.9546 14.112
19.9698 14.350
19.9850 14.300
20.0001 14.353
20.0153 14.185
20.0305 13.943
20.0457 13.762
20.0608 13.606
20.0760 13.765
20.0912 13.861
20.1064 13.469
20.1215 13.300
20.1367 13.224
20.1519 12.954
20.1671 12.811
20.1822 12.900
20.1974 12.874
20.2126 12.620
20.2278 12.538
20.2429 12.469
20.2581 12.321
20.2733 12.004
20.2885 11.870
20.3036 11.673
20.3188 11.811
20.3340 11.997
20.3492 11.833
20.3643 11.533
20.3795 11.525
20.3947 11.761
20.4099 11.585
20.4250 11.625
20.4402 11.966
20.4554 11.983
20.4706 12.328
20.4857 12.184
20.5009 12.057
20.5161 12.050
20.5313 11.738
20.5464 11.793
20.5616 11.587
20.5768 11.604
20.5920 11.575
20.6071 11.575
20.6223 11.443
20.6375 11.255
20.6527 11.095
20.6678 11.058
20.6830 10.790
20.6982 10.511
20.7134 10.466
20.7285 10.267
20.7437 10.562
20.7589 10.619
20.7741 10.553
20.7892 10.569
20.8044 10.089
20.8196 9.911
20.8348 10.362
20.8499 10.460
20.8651 10.230
20.8803 10.333
20.8955 10.120
20.9106 10.087
20.9258 10.100
20.9410 10.097
20.9562 10.698
20.9713 10.074
20.9865 10.092
21.0017 9.954
21.0169 10.098
21.0320 10.077
21.0472 10.028
21.0624 9.816
21.0776 10.050
21.0927 9.909
21.1079 9.678
21.1231 9.993
21.1383 9.900
21.1534 10.044
21.1686 9.826
21.1838 9.626
21.1990 9.806
21.2141 9.905
21.2293 9.899
21.2445 9.849
21.2597 9.815
21.2748 9.856
21.2900 9.743
21.3052 9.467
21.3204 9.702
21.3355 9.568
21.3507 9.650
21.3659 9.464
21.3811 9.508
21.3962 9.311
21.4114 9.419
21.4266 9.561
21.4418 9.574
21.4569 9.308
21.4721 9.258
21.4873 9.405
21.5025 9.413
21.5176 9.342
21.5328 9.304
21.5480 9.194
21.5632 9.067
21.5783 9.321
21.5935 9.086
21.6087 9.167
21.6239 9.254
21.6390 9.458
21.6542 9.193
21.6694 9.381
21.6846 9.170
21.6997 9.165
21.7149 9.101
21.7301 9.197
21.7453 9.084
21.7604 8.864
21.7756 8.811
21.7908 8.816
21.8060 8.795
21.8211 9.162
21.8363 9.102
21.8515 9.062
21.8667 9.068
21.8818 9.046
21.8970 9.079
21.9122 8.942
21.9274 8.940
21.9425 8.996
21.9577 8.942
21.9729 8.953
21.9881 8.881
22.0032 8.928
22.0184 8.849
22.0336 8.854
22.0488 9.027
22.0639 8.860
22.0791 8.830
22.0943 8.611
22.1095 8.518
22.1246 8.688
22.1398 8.602
22.1550 8.498
22.1702 8.415
22.1853 8.497
22.2005 8.704
22.2157 8.485
22.2309 8.624
22.2460 8.767
22.2612 8.542
22.2764 8.658
22.2916 8.641
22.3067 8.588
22.3219 8.438
22.3371 8.605
22.3523 8.624
22.3674 8.432
22.3826 8.329
22.3978 8.495
22.4130 8.629
22.4281 8.696
22.4433 8.627
22.4585 8.389
22.4737 8.045
22.4888 8.342
22.5040 8.396
22.5192 8.500
22.5344 8.323
22.5495 8.397
22.5647 8.573
22.5799 8.359
22.5951 8.449
22.6102 8.422
22.6254 8.493
22.6406 8.259
22.6558 8.317
22.6709 8.303
22.6861 8.142
22.7013 8.238
22.7165 7.782
22.7316 6.366
