'Id: "" Comment: "" Operator: "Lab Manager" Anode: "Mo" Scantype: "Still (Eiger2R_500K (1D mode))" TimePerStep: "300" X: "11.8" Y: "9.4" Z: "11.284" 
7.2532 18.820
7.2684 19.310
7.2836 18.593
7.2987 18.944
7.3139 19.000
7.3291 18.995
7.3443 18.789
7.3594 18.712
7.3746 19.216
7.3898 19.110
7.4050 19.056
7.4201 19.631
7.4353 19.108
7.4505 19.397
7.4657 19.294
7.4808 19.312
7.4960 19.326
7.5112 19.154
7.5264 19.502
7.5415 19.904
7.5567 19.981
7.5719 20.053
7.5871 19.812
7.6022 19.847
7.6174 20.006
7.6326 19.980
7.6478 19.832
7.6629 20.039
7.6781 20.207
7.6933 19.839
7.7085 20.384
7.7236 20.339
7.7388 20.320
7.7540 20.205
7.7692 20.295
7.7843 20.243
7.7995 20.493
7.8147 20.681
7.8299 20.694
7.8450 20.709
7.8602 20.661
7.8754 20.486
7.8905 20.580
7.9057 20.845
7.9209 21.068
7.9361 21.070
7.9512 21.044
7.9664 20.666
7.9816 20.938
7.9968 20.917
8.0119 20.958
8.0271 20.899
8.0423 20.995
8.0575 21.160
8.0726 21.234
8.0878 21.066
8.1030 21.005
8.1182 21.326
8.1333 21.640
8.1485 21.147
8.1637 21.589
8.1789 21.727
8.1940 21.474
8.2092 21.256
8.2244 21.259
8.2396 21.591
8.2547 21.529
8.2699 21.956
8.2851 21.626
8.3003 21.751
8.3154 21.430
8.3306 21.424
8.3458 21.950
8.3610 21.647
8.3761 21.946
8.3913 21.711
8.4065 21.962
8.4217 21.832
8.4368 21.791
8.4520 21.647
8.4672 21.788
8.4824 21.548
8.4975 22.164
8.5127 22.358
8.5279 21.423
8.5431 21.822
8.5582 21.790
8.5734 22.354
8.5886 22.359
8.6038 22.037
8.6189 22.136
8.6341 22.003
8.6493 22.263
8.6645 21.910
8.6796 22.429
8.6948 22.479
8.7100 21.951
8.7252 22.232
8.7403 22.261
8.7555 22.006
8.7707 22.522
8.7859 22.600
8.8010 22.859
8.8162 22.578
8.8314 22.756
8.8466 22.480
8.8617 22.528
8.8769 22.380
8.8921 22.501
8.9073 22.473
8.9224 22.813
8.9376 23.128
8.9528 22.701
8.9680 22.863
8.9831 22.906
8.9983 22.563
9.0135 22.580
9.0287 22.607
9.0438 22.736
9.0590 22.840
9.0742 22.872
9.0894 22.255
9.1045 22.866
9.1197 22.891
9.1349 22.724
9.1501 22.699
9.1652 22.990
9.1804 23.289
9.1956 23.251
9.2108 23.127
9.2259 22.626
9.2411 22.534
9.2563 22.739
9.2715 22.968
9.2866 22.933
9.3018 23.091
9.3170 22.766
9.3322 22.469
9.3473 23.005
9.3625 23.267
9.3777 23.014
9.3929 23.009
9.4080 23.393
9.4232 23.110
9.4384 22.791
9.4536 22.677
9.4687 23.156
9.4839 23.299
9.4991 22.956
9.5143 22.763
9.5294 22.831
9.5446 22.904
9.5598 23.174
9.5750 23.181
9.5901 22.888
9.6053 23.251
9.6205 23.301
9.6357 23.412
9.6508 23.447
9.6660 23.403
9.6812 23.534
9.6964 23.874
9.7115 24.028
9.7267 24.044
9.7419 24.194
9.7571 24.213
9.7722 23.851
9.7874 23.754
9.8026 23.827
9.8178 23.340
9.8329 23.418
9.8481 23.480
9.8633 22.919
9.8785 22.963
9.8936 23.199
9.9088 23.102
9.9240 23.190
9.9392 23.418
9.9543 23.594
9.9695 23.619
9.9847 23.486
9.9999 23.367
10.0150 23.517
10.0302 23.378
10.0454 23.034
10.0606 23.199
10.0757 23.163
10.0909 23.001
10.1061 23.054
10.1213 23.496
10.1364 23.399
10.1516 23.388
10.1668 23.671
10.1820 23.552
10.1971 23.092
10.2123 22.950
10.2275 23.062
10.2427 22.938
10.2578 23.066
10.2730 23.072
10.2882 22.832
10.3034 22.792
10.3185 23.027
10.3337 23.124
10.3489 22.967
10.3641 23.075
10.3792 22.840
10.3944 22.734
10.4096 22.650
10.4248 22.531
10.4399 22.735
10.4551 22.706
10.4703 22.430
10.4855 22.393
10.5006 22.275
10.5158 22.160
10.5310 22.312
10.5462 22.319
10.5613 22.496
10.5765 22.648
10.5917 22.665
10.6069 22.778
10.6220 22.803
10.6372 22.399
10.6524 22.517
10.6676 22.527
10.6827 22.123
10.6979 22.405
10.7131 22.620
10.7283 22.508
10.7434 22.708
10.7586 22.544
10.7738 22.890
10.7890 22.849
10.8041 22.254
10.8193 22.376
10.8345 22.578
10.8497 22.171
10.8648 22.183
10.8800 22.417
10.8952 21.928
10.9104 21.948
10.9255 22.144
10.9407 21.840
10.9559 22.212
10.9711 22.121
10.9862 21.867
11.0014 21.723
11.0166 21.654
11.0318 22.376
11.0469 22.101
11.0621 21.918
11.0773 22.256
11.0925 22.092
11.1076 21.848
11.1228 21.857
11.1380 21.938
11.1532 22.023
11.1683 21.807
11.1835 21.988
11.1987 22.096
11.2139 21.750
11.2290 21.660
11.2442 21.954
11.2594 21.769
11.2746 21.620
11.2897 21.948
11.3049 21.662
11.3201 21.075
11.3353 21.647
11.3504 21.610
11.3656 21.376
11.3808 21.450
11.3960 21.766
11.4111 21.420
11.4263 21.335
11.4415 20.963
11.4567 21.085
11.4718 21.157
11.4870 20.904
11.5022 21.146
11.5174 21.262
11.5325 21.520
11.5477 21.551
11.5629 21.115
11.5781 21.066
11.5932 20.635
11.6084 20.797
11.6236 20.911
11.6388 20.805
11.6539 20.945
11.6691 21.118
11.6843 20.618
11.6995 20.435
11.7146 20.506
11.7298 20.678
11.7450 20.587
11.7602 20.589
11.7753 20.220
11.7905 20.140
11.8057 20.343
11.8209 20.040
11.8360 20.013
11.8512 19.807
11.8664 19.644
11.8816 19.734
11.8967 19.804
11.9119 19.568
11.9271 19.650
11.9423 19.462
11.9574 19.547
11.9726 19.584
11.9878 19.226
12.0030 19.139
12.0181 19.183
12.0333 19.297
12.0485 19.108
12.0637 18.905
12.0788 18.941
12.0940 18.767
12.1092 18.768
12.1244 18.845
12.1395 18.884
12.1547 18.419
12.1699 18.086
12.1851 18.417
12.2002 18.437
12.2154 18.240
12.2306 18.135
12.2458 17.917
12.2609 18.113
12.2761 18.169
12.2913 18.206
12.3065 17.899
12.3216 17.767
12.3368 17.584
12.3520 17.564
12.3672 17.544
12.3823 17.443
12.3975 17.441
12.4127 17.315
12.4279 16.895
12.4430 16.930
12.4582 16.988
12.4734 16.717
12.4886 16.805
12.5037 16.656
12.5189 16.516
12.5341 16.501
12.5493 16.445
12.5644 16.265
12.5796 16.108
12.5948 15.988
12.6100 15.919
12.6251 16.000
12.6403 16.010
12.6555 15.816
12.6707 15.648
12.6858 15.650
12.7010 15.764
12.7162 15.829
12.7314 15.707
12.7465 15.620
12.7617 15.640
12.7769 15.482
12.7921 15.220
12.8072 15.257
12.8224 15.193
12.8376 14.930
12.8528 14.848
12.8679 14.763
12.8831 14.844
12.8983 14.921
12.9135 14.749
12.9286 14.581
12.9438 14.647
12.9590 14.478
12.9742 14.430
12.9893 14.429
13.0045 14.105
13.0197 14.001
13.0349 14.195
13.0500 14.293
13.0652 14.166
13.0804 14.138
13.0956 14.125
13.1107 14.249
13.1259 14.154
13.1411 13.877
13.1563 13.689
13.1714 13.411
13.1866 13.547
13.2018 13.586
13.2170 13.383
13.2321 13.340
13.2473 13.405
13.2625 13.480
13.2777 13.370
13.2928 13.238
13.3080 12.934
13.3232 12.859
13.3384 13.029
13.3535 13.056
13.3687 13.029
13.3839 12.940
13.3991 13.058
13.4142 12.969
13.4294 12.919
13.4446 12.941
13.4598 12.729
13.4749 12.718
13.4901 12.561
13.5053 12.258
13.5205 12.276
13.5356 12.447
13.5508 12.586
13.5660 12.568
13.5812 12.278
13.5963 12.208
13.6115 12.290
13.6267 12.199
13.6419 12.236
13.6570 12.064
13.6722 12.171
13.6874 12.493
13.7026 12.417
13.7177 12.255
13.7329 12.159
13.7481 12.113
13.7633 12.073
13.7784 12.163
13.7936 12.217
13.8088 12.064
13.8239 12.128
13.8391 12.206
13.8543 12.219
13.8695 12.046
13.8846 12.043
13.8998 12.181
13.9150 12.423
13.9302 12.393
13.9453 11.923
13.9605 11.928
13.9757 11.765
13.9909 11.736
14.0060 11.678
14.0212 11.229
14.0364 11.354
14.0516 11.554
14.0667 11.474
14.0819 11.410
14.0971 11.703
14.1123 11.530
14.1274 11.443
14.1426 11.555
14.1578 11.787
14.1730 11.574
14.1881 11.631
14.2033 12.007
14.2185 12.096
14.2337 11.929
14.2488 11.803
14.2640 11.806
14.2792 12.055
14.2944 12.277
14.3095 12.216
14.3247 12.704
14.3399 12.538
14.3551 12.632
14.3702 12.835
14.3854 12.907
14.4006 13.302
14.4158 13.207
14.4309 12.832
14.4461 12.614
14.4613 12.621
14.4765 12.758
14.4916 12.388
14.5068 12.022
14.5220 11.716
14.5372 11.499
14.5523 11.044
14.5675 11.263
14.5827 11.359
14.5979 10.949
14.6130 11.155
14.6282 11.117
14.6434 10.825
14.6586 10.763
14.6737 10.873
14.6889 10.661
14.7041 10.641
14.7193 10.400
14.7344 10.608
14.7496 10.940
14.7648 10.568
14.7800 10.579
14.7951 10.808
14.8103 10.421
14.8255 10.634
14.8407 10.593
14.8558 10.764
14.8710 10.526
14.8862 10.265
14.9014 10.455
14.9165 10.849
14.9317 10.654
14.9469 10.868
14.9621 10.537
14.9772 10.071
14.9924 10.243
15.0076 10.064
15.0228 10.271
15.0379 10.359
15.0531 10.472
15.0683 10.409
15.0835 10.523
15.0986 10.263
15.1138 10.287
15.1290 10.158
15.1442 9.963
15.1593 10.293
15.1745 10.384
15.1897 10.561
15.2049 10.003
15.2200 10.044
15.2352 9.981
15.2504 10.242
15.2656 10.693
15.2807 9.933
15.2959 9.950
15.3111 9.953
15.3263 10.393
15.3414 10.398
15.3566 9.942
15.3718 10.087
15.3870 10.135
15.4021 10.162
15.4173 10.424
15.4325 10.153
15.4477 10.482
15.4628 10.370
15.4780 10.240
15.4932 10.156
15.5084 10.380
15.5235 10.141
15.5387 10.177
15.5539 10.100
15.5691 9.785
15.5842 9.707
15.5994 9.910
15.6146 9.922
15.6298 9.734
15.6449 9.640
15.6601 9.820
15.6753 9.818
15.6905 9.892
15.7056 9.912
15.7208 9.952
15.7360 10.134
15.7512 9.886
15.7663 9.677
15.7815 9.864
15.7967 9.810
15.8119 9.987
15.8270 9.741
15.8422 9.630
15.8574 9.579
15.8726 9.667
15.8877 9.544
15.9029 9.659
15.9181 9.770
15.9333 9.663
15.9484 9.420
15.9636 9.716
15.9788 9.911
15.9940 9.877
16.0091 9.663
16.0243 9.750
16.0395 9.907
16.0547 9.669
16.0698 9.496
16.0850 9.735
16.1002 9.752
16.1154 9.831
16.1305 9.770
16.1457 9.543
16.1609 9.601
16.1761 9.647
16.1912 9.757
16.2064 10.129
16.2216 10.176
16.2368 9.778
16.2519 9.644
16.2671 9.842
16.2823 9.900
16.2975 10.124
16.3126 10.113
16.3278 9.919
16.3430 9.853
16.3582 9.925
16.3733 9.963
16.3885 9.745
16.4037 10.034
16.4189 9.940
16.4340 10.121
16.4492 9.832
16.4644 9.633
16.4796 9.867
16.4947 9.980
16.5099 9.797
16.5251 9.608
16.5403 9.726
16.5554 9.958
16.5706 9.737
16.5858 9.578
16.6010 9.663
16.6161 9.646
16.6313 9.740
16.6465 9.739
16.6617 9.757
16.6768 9.833
16.6920 10.104
16.7072 9.937
16.7224 9.792
16.7375 9.886
16.7527 10.007
16.7679 10.025
16.7831 9.930
16.7982 10.000
16.8134 9.964
16.8286 9.814
16.8438 10.034
16.8589 10.076
16.8741 9.832
16.8893 9.764
16.9045 9.874
16.9196 9.887
16.9348 9.896
16.9500 9.874
16.9652 9.830
16.9803 9.802
16.9955 9.851
17.0107 9.891
17.0259 10.031
17.0410 10.213
17.0562 10.243
17.0714 10.084
17.0866 10.260
17.1017 10.403
17.1169 10.614
17.1321 11.026
17.1473 11.183
17.1624 11.749
17.1776 12.280
17.1928 12.888
17.2080 13.685
17.2231 14.739
17.2383 16.234
17.2535 17.421
17.2687 18.211
17.2838 18.354
17.2990 17.971
17.3142 17.018
17.3294 16.046
17.3445 15.834
17.3597 15.890
17.3749 16.116
17.3901 15.388
17.4052 14.105
17.4204 13.271
17.4356 12.380
17.4508 11.963
17.4659 11.937
17.4811 11.765
17.4963 11.613
17.5115 11.441
17.5266 11.297
17.5418 11.236
17.5570 11.012
17.5722 10.953
17.5873 11.146
17.6025 11.338
17.6177 11.266
17.6329 11.298
17.6480 11.478
17.6632 11.431
17.6784 11.400
17.6936 11.356
17.7087 11.283
17.7239 11.188
17.7391 10.980
17.7543 10.872
17.7694 10.897
17.7846 10.908
17.7998 10.945
17.8150 10.769
17.8301 10.461
17.8453 10.297
17.8605 10.326
17.8757 10.186
17.8908 10.087
17.9060 10.107
17.9212 10.389
17.9364 10.284
17.9515 10.013
17.9667 10.103
17.9819 10.160
17.9971 10.005
18.0122 10.029
18.0274 10.084
18.0426 10.160
18.0578 10.346
18.0729 10.228
18.0881 10.322
18.1033 10.103
18.1185 10.016
18.1336 9.935
18.1488 9.879
18.1640 10.089
18.1792 9.927
18.1943 9.838
18.2095 10.146
18.2247 9.880
18.2399 9.829
18.2550 9.862
18.2702 9.620
18.2854 9.590
18.3006 9.846
18.3157 9.944
18.3309 9.769
18.3461 9.872
18.3613 10.001
18.3764 9.844
18.3916 9.772
18.4068 9.841
18.4220 9.915
18.4371 9.881
18.4523 9.977
18.4675 9.747
18.4827 9.880
18.4978 9.807
18.5130 9.744
18.5282 9.787
18.5434 9.674
18.5585 9.742
18.5737 9.776
18.5889 9.609
18.6041 9.611
18.6192 9.918
18.6344 9.693
18.6496 9.647
18.6648 10.000
18.6799 9.986
18.6951 9.712
18.7103 9.801
18.7255 9.659
18.7406 9.649
18.7558 9.572
18.7710 9.509
18.7862 9.664
18.8013 9.679
18.8165 9.862
18.8317 10.149
18.8469 9.892
18.8620 9.911
18.8772 10.231
18.8924 10.198
18.9076 10.118
18.9227 9.885
18.9379 9.862
18.9531 9.779
18.9683 9.804
18.9834 9.964
18.9986 10.148
19.0138 9.905
19.0290 9.893
19.0441 10.049
19.0593 10.076
19.0745 10.159
19.0897 10.415
19.1048 10.272
19.1200 10.342
19.1352 10.274
19.1504 10.350
19.1655 10.425
19.1807 10.605
19.1959 10.795
19.2111 10.684
19.2262 10.501
19.2414 10.686
19.2566 10.791
19.2718 10.764
19.2869 10.954
19.3021 11.018
19.3173 11.057
19.3325 11.010
19.3476 10.948
19.3628 10.814
19.3780 10.975
19.3932 11.155
19.4083 11.325
19.4235 11.246
19.4387 11.209
19.4539 11.278
19.4690 11.579
19.4842 11.651
19.4994 11.474
19.5146 11.364
19.5297 11.334
19.5449 11.242
19.5601 11.163
19.5753 11.447
19.5904 11.641
19.6056 11.412
19.6208 11.436
19.6360 11.751
19.6511 11.874
19.6663 11.671
19.6815 11.572
19.6967 11.536
19.7118 11.673
19.7270 11.834
19.7422 11.812
19.7574 11.805
19.7725 11.866
19.7877 11.989
19.8029 11.922
19.8180 11.795
19.8332 12.012
19.8484 12.324
19.8636 12.376
19.8787 12.593
19.8939 12.825
19.9091 12.959
19.9243 13.243
19.9394 13.514
19.9546 13.811
19.9698 14.185
19.9850 14.461
20.0001 14.731
20.0153 14.423
20.0305 13.900
20.0457 13.855
20.0608 13.731
20.0760 13.489
20.0912 13.467
20.1064 13.629
20.1215 13.539
20.1367 13.190
20.1519 12.933
20.1671 12.896
20.1822 12.892
20.1974 12.902
20.2126 12.793
20.2278 12.843
20.2429 12.550
20.2581 12.376
20.2733 12.115
20.2885 11.873
20.3036 11.807
20.3188 11.833
20.3340 11.832
20.3492 11.774
20.3643 11.819
20.3795 11.832
20.3947 12.039
20.4099 11.928
20.4250 12.018
20.4402 12.052
20.4554 11.865
20.4706 11.631
20.4857 12.191
20.5009 11.915
20.5161 11.807
20.5313 11.519
20.5464 11.607
20.5616 11.572
20.5768 11.391
20.5920 11.629
20.6071 11.466
20.6223 10.979
20.6375 10.710
20.6527 10.687
20.6678 10.589
20.6830 10.522
20.6982 10.658
20.7134 10.771
20.7285 10.602
20.7437 10.450
20.7589 10.417
20.7741 10.421
20.7892 10.048
20.8044 10.078
20.8196 10.183
20.8348 10.326
20.8499 10.520
20.8651 10.216
20.8803 10.120
20.8955 10.395
20.9106 10.192
20.9258 10.061
20.9410 10.009
20.9562 9.960
20.9713 10.014
20.9865 10.473
21.0017 9.839
21.0169 10.262
21.0320 10.007
21.0472 9.678
21.0624 9.820
21.0776 9.821
21.0927 9.524
21.1079 10.280
21.1231 9.947
21.1383 9.838
21.1534 9.599
21.1686 9.511
21.1838 9.894
21.1990 9.764
21.2141 9.615
21.2293 9.535
21.2445 9.580
21.2597 9.586
21.2748 9.381
21.2900 9.776
21.3052 9.508
21.3204 9.873
21.3355 9.460
21.3507 9.667
21.3659 9.847
21.3811 9.535
21.3962 9.937
21.4114 9.369
21.4266 9.685
21.4418 9.280
21.4569 9.277
21.4721 9.427
21.4873 9.300
21.5025 9.277
21.5176 9.333
21.5328 9.298
21.5480 9.242
21.5632 9.482
21.5783 9.584
21.5935 9.181
21.6087 9.430
21.6239 9.298
21.6390 9.025
21.6542 9.402
21.6694 9.253
21.6846 9.107
21.6997 8.957
21.7149 8.930
21.7301 9.018
21.7453 9.031
21.7604 9.048
21.7756 9.251
21.7908 9.397
21.8060 9.017
21.8211 9.225
21.8363 9.204
21.8515 8.983
21.8667 9.161
21.8818 9.347
21.8970 9.230
21.9122 8.931
21.9274 8.887
21.9425 9.045
21.9577 8.985
21.9729 8.815
21.9881 8.632
22.0032 8.872
22.0184 9.014
22.0336 9.023
22.0488 8.950
22.0639 8.595
22.0791 8.542
22.0943 8.770
22.1095 8.673
22.1246 8.680
22.1398 8.711
22.1550 8.862
22.1702 8.703
22.1853 8.618
22.2005 8.650
22.2157 8.540
22.2309 8.613
22.2460 8.728
22.2612 8.641
22.2764 8.722
22.2916 8.584
22.3067 8.352
22.3219 8.568
22.3371 8.506
22.3523 8.631
22.3674 8.388
22.3826 8.349
22.3978 8.702
22.4130 8.642
22.4281 8.384
22.4433 8.450
22.4585 8.394
22.4737 8.576
22.4888 8.508
22.5040 8.452
22.5192 8.511
22.5344 8.537
22.5495 8.505
22.5647 8.122
22.5799 8.493
22.5951 8.551
22.6102 8.710
22.6254 8.287
22.6406 8.443
22.6558 8.497
22.6709 8.233
22.6861 8.208
22.7013 8.174
22.7165 7.893
22.7316 6.462
