'Id: "" Comment: "" Operator: "Lab Manager" Anode: "Mo" Scantype: "Still (Eiger2R_500K (1D mode))" TimePerStep: "300" X: "11.8" Y: "9.4" Z: "11.284" 
7.2532 18.906
7.2684 18.850
7.2836 18.644
7.2987 18.804
7.3139 18.874
7.3291 18.735
7.3443 18.655
7.3594 19.078
7.3746 18.733
7.3898 18.866
7.4050 19.571
7.4201 19.385
7.4353 19.712
7.4505 19.239
7.4657 19.281
7.4808 19.315
7.4960 19.379
7.5112 19.468
7.5264 19.743
7.5415 19.576
7.5567 19.656
7.5719 20.061
7.5871 19.524
7.6022 19.687
7.6174 19.584
7.6326 19.536
7.6478 19.883
7.6629 20.023
7.6781 20.184
7.6933 20.219
7.7085 20.172
7.7236 19.830
7.7388 19.983
7.7540 20.269
7.7692 20.264
7.7843 20.464
7.7995 20.515
7.8147 20.531
7.8299 20.635
7.8450 20.462
7.8602 20.504
7.8754 20.541
7.8905 20.682
7.9057 20.700
7.9209 20.772
7.9361 20.827
7.9512 20.615
7.9664 20.723
7.9816 20.782
7.9968 20.888
8.0119 21.006
8.0271 20.677
8.0423 20.708
8.0575 21.416
8.0726 21.402
8.0878 21.273
8.1030 21.068
8.1182 21.494
8.1333 21.288
8.1485 21.248
8.1637 21.379
8.1789 21.257
8.1940 21.181
8.2092 21.355
8.2244 21.610
8.2396 21.410
8.2547 21.211
8.2699 21.160
8.2851 21.218
8.3003 21.551
8.3154 21.667
8.3306 21.721
8.3458 21.387
8.3610 21.773
8.3761 21.633
8.3913 21.794
8.4065 21.307
8.4217 21.758
8.4368 21.778
8.4520 21.835
8.4672 22.085
8.4824 21.659
8.4975 21.731
8.5127 21.695
8.5279 21.752
8.5431 21.754
8.5582 22.227
8.5734 21.854
8.5886 22.204
8.6038 22.367
8.6189 22.378
8.6341 21.611
8.6493 22.120
8.6645 22.390
8.6796 21.796
8.6948 22.015
8.7100 22.044
8.7252 22.335
8.7403 21.792
8.7555 22.601
8.7707 22.335
8.7859 22.023
8.8010 22.262
8.8162 22.126
8.8314 21.969
8.8466 22.047
8.8617 22.040
8.8769 22.573
8.8921 22.601
8.9073 22.537
8.9224 22.397
8.9376 22.047
8.9528 22.235
8.9680 22.242
8.9831 22.643
8.9983 22.407
9.0135 22.480
9.0287 22.772
9.0438 22.763
9.0590 22.787
9.0742 22.710
9.0894 22.737
9.1045 22.921
9.1197 22.903
9.1349 22.860
9.1501 22.810
9.1652 22.625
9.1804 22.575
9.1956 22.781
9.2108 22.581
9.2259 22.164
9.2411 22.333
9.2563 22.415
9.2715 22.650
9.2866 22.596
9.3018 22.671
9.3170 22.482
9.3322 22.761
9.3473 22.757
9.3625 22.662
9.3777 22.786
9.3929 23.312
9.4080 23.235
9.4232 22.929
9.4384 22.933
9.4536 22.944
9.4687 23.121
9.4839 23.239
9.4991 23.267
9.5143 22.982
9.5294 22.980
9.5446 23.306
9.5598 23.259
9.5750 23.172
9.5901 23.019
9.6053 23.416
9.6205 23.428
9.6357 23.267
9.6508 23.422
9.6660 23.516
9.6812 23.507
9.6964 23.228
9.7115 23.309
9.7267 23.685
9.7419 23.984
9.7571 23.757
9.7722 23.451
9.7874 23.664
9.8026 23.741
9.8178 23.357
9.8329 23.087
9.8481 23.248
9.8633 23.624
9.8785 23.640
9.8936 23.519
9.9088 23.367
9.9240 23.063
9.9392 22.850
9.9543 22.892
9.9695 23.200
9.9847 23.282
9.9999 23.142
10.0150 23.226
10.0302 23.311
10.0454 23.166
10.0606 23.079
10.0757 23.319
10.0909 23.311
10.1061 23.231
10.1213 23.304
10.1364 23.416
10.1516 23.493
10.1668 23.177
10.1820 23.030
10.1971 23.072
10.2123 23.382
10.2275 22.935
10.2427 22.820
10.2578 22.949
10.2730 22.796
10.2882 23.069
10.3034 23.038
10.3185 23.171
10.3337 23.130
10.3489 23.023
10.3641 22.824
10.3792 22.463
10.3944 22.434
10.4096 22.909
10.4248 22.872
10.4399 22.245
10.4551 22.663
10.4703 22.812
10.4855 22.931
10.5006 22.850
10.5158 22.391
10.5310 22.324
10.5462 22.280
10.5613 22.250
10.5765 22.415
10.5917 22.556
10.6069 22.621
10.6220 22.539
10.6372 22.459
10.6524 22.359
10.6676 22.317
10.6827 22.464
10.6979 22.506
10.7131 22.477
10.7283 22.216
10.7434 22.447
10.7586 22.607
10.7738 22.602
10.7890 22.322
10.8041 22.280
10.8193 22.298
10.8345 22.410
10.8497 22.592
10.8648 22.275
10.8800 22.175
10.8952 21.962
10.9104 22.013
10.9255 22.070
10.9407 22.245
10.9559 22.283
10.9711 21.721
10.9862 22.059
11.0014 22.336
11.0166 21.997
11.0318 22.119
11.0469 21.643
11.0621 21.694
11.0773 21.766
11.0925 21.767
11.1076 21.574
11.1228 21.328
11.1380 21.134
11.1532 21.570
11.1683 21.542
11.1835 21.338
11.1987 21.707
11.2139 21.830
11.2290 21.331
11.2442 21.408
11.2594 21.754
11.2746 21.842
11.2897 21.347
11.3049 21.258
11.3201 21.174
11.3353 21.359
11.3504 21.534
11.3656 21.662
11.3808 21.281
11.3960 21.173
11.4111 21.330
11.4263 21.157
11.4415 21.441
11.4567 21.245
11.4718 21.041
11.4870 20.953
11.5022 20.939
11.5174 21.007
11.5325 20.604
11.5477 20.880
11.5629 20.846
11.5781 20.762
11.5932 20.840
11.6084 20.895
11.6236 20.845
11.6388 20.604
11.6539 20.547
11.6691 20.825
11.6843 20.450
11.6995 20.645
11.7146 20.524
11.7298 20.594
11.7450 20.491
11.7602 20.083
11.7753 20.137
11.7905 20.466
11.8057 20.260
11.8209 20.266
11.8360 20.237
11.8512 19.836
11.8664 19.943
11.8816 20.298
11.8967 19.903
11.9119 19.646
11.9271 19.461
11.9423 19.584
11.9574 19.459
11.9726 19.503
11.9878 19.242
12.0030 19.490
12.0181 19.068
12.0333 19.034
12.0485 19.011
12.0637 19.031
12.0788 18.717
12.0940 18.402
12.1092 18.456
12.1244 18.644
12.1395 18.376
12.1547 18.418
12.1699 18.463
12.1851 18.344
12.2002 18.237
12.2154 18.227
12.2306 18.173
12.2458 17.633
12.2609 17.829
12.2761 17.888
12.2913 17.811
12.3065 17.959
12.3216 17.953
12.3368 17.419
12.3520 17.420
12.3672 17.338
12.3823 17.409
12.3975 17.415
12.4127 17.416
12.4279 17.222
12.4430 16.796
12.4582 16.558
12.4734 16.496
12.4886 16.751
12.5037 16.806
12.5189 16.749
12.5341 16.614
12.5493 16.551
12.5644 16.411
12.5796 16.085
12.5948 16.261
12.6100 16.219
12.6251 16.052
12.6403 16.036
12.6555 15.984
12.6707 15.613
12.6858 15.444
12.7010 15.435
12.7162 15.179
12.7314 15.122
12.7465 15.354
12.7617 15.441
12.7769 15.379
12.7921 15.268
12.8072 15.127
12.8224 14.940
12.8376 14.958
12.8528 15.117
12.8679 15.059
12.8831 15.003
12.8983 15.030
12.9135 14.732
12.9286 14.512
12.9438 14.564
12.9590 14.225
12.9742 14.139
12.9893 14.325
13.0045 14.358
13.0197 14.310
13.0349 14.109
13.0500 13.914
13.0652 13.902
13.0804 13.745
13.0956 13.568
13.1107 13.868
13.1259 13.931
13.1411 13.723
13.1563 13.820
13.1714 14.036
13.1866 13.839
13.2018 13.565
13.2170 13.617
13.2321 13.355
13.2473 13.287
13.2625 13.263
13.2777 13.175
13.2928 13.180
13.3080 13.117
13.3232 13.301
13.3384 13.204
13.3535 13.169
13.3687 12.888
13.3839 12.572
13.3991 12.750
13.4142 12.965
13.4294 12.971
13.4446 12.777
13.4598 12.826
13.4749 12.756
13.4901 12.508
13.5053 12.600
13.5205 12.604
13.5356 12.632
13.5508 12.440
13.5660 12.254
13.5812 12.424
13.5963 12.486
13.6115 12.381
13.6267 12.314
13.6419 12.294
13.6570 12.010
13.6722 11.813
13.6874 11.870
13.7026 12.207
13.7177 12.354
13.7329 11.837
13.7481 11.899
13.7633 12.293
13.7784 12.044
13.7936 12.127
13.8088 12.183
13.8239 12.204
13.8391 12.372
13.8543 12.455
13.8695 12.069
13.8846 12.262
13.8998 12.153
13.9150 12.026
13.9302 12.209
13.9453 11.907
13.9605 11.888
13.9757 11.867
13.9909 11.774
14.0060 11.951
14.0212 11.764
14.0364 11.786
14.0516 11.946
14.0667 11.651
14.0819 11.470
14.0971 11.609
14.1123 11.654
14.1274 11.756
14.1426 11.836
14.1578 11.597
14.1730 11.730
14.1881 11.811
14.2033 11.855
14.2185 11.738
14.2337 11.761
14.2488 11.702
14.2640 11.768
14.2792 11.926
14.2944 11.907
14.3095 11.834
14.3247 12.100
14.3399 12.480
14.3551 12.625
14.3702 12.672
14.3854 12.928
14.4006 13.207
14.4158 12.969
14.4309 12.652
14.4461 12.568
14.4613 12.665
14.4765 12.393
14.4916 12.268
14.5068 11.964
14.5220 11.570
14.5372 11.379
14.5523 11.203
14.5675 11.267
14.5827 10.793
14.5979 11.004
14.6130 10.763
14.6282 10.305
14.6434 10.993
14.6586 11.078
14.6737 10.639
14.6889 10.811
14.7041 10.359
14.7193 10.742
14.7344 10.805
14.7496 10.514
14.7648 10.803
14.7800 10.769
14.7951 10.687
14.8103 10.641
14.8255 10.817
14.8407 10.246
14.8558 10.566
14.8710 10.224
14.8862 10.432
14.9014 10.483
14.9165 10.486
14.9317 10.758
14.9469 10.249
14.9621 10.253
14.9772 10.157
14.9924 10.577
15.0076 10.197
15.0228 10.318
15.0379 10.520
15.0531 10.452
15.0683 10.260
15.0835 10.204
15.0986 10.164
15.1138 10.082
15.1290 10.311
15.1442 10.149
15.1593 10.060
15.1745 9.908
15.1897 10.305
15.2049 9.821
15.2200 10.151
15.2352 10.015
15.2504 9.968
15.2656 10.145
15.2807 10.245
15.2959 10.288
15.3111 9.654
15.3263 10.113
15.3414 10.281
15.3566 10.114
15.3718 10.121
15.3870 10.294
15.4021 9.981
15.4173 10.217
15.4325 9.901
15.4477 10.120
15.4628 10.016
15.4780 10.399
15.4932 9.967
15.5084 9.796
15.5235 10.071
15.5387 10.019
15.5539 10.087
15.5691 10.079
15.5842 9.955
15.5994 9.857
15.6146 9.892
15.6298 9.852
15.6449 9.749
15.6601 9.634
15.6753 9.863
15.6905 10.033
15.7056 9.901
15.7208 9.557
15.7360 9.566
15.7512 9.651
15.7663 9.825
15.7815 9.751
15.7967 9.628
15.8119 9.796
15.8270 10.030
15.8422 9.629
15.8574 9.557
15.8726 9.256
15.8877 9.448
15.9029 9.661
15.9181 9.292
15.9333 9.380
15.9484 9.233
15.9636 9.706
15.9788 9.645
15.9940 9.403
16.0091 9.294
16.0243 9.460
16.0395 9.485
16.0547 9.512
16.0698 9.542
16.0850 9.524
16.1002 9.551
16.1154 9.684
16.1305 9.628
16.1457 9.466
16.1609 9.458
16.1761 9.624
16.1912 9.260
16.2064 9.290
16.2216 9.744
16.2368 9.691
16.2519 9.592
16.2671 9.665
16.2823 9.556
16.2975 9.826
16.3126 9.919
16.3278 9.909
16.3430 9.590
16.3582 9.592
16.3733 9.691
16.3885 9.813
16.4037 10.003
16.4189 9.835
16.4340 9.553
16.4492 9.843
16.4644 9.913
16.4796 10.062
16.4947 9.590
16.5099 9.535
16.5251 9.684
16.5403 9.721
16.5554 9.528
16.5706 9.569
16.5858 9.604
16.6010 9.575
16.6161 9.746
16.6313 9.770
16.6465 9.598
16.6617 9.725
16.6768 9.781
16.6920 10.011
16.7072 9.846
16.7224 9.980
16.7375 10.124
16.7527 9.681
16.7679 9.801
16.7831 9.888
16.7982 9.715
16.8134 9.993
16.8286 10.051
16.8438 9.613
16.8589 9.512
16.8741 9.563
16.8893 9.804
16.9045 9.724
16.9196 9.472
16.9348 9.617
16.9500 9.817
16.9652 9.696
16.9803 9.880
16.9955 10.108
17.0107 10.165
17.0259 10.124
17.0410 10.008
17.0562 9.930
17.0714 10.131
17.0866 10.282
17.1017 10.521
17.1169 10.854
17.1321 11.305
17.1473 11.485
17.1624 11.642
17.1776 12.266
17.1928 12.950
17.2080 13.974
17.2231 14.979
17.2383 15.983
17.2535 17.513
17.2687 18.651
17.2838 18.671
17.2990 18.009
17.3142 17.174
17.3294 16.452
17.3445 16.047
17.3597 16.056
17.3749 15.890
17.3901 15.185
17.4052 14.234
17.4204 13.138
17.4356 12.481
17.4508 12.109
17.4659 11.846
17.4811 11.732
17.4963 11.469
17.5115 11.252
17.5266 11.005
17.5418 11.006
17.5570 11.046
17.5722 10.971
17.5873 11.018
17.6025 11.079
17.6177 11.160
17.6329 11.144
17.6480 11.350
17.6632 11.563
17.6784 11.458
17.6936 11.580
17.7087 11.499
17.7239 10.996
17.7391 10.935
17.7543 11.074
17.7694 11.148
17.7846 11.058
17.7998 10.953
17.8150 10.873
17.8301 10.695
17.8453 10.575
17.8605 10.458
17.8757 10.352
17.8908 10.181
17.9060 10.256
17.9212 10.082
17.9364 10.002
17.9515 10.165
17.9667 10.189
17.9819 10.105
17.9971 10.434
18.0122 10.432
18.0274 9.984
18.0426 10.146
18.0578 10.132
18.0729 10.080
18.0881 10.063
18.1033 9.846
18.1185 9.878
18.1336 10.020
18.1488 10.008
18.1640 9.826
18.1792 9.707
18.1943 9.984
18.2095 10.108
18.2247 9.887
18.2399 9.797
18.2550 9.728
18.2702 9.687
18.2854 9.842
18.3006 9.863
18.3157 9.705
18.3309 9.770
18.3461 9.793
18.3613 9.785
18.3764 9.896
18.3916 10.058
18.4068 9.822
18.4220 9.553
18.4371 9.728
18.4523 9.719
18.4675 9.655
18.4827 9.691
18.4978 9.844
18.5130 9.872
18.5282 9.766
18.5434 9.658
18.5585 9.871
18.5737 9.924
18.5889 9.648
18.6041 9.763
18.6192 9.913
18.6344 9.765
18.6496 9.808
18.6648 9.952
18.6799 9.949
18.6951 9.833
18.7103 9.891
18.7255 9.963
18.7406 9.771
18.7558 9.724
18.7710 9.760
18.7862 9.814
18.8013 9.704
18.8165 9.550
18.8317 9.810
18.8469 10.132
18.8620 9.944
18.8772 9.964
18.8924 10.065
18.9076 10.136
18.9227 10.025
18.9379 10.072
18.9531 10.000
18.9683 9.834
18.9834 9.858
18.9986 9.925
19.0138 10.174
19.0290 10.186
19.0441 10.262
19.0593 10.328
19.0745 10.378
19.0897 10.154
19.1048 10.029
19.1200 10.278
19.1352 10.372
19.1504 10.436
19.1655 10.474
19.1807 10.444
19.1959 10.506
19.2111 10.568
19.2262 10.674
19.2414 10.632
19.2566 10.792
19.2718 10.966
19.2869 10.892
19.3021 10.853
19.3173 10.908
19.3325 10.963
19.3476 10.901
19.3628 10.983
19.3780 11.250
19.3932 11.283
19.4083 11.210
19.4235 11.195
19.4387 11.108
19.4539 11.171
19.4690 11.393
19.4842 11.471
19.4994 11.439
19.5146 11.738
19.5297 11.561
19.5449 11.309
19.5601 11.450
19.5753 11.538
19.5904 11.769
19.6056 11.847
19.6208 11.567
19.6360 11.538
19.6511 11.502
19.6663 11.471
19.6815 11.630
19.6967 11.770
19.7118 11.927
19.7270 11.872
19.7422 11.888
19.7574 12.042
19.7725 11.770
19.7877 11.716
19.8029 11.608
19.8180 11.751
19.8332 12.232
19.8484 12.398
19.8636 12.648
19.8787 12.927
19.8939 12.873
19.9091 13.017
19.9243 13.356
19.9394 13.545
19.9546 14.291
19.9698 14.733
19.9850 14.406
20.0001 14.503
20.0153 14.247
20.0305 13.856
20.0457 13.918
20.0608 13.708
20.0760 13.707
20.0912 13.816
20.1064 13.865
20.1215 13.840
20.1367 13.687
20.1519 13.294
20.1671 13.060
20.1822 13.163
20.1974 12.834
20.2126 12.453
20.2278 12.491
20.2429 12.601
20.2581 12.666
20.2733 12.582
20.2885 12.218
20.3036 12.053
20.3188 12.299
20.3340 12.246
20.3492 12.181
20.3643 11.868
20.3795 11.856
20.3947 11.811
20.4099 11.910
20.4250 11.863
20.4402 11.916
20.4554 11.745
20.4706 11.563
20.4857 11.762
20.5009 11.834
20.5161 11.625
20.5313 11.374
20.5464 11.466
20.5616 11.095
20.5768 11.088
20.5920 11.015
20.6071 10.918
20.6223 10.979
20.6375 10.874
20.6527 10.760
20.6678 10.529
20.6830 10.548
20.6982 10.705
20.7134 10.701
20.7285 10.478
20.7437 10.069
20.7589 10.196
20.7741 10.345
20.7892 10.433
20.8044 10.431
20.8196 10.289
20.8348 10.276
20.8499 10.456
20.8651 10.428
20.8803 10.148
20.8955 10.240
20.9106 10.398
20.9258 10.107
20.9410 10.362
20.9562 10.287
20.9713 10.181
20.9865 10.096
21.0017 10.066
21.0169 10.142
21.0320 10.373
21.0472 10.199
21.0624 10.196
21.0776 10.024
21.0927 9.611
21.1079 10.238
21.1231 10.201
21.1383 9.837
21.1534 9.766
21.1686 10.072
21.1838 9.819
21.1990 9.966
21.2141 10.190
21.2293 9.588
21.2445 9.826
21.2597 9.649
21.2748 9.631
21.2900 9.550
21.3052 9.694
21.3204 9.698
21.3355 9.612
21.3507 9.398
21.3659 9.656
21.3811 9.261
21.3962 9.562
21.4114 9.616
21.4266 9.556
21.4418 9.440
21.4569 9.496
21.4721 9.260
21.4873 9.468
21.5025 9.475
21.5176 9.554
21.5328 9.221
21.5480 9.306
21.5632 9.292
21.5783 9.079
21.5935 9.367
21.6087 9.131
21.6239 9.269
21.6390 9.328
21.6542 9.220
21.6694 9.048
21.6846 9.142
21.6997 9.155
21.7149 9.050
21.7301 9.209
21.7453 9.132
21.7604 9.166
21.7756 9.138
21.7908 8.992
21.8060 8.953
21.8211 9.042
21.8363 9.191
21.8515 9.117
21.8667 9.121
21.8818 8.929
21.8970 9.084
21.9122 9.068
21.9274 8.925
21.9425 8.819
21.9577 8.812
21.9729 8.866
21.9881 8.922
22.0032 8.750
22.0184 8.747
22.0336 8.962
22.0488 8.928
22.0639 8.796
22.0791 8.643
22.0943 8.755
22.1095 8.867
22.1246 8.648
22.1398 8.527
22.1550 8.776
22.1702 8.703
22.1853 8.782
22.2005 8.852
22.2157 8.592
22.2309 8.567
22.2460 8.452
22.2612 8.328
22.2764 8.432
22.2916 8.603
22.3067 8.508
22.3219 8.507
22.3371 8.506
22.3523 8.550
22.3674 8.459
22.3826 8.467
22.3978 8.707
22.4130 8.633
22.4281 8.490
22.4433 8.433
22.4585 8.613
22.4737 8.455
22.4888 8.536
22.5040 8.333
22.5192 7.942
22.5344 8.361
22.5495 8.223
22.5647 8.469
22.5799 8.145
22.5951 8.587
22.6102 8.180
22.6254 8.324
22.6406 8.242
22.6558 8.458
22.6709 8.439
22.6861 8.228
22.7013 8.128
22.7165 7.786
22.7316 6.497
