'Id: "" Comment: "" Operator: "Lab Manager" Anode: "Mo" Scantype: "Still (Eiger2R_500K (1D mode))" TimePerStep: "300" X: "11.8" Y: "9.4" Z: "11.284" 
7.2532 18.444
7.2684 18.653
7.2836 18.437
7.2987 18.787
7.3139 18.871
7.3291 19.011
7.3443 19.104
7.3594 19.098
7.3746 18.957
7.3898 18.724
7.4050 19.112
7.4201 19.290
7.4353 19.144
7.4505 19.383
7.4657 19.701
7.4808 19.399
7.4960 19.389
7.5112 19.664
7.5264 19.519
7.5415 19.335
7.5567 19.602
7.5719 19.992
7.5871 19.790
7.6022 19.964
7.6174 19.968
7.6326 19.858
7.6478 19.902
7.6629 20.268
7.6781 20.548
7.6933 20.104
7.7085 19.561
7.7236 19.577
7.7388 20.072
7.7540 20.266
7.7692 20.458
7.7843 20.449
7.7995 20.127
7.8147 20.142
7.8299 20.239
7.8450 20.297
7.8602 20.480
7.8754 20.609
7.8905 20.364
7.9057 20.265
7.9209 20.364
7.9361 20.336
7.9512 20.625
7.9664 20.890
7.9816 20.827
7.9968 20.932
8.0119 20.898
8.0271 20.937
8.0423 20.971
8.0575 20.832
8.0726 21.118
8.0878 20.795
8.1030 20.898
8.1182 20.961
8.1333 20.895
8.1485 20.979
8.1637 21.062
8.1789 21.029
8.1940 21.307
8.2092 21.454
8.2244 21.556
8.2396 21.443
8.2547 21.294
8.2699 21.333
8.2851 21.611
8.3003 21.486
8.3154 21.513
8.3306 20.795
8.3458 21.415
8.3610 21.576
8.3761 21.597
8.3913 21.629
8.4065 21.896
8.4217 21.869
8.4368 21.995
8.4520 22.143
8.4672 21.603
8.4824 22.224
8.4975 21.860
8.5127 22.087
8.5279 21.593
8.5431 21.843
8.5582 21.980
8.5734 22.001
8.5886 21.527
8.6038 22.104
8.6189 22.180
8.6341 21.307
8.6493 22.068
8.6645 22.115
8.6796 21.935
8.6948 22.203
8.7100 21.834
8.7252 22.321
8.7403 21.861
8.7555 21.836
8.7707 22.026
8.7859 22.429
8.8010 22.738
8.8162 22.255
8.8314 22.268
8.8466 22.467
8.8617 22.348
8.8769 22.597
8.8921 22.733
8.9073 22.532
8.9224 22.287
8.9376 22.805
8.9528 22.322
8.9680 22.170
8.9831 22.251
8.9983 22.491
9.0135 22.732
9.0287 22.664
9.0438 22.362
9.0590 22.319
9.0742 22.217
9.0894 22.195
9.1045 22.449
9.1197 22.565
9.1349 22.563
9.1501 22.630
9.1652 22.583
9.1804 22.873
9.1956 22.493
9.2108 22.392
9.2259 22.301
9.2411 23.083
9.2563 22.952
9.2715 22.617
9.2866 22.571
9.3018 22.638
9.3170 22.880
9.3322 22.779
9.3473 22.854
9.3625 23.031
9.3777 22.862
9.3929 22.793
9.4080 22.984
9.4232 22.818
9.4384 22.818
9.4536 23.146
9.4687 22.867
9.4839 22.883
9.4991 22.893
9.5143 22.522
9.5294 22.620
9.5446 22.812
9.5598 23.011
9.5750 23.097
9.5901 23.192
9.6053 23.039
9.6205 23.212
9.6357 23.494
9.6508 23.334
9.6660 23.365
9.6812 23.462
9.6964 23.554
9.7115 23.649
9.7267 23.671
9.7419 23.829
9.7571 23.832
9.7722 23.635
9.7874 23.525
9.8026 23.658
9.8178 23.226
9.8329 23.076
9.8481 23.326
9.8633 23.346
9.8785 22.982
9.8936 22.725
9.9088 23.064
9.9240 22.880
9.9392 23.019
9.9543 23.299
9.9695 22.931
9.9847 22.748
9.9999 22.885
10.0150 22.779
10.0302 22.886
10.0454 23.263
10.0606 23.003
10.0757 22.951
10.0909 23.083
10.1061 23.065
10.1213 22.812
10.1364 23.268
10.1516 23.393
10.1668 23.151
10.1820 23.119
10.1971 22.804
10.2123 22.883
10.2275 23.186
10.2427 22.839
10.2578 22.495
10.2730 22.501
10.2882 22.464
10.3034 22.513
10.3185 22.915
10.3337 23.083
10.3489 22.820
10.3641 22.794
10.3792 22.572
10.3944 22.515
10.4096 22.531
10.4248 22.702
10.4399 22.381
10.4551 22.198
10.4703 22.242
10.4855 22.504
10.5006 22.557
10.5158 22.266
10.5310 22.196
10.5462 22.446
10.5613 22.410
10.5765 22.398
10.5917 22.750
10.6069 22.638
10.6220 22.401
10.6372 22.281
10.6524 22.381
10.6676 22.277
10.6827 22.555
10.6979 22.226
10.7131 22.433
10.7283 22.393
10.7434 22.667
10.7586 22.549
10.7738 22.438
10.7890 22.013
10.8041 21.571
10.8193 21.989
10.8345 22.136
10.8497 22.145
10.8648 21.903
10.8800 21.856
10.8952 22.103
10.9104 21.973
10.9255 21.809
10.9407 22.230
10.9559 22.092
10.9711 21.909
10.9862 22.053
11.0014 21.731
11.0166 22.092
11.0318 22.177
11.0469 21.827
11.0621 21.645
11.0773 21.787
11.0925 21.797
11.1076 21.777
11.1228 21.351
11.1380 21.617
11.1532 21.635
11.1683 21.548
11.1835 21.923
11.1987 21.864
11.2139 21.595
11.2290 21.339
11.2442 21.306
11.2594 21.290
11.2746 21.430
11.2897 21.261
11.3049 21.257
11.3201 21.198
11.3353 21.446
11.3504 21.569
11.3656 21.717
11.3808 21.389
11.3960 21.236
11.4111 21.280
11.4263 21.134
11.4415 21.025
11.4567 20.935
11.4718 21.165
11.4870 21.163
11.5022 21.259
11.5174 21.008
11.5325 21.017
11.5477 20.656
11.5629 20.294
11.5781 20.518
11.5932 20.489
11.6084 20.698
11.6236 20.349
11.6388 20.114
11.6539 20.491
11.6691 21.078
11.6843 20.795
11.6995 20.546
11.7146 20.477
11.7298 20.358
11.7450 20.129
11.7602 20.155
11.7753 20.170
11.7905 20.313
11.8057 20.103
11.8209 20.132
11.8360 20.027
11.8512 20.029
11.8664 19.935
11.8816 19.457
11.8967 19.253
11.9119 19.597
11.9271 19.495
11.9423 19.630
11.9574 19.710
11.9726 19.382
11.9878 19.393
12.0030 19.143
12.0181 19.230
12.0333 19.237
12.0485 18.958
12.0637 18.687
12.0788 18.659
12.0940 18.732
12.1092 18.864
12.1244 18.563
12.1395 18.453
12.1547 18.584
12.1699 18.525
12.1851 18.651
12.2002 18.253
12.2154 18.073
12.2306 18.075
12.2458 17.962
12.2609 17.832
12.2761 18.011
12.2913 18.038
12.3065 17.765
12.3216 17.511
12.3368 17.450
12.3520 17.482
12.3672 17.214
12.3823 17.056
12.3975 17.170
12.4127 17.349
12.4279 17.071
12.4430 16.912
12.4582 16.941
12.4734 17.035
12.4886 16.918
12.5037 16.806
12.5189 16.921
12.5341 16.652
12.5493 16.366
12.5644 16.054
12.5796 16.132
12.5948 16.251
12.6100 16.265
12.6251 16.094
12.6403 15.941
12.6555 15.720
12.6707 15.765
12.6858 15.640
12.7010 15.772
12.7162 15.633
12.7314 15.443
12.7465 15.442
12.7617 15.381
12.7769 15.161
12.7921 15.072
12.8072 15.025
12.8224 14.990
12.8376 14.837
12.8528 14.864
12.8679 14.786
12.8831 14.723
12.8983 14.685
12.9135 14.586
12.9286 14.671
12.9438 14.582
12.9590 14.174
12.9742 14.269
12.9893 14.398
13.0045 14.206
13.0197 14.343
13.0349 14.285
13.0500 14.114
13.0652 14.150
13.0804 14.016
13.0956 13.862
13.1107 13.878
13.1259 13.735
13.1411 13.502
13.1563 13.486
13.1714 13.602
13.1866 13.555
13.2018 13.345
13.2170 13.290
13.2321 13.436
13.2473 13.434
13.2625 13.378
13.2777 13.333
13.2928 13.282
13.3080 13.305
13.3232 13.175
13.3384 12.942
13.3535 12.689
13.3687 12.920
13.3839 13.073
13.3991 12.832
13.4142 12.669
13.4294 12.849
13.4446 12.979
13.4598 12.621
13.4749 12.586
13.4901 12.375
13.5053 12.207
13.5205 12.274
13.5356 12.208
13.5508 12.256
13.5660 12.341
13.5812 12.260
13.5963 12.188
13.6115 12.107
13.6267 12.125
13.6419 12.082
13.6570 12.068
13.6722 12.161
13.6874 12.224
13.7026 12.118
13.7177 11.948
13.7329 11.573
13.7481 11.801
13.7633 11.825
13.7784 12.008
13.7936 11.896
13.8088 12.179
13.8239 12.315
13.8391 12.234
13.8543 12.205
13.8695 12.341
13.8846 12.239
13.8998 12.012
13.9150 12.073
13.9302 12.108
13.9453 12.322
13.9605 12.164
13.9757 11.518
13.9909 11.761
14.0060 11.851
14.0212 11.631
14.0364 11.821
14.0516 11.920
14.0667 11.749
14.0819 11.854
14.0971 11.514
14.1123 11.435
14.1274 11.794
14.1426 11.802
14.1578 12.096
14.1730 11.595
14.1881 11.645
14.2033 11.475
14.2185 11.604
14.2337 11.868
14.2488 11.935
14.2640 11.526
14.2792 11.710
14.2944 12.135
14.3095 12.124
14.3247 12.204
14.3399 11.913
14.3551 12.549
14.3702 12.667
14.3854 12.748
14.4006 12.966
14.4158 13.345
14.4309 12.687
14.4461 12.724
14.4613 12.814
14.4765 12.580
14.4916 11.997
14.5068 12.066
14.5220 11.680
14.5372 11.535
14.5523 11.265
14.5675 11.209
14.5827 10.895
14.5979 11.105
14.6130 10.888
14.6282 10.839
14.6434 10.639
14.6586 10.877
14.6737 10.759
14.6889 10.576
14.7041 10.687
14.7193 10.529
14.7344 10.708
14.7496 10.387
14.7648 10.633
14.7800 10.438
14.7951 10.528
14.8103 10.620
14.8255 10.360
14.8407 10.327
14.8558 10.448
14.8710 10.319
14.8862 10.554
14.9014 10.329
14.9165 10.743
14.9317 11.110
14.9469 10.338
14.9621 10.601
14.9772 10.045
14.9924 10.232
15.0076 10.537
15.0228 10.388
15.0379 9.702
15.0531 10.211
15.0683 10.437
15.0835 10.316
15.0986 10.348
15.1138 10.438
15.1290 10.325
15.1442 10.195
15.1593 10.404
15.1745 10.265
15.1897 10.078
15.2049 10.094
15.2200 10.062
15.2352 10.060
15.2504 10.103
15.2656 9.995
15.2807 9.737
15.2959 9.994
15.3111 9.746
15.3263 9.746
15.3414 9.865
15.3566 10.244
15.3718 10.181
15.3870 10.191
15.4021 10.378
15.4173 9.904
15.4325 10.198
15.4477 10.140
15.4628 10.232
15.4780 10.131
15.4932 9.977
15.5084 10.216
15.5235 9.904
15.5387 10.043
15.5539 9.890
15.5691 9.901
15.5842 9.857
15.5994 9.905
15.6146 9.689
15.6298 9.733
15.6449 9.488
15.6601 9.772
15.6753 9.728
15.6905 10.474
15.7056 10.731
15.7208 10.238
15.7360 10.240
15.7512 10.041
15.7663 9.897
15.7815 9.786
15.7967 9.918
15.8119 9.830
15.8270 10.154
15.8422 9.942
15.8574 9.576
15.8726 9.481
15.8877 9.312
15.9029 9.338
15.9181 9.570
15.9333 9.591
15.9484 9.590
15.9636 9.563
15.9788 9.762
15.9940 9.604
16.0091 9.641
16.0243 9.758
16.0395 9.734
16.0547 9.700
16.0698 9.739
16.0850 9.556
16.1002 9.570
16.1154 9.444
16.1305 9.440
16.1457 9.682
16.1609 9.609
16.1761 9.520
16.1912 9.446
16.2064 9.767
16.2216 10.013
16.2368 10.021
16.2519 9.883
16.2671 9.762
16.2823 9.628
16.2975 9.889
16.3126 9.763
16.3278 9.763
16.3430 9.664
16.3582 9.613
16.3733 9.801
16.3885 9.810
16.4037 9.783
16.4189 9.790
16.4340 9.586
16.4492 9.631
16.4644 9.696
16.4796 9.630
16.4947 9.561
16.5099 9.553
16.5251 9.601
16.5403 9.507
16.5554 9.787
16.5706 9.854
16.5858 9.639
16.6010 9.470
16.6161 9.494
16.6313 9.708
16.6465 9.671
16.6617 9.558
16.6768 9.743
16.6920 9.833
16.7072 9.617
16.7224 9.775
16.7375 9.821
16.7527 9.609
16.7679 9.914
16.7831 9.805
16.7982 9.622
16.8134 9.722
16.8286 9.872
16.8438 9.762
16.8589 9.718
16.8741 9.704
16.8893 9.838
16.9045 9.859
16.9196 9.801
16.9348 9.881
16.9500 9.837
16.9652 9.809
16.9803 9.668
16.9955 9.620
17.0107 9.812
17.0259 9.783
17.0410 9.716
17.0562 10.061
17.0714 10.387
17.0866 10.424
17.1017 10.266
17.1169 10.478
17.1321 10.832
17.1473 11.245
17.1624 11.801
17.1776 12.265
17.1928 12.787
17.2080 13.856
17.2231 15.010
17.2383 16.169
17.2535 17.616
17.2687 18.804
17.2838 18.982
17.2990 17.914
17.3142 16.900
17.3294 16.370
17.3445 16.285
17.3597 16.331
17.3749 15.832
17.3901 15.208
17.4052 14.485
17.4204 13.504
17.4356 12.691
17.4508 12.123
17.4659 11.745
17.4811 11.691
17.4963 11.487
17.5115 11.263
17.5266 11.175
17.5418 10.953
17.5570 11.005
17.5722 10.952
17.5873 10.844
17.6025 11.064
17.6177 11.248
17.6329 11.295
17.6480 11.271
17.6632 11.413
17.6784 11.437
17.6936 11.355
17.7087 11.369
17.7239 11.396
17.7391 11.130
17.7543 10.795
17.7694 10.529
17.7846 10.577
17.7998 10.634
17.8150 10.524
17.8301 10.520
17.8453 10.266
17.8605 10.443
17.8757 10.427
17.8908 10.411
17.9060 10.382
17.9212 10.371
17.9364 10.231
17.9515 10.088
17.9667 10.227
17.9819 10.370
17.9971 10.471
18.0122 10.398
18.0274 10.188
18.0426 10.404
18.0578 10.402
18.0729 10.120
18.0881 10.026
18.1033 10.091
18.1185 10.111
18.1336 10.000
18.1488 9.903
18.1640 9.960
18.1792 10.008
18.1943 9.807
18.2095 9.680
18.2247 9.778
18.2399 9.715
18.2550 9.712
18.2702 9.906
18.2854 9.835
18.3006 9.713
18.3157 9.666
18.3309 9.997
18.3461 9.971
18.3613 9.665
18.3764 9.707
18.3916 9.971
18.4068 9.952
18.4220 9.841
18.4371 9.722
18.4523 9.625
18.4675 9.728
18.4827 9.647
18.4978 9.634
18.5130 9.690
18.5282 9.754
18.5434 9.853
18.5585 9.685
18.5737 9.812
18.5889 9.791
18.6041 10.071
18.6192 9.933
18.6344 9.607
18.6496 9.627
18.6648 9.742
18.6799 9.574
18.6951 9.667
18.7103 9.780
18.7255 9.715
18.7406 9.565
18.7558 9.607
18.7710 9.756
18.7862 9.921
18.8013 9.948
18.8165 9.835
18.8317 9.837
18.8469 9.709
18.8620 9.777
18.8772 10.121
18.8924 9.964
18.9076 9.599
18.9227 9.682
18.9379 10.003
18.9531 9.952
18.9683 9.726
18.9834 9.794
18.9986 10.123
19.0138 10.002
19.0290 9.918
19.0441 9.949
19.0593 10.137
19.0745 10.326
19.0897 10.045
19.1048 10.214
19.1200 10.541
19.1352 10.525
19.1504 10.468
19.1655 10.355
19.1807 10.479
19.1959 10.523
19.2111 10.602
19.2262 10.922
19.2414 10.891
19.2566 10.738
19.2718 10.750
19.2869 10.788
19.3021 10.743
19.3173 10.664
19.3325 10.587
19.3476 10.704
19.3628 10.816
19.3780 11.165
19.3932 11.351
19.4083 11.258
19.4235 11.193
19.4387 11.115
19.4539 11.396
19.4690 11.456
19.4842 11.504
19.4994 11.515
19.5146 11.519
19.5297 11.744
19.5449 11.696
19.5601 11.498
19.5753 11.595
19.5904 11.810
19.6056 11.594
19.6208 11.515
19.6360 11.761
19.6511 11.652
19.6663 11.870
19.6815 11.758
19.6967 11.587
19.7118 11.690
19.7270 11.767
19.7422 11.624
19.7574 11.549
19.7725 11.817
19.7877 11.936
19.8029 11.941
19.8180 11.973
19.8332 11.993
19.8484 12.152
19.8636 12.470
19.8787 12.774
19.8939 13.049
19.9091 13.222
19.9243 13.527
19.9394 13.923
19.9546 14.276
19.9698 14.560
19.9850 14.602
20.0001 14.583
20.0153 14.272
20.0305 13.934
20.0457 13.874
20.0608 13.759
20.0760 13.719
20.0912 13.678
20.1064 13.805
20.1215 13.943
20.1367 13.380
20.1519 12.994
20.1671 13.203
20.1822 13.227
20.1974 13.050
20.2126 12.599
20.2278 12.528
20.2429 12.708
20.2581 12.548
20.2733 12.249
20.2885 11.933
20.3036 11.946
20.3188 12.103
20.3340 11.996
20.3492 12.175
20.3643 12.226
20.3795 11.834
20.3947 11.951
20.4099 11.900
20.4250 11.780
20.4402 11.733
20.4554 11.693
20.4706 11.940
20.4857 11.959
20.5009 11.681
20.5161 11.385
20.5313 11.482
20.5464 11.179
20.5616 11.479
20.5768 11.342
20.5920 11.134
20.6071 10.928
20.6223 11.073
20.6375 11.239
20.6527 10.770
20.6678 10.466
20.6830 10.578
20.6982 10.786
20.7134 10.541
20.7285 10.540
20.7437 10.482
20.7589 10.402
20.7741 10.459
20.7892 10.717
20.8044 10.761
20.8196 10.316
20.8348 10.285
20.8499 10.332
20.8651 10.291
20.8803 10.226
20.8955 10.348
20.9106 10.248
20.9258 10.383
20.9410 10.253
20.9562 10.067
20.9713 10.068
20.9865 10.432
21.0017 10.239
21.0169 10.375
21.0320 10.333
21.0472 9.824
21.0624 9.864
21.0776 9.858
21.0927 9.836
21.1079 9.774
21.1231 9.993
21.1383 9.824
21.1534 9.721
21.1686 9.825
21.1838 9.941
21.1990 9.431
21.2141 9.711
21.2293 9.510
21.2445 9.687
21.2597 9.752
21.2748 9.570
21.2900 9.241
21.3052 9.564
21.3204 9.808
21.3355 9.132
21.3507 9.438
21.3659 9.736
21.3811 9.794
21.3962 9.508
21.4114 9.542
21.4266 9.705
21.4418 9.397
21.4569 9.214
21.4721 9.328
21.4873 9.489
21.5025 9.213
21.5176 9.210
21.5328 9.009
21.5480 9.127
21.5632 9.475
21.5783 9.214
21.5935 9.376
21.6087 9.202
21.6239 9.074
21.6390 9.158
21.6542 9.328
21.6694 9.383
21.6846 9.359
21.6997 9.197
21.7149 9.286
21.7301 8.910
21.7453 8.946
21.7604 8.869
21.7756 9.046
21.7908 9.282
21.8060 9.260
21.8211 9.087
21.8363 9.015
21.8515 9.031
21.8667 9.137
21.8818 8.904
21.8970 8.913
21.9122 9.013
21.9274 9.036
21.9425 9.009
21.9577 9.007
21.9729 8.656
21.9881 8.577
22.0032 8.648
22.0184 8.718
22.0336 8.704
22.0488 8.733
22.0639 8.971
22.0791 8.937
22.0943 8.727
22.1095 8.709
22.1246 8.756
22.1398 8.780
22.1550 8.687
22.1702 8.586
22.1853 8.588
22.2005 8.712
22.2157 8.582
22.2309 8.546
22.2460 8.371
22.2612 8.498
22.2764 8.523
22.2916 8.558
22.3067 8.658
22.3219 8.731
22.3371 8.583
22.3523 8.328
22.3674 8.466
22.3826 8.522
22.3978 8.408
22.4130 8.399
22.4281 8.393
22.4433 8.492
22.4585 8.557
22.4737 8.484
22.4888 8.249
22.5040 8.443
22.5192 8.565
22.5344 8.512
22.5495 8.293
22.5647 8.674
22.5799 8.582
22.5951 8.522
22.6102 8.345
22.6254 8.117
22.6406 8.412
22.6558 8.561
22.6709 8.491
22.6861 8.119
22.7013 8.182
22.7165 7.858
22.7316 6.277
