'Id: "" Comment: "" Operator: "Lab Manager" Anode: "Mo" Scantype: "Still (Eiger2R_500K (1D mode))" TimePerStep: "300" X: "11.8" Y: "9.4" Z: "11.284" 
7.2532 18.722
7.2684 18.766
7.2836 18.565
7.2987 19.098
7.3139 19.122
7.3291 19.401
7.3443 19.241
7.3594 18.991
7.3746 19.235
7.3898 19.284
7.4050 19.004
7.4201 19.299
7.4353 19.687
7.4505 19.601
7.4657 19.412
7.4808 19.508
7.4960 19.818
7.5112 19.857
7.5264 19.400
7.5415 19.550
7.5567 20.073
7.5719 20.089
7.5871 19.982
7.6022 19.771
7.6174 19.840
7.6326 20.021
7.6478 20.144
7.6629 20.083
7.6781 20.431
7.6933 20.260
7.7085 20.308
7.7236 20.278
7.7388 20.146
7.7540 20.375
7.7692 20.443
7.7843 20.445
7.7995 20.642
7.8147 20.570
7.8299 20.608
7.8450 20.948
7.8602 21.089
7.8754 21.142
7.8905 21.204
7.9057 21.069
7.9209 21.217
7.9361 21.136
7.9512 21.219
7.9664 21.283
7.9816 21.279
7.9968 21.076
8.0119 21.048
8.0271 21.201
8.0423 20.988
8.0575 21.162
8.0726 21.258
8.0878 21.461
8.1030 20.997
8.1182 21.335
8.1333 21.801
8.1485 22.044
8.1637 21.668
8.1789 21.546
8.1940 21.534
8.2092 21.656
8.2244 21.449
8.2396 21.870
8.2547 21.578
8.2699 21.880
8.2851 21.687
8.3003 21.731
8.3154 22.113
8.3306 21.815
8.3458 21.781
8.3610 21.916
8.3761 22.169
8.3913 21.981
8.4065 21.690
8.4217 21.948
8.4368 21.984
8.4520 21.979
8.4672 22.256
8.4824 21.937
8.4975 22.364
8.5127 22.154
8.5279 21.743
8.5431 22.036
8.5582 21.695
8.5734 22.137
8.5886 22.511
8.6038 22.604
8.6189 22.263
8.6341 22.956
8.6493 22.453
8.6645 23.069
8.6796 22.687
8.6948 23.110
8.7100 22.552
8.7252 22.401
8.7403 22.800
8.7555 22.244
8.7707 22.450
8.7859 22.930
8.8010 22.885
8.8162 22.364
8.8314 22.784
8.8466 22.490
8.8617 22.398
8.8769 22.211
8.8921 22.500
8.9073 22.783
8.9224 22.635
8.9376 22.545
8.9528 22.631
8.9680 22.974
8.9831 22.894
8.9983 22.818
9.0135 22.690
9.0287 22.571
9.0438 22.560
9.0590 23.029
9.0742 22.676
9.0894 23.140
9.1045 22.695
9.1197 22.219
9.1349 22.889
9.1501 22.926
9.1652 22.862
9.1804 23.011
9.1956 23.151
9.2108 22.954
9.2259 22.488
9.2411 22.930
9.2563 23.189
9.2715 23.198
9.2866 23.111
9.3018 23.195
9.3170 23.148
9.3322 23.117
9.3473 23.239
9.3625 23.172
9.3777 23.313
9.3929 23.268
9.4080 23.151
9.4232 23.209
9.4384 23.351
9.4536 23.611
9.4687 23.275
9.4839 23.124
9.4991 23.162
9.5143 23.348
9.5294 23.405
9.5446 23.411
9.5598 23.297
9.5750 23.234
9.5901 22.996
9.6053 23.279
9.6205 23.634
9.6357 23.269
9.6508 23.252
9.6660 23.583
9.6812 23.839
9.6964 23.954
9.7115 24.044
9.7267 24.106
9.7419 24.197
9.7571 24.234
9.7722 23.969
9.7874 23.962
9.8026 24.027
9.8178 23.507
9.8329 23.427
9.8481 23.399
9.8633 23.420
9.8785 23.599
9.8936 23.399
9.9088 23.111
9.9240 22.997
9.9392 23.211
9.9543 23.583
9.9695 23.740
9.9847 23.699
9.9999 23.743
10.0150 23.728
10.0302 23.580
10.0454 23.819
10.0606 23.818
10.0757 23.443
10.0909 23.358
10.1061 23.685
10.1213 23.727
10.1364 23.688
10.1516 23.499
10.1668 23.491
10.1820 23.416
10.1971 23.568
10.2123 23.539
10.2275 23.406
10.2427 23.582
10.2578 23.920
10.2730 23.789
10.2882 23.547
10.3034 23.396
10.3185 23.420
10.3337 23.491
10.3489 23.322
10.3641 23.281
10.3792 23.187
10.3944 23.080
10.4096 23.084
10.4248 22.821
10.4399 22.540
10.4551 22.569
10.4703 22.746
10.4855 22.719
10.5006 22.810
10.5158 22.763
10.5310 22.701
10.5462 22.741
10.5613 22.856
10.5765 22.718
10.5917 22.597
10.6069 22.736
10.6220 22.887
10.6372 23.067
10.6524 23.137
10.6676 22.942
10.6827 22.528
10.6979 22.580
10.7131 22.647
10.7283 22.462
10.7434 22.662
10.7586 22.513
10.7738 22.458
10.7890 23.068
10.8041 22.856
10.8193 22.636
10.8345 22.379
10.8497 22.551
10.8648 22.306
10.8800 21.849
10.8952 22.413
10.9104 22.649
10.9255 22.261
10.9407 22.102
10.9559 22.052
10.9711 22.070
10.9862 21.936
11.0014 21.932
11.0166 22.150
11.0318 22.137
11.0469 21.897
11.0621 22.200
11.0773 22.325
11.0925 22.114
11.1076 22.067
11.1228 22.219
11.1380 21.782
11.1532 21.955
11.1683 22.204
11.1835 22.122
11.1987 22.387
11.2139 22.374
11.2290 22.014
11.2442 21.912
11.2594 21.979
11.2746 22.122
11.2897 22.088
11.3049 21.827
11.3201 21.872
11.3353 21.620
11.3504 21.589
11.3656 21.592
11.3808 21.441
11.3960 21.385
11.4111 21.390
11.4263 21.279
11.4415 21.476
11.4567 21.705
11.4718 21.349
11.4870 21.009
11.5022 21.119
11.5174 21.311
11.5325 21.055
11.5477 21.402
11.5629 21.422
11.5781 20.917
11.5932 20.883
11.6084 20.994
11.6236 21.047
11.6388 20.885
11.6539 20.919
11.6691 21.052
11.6843 20.765
11.6995 20.991
11.7146 20.997
11.7298 20.470
11.7450 20.340
11.7602 20.273
11.7753 20.230
11.7905 20.003
11.8057 20.161
11.8209 19.763
11.8360 19.747
11.8512 19.907
11.8664 19.973
11.8816 19.819
11.8967 19.883
11.9119 19.677
11.9271 20.016
11.9423 19.680
11.9574 19.456
11.9726 19.387
11.9878 19.103
12.0030 19.521
12.0181 19.127
12.0333 19.298
12.0485 19.183
12.0637 19.001
12.0788 18.824
12.0940 18.623
12.1092 18.618
12.1244 18.732
12.1395 18.475
12.1547 18.451
12.1699 18.579
12.1851 18.626
12.2002 18.609
12.2154 18.324
12.2306 18.372
12.2458 18.364
12.2609 18.368
12.2761 18.341
12.2913 17.654
12.3065 17.831
12.3216 17.654
12.3368 17.572
12.3520 17.372
12.3672 17.171
12.3823 17.417
12.3975 17.671
12.4127 17.595
12.4279 17.295
12.4430 17.285
12.4582 17.037
12.4734 17.023
12.4886 17.257
12.5037 16.983
12.5189 16.823
12.5341 16.583
12.5493 16.523
12.5644 16.515
12.5796 16.797
12.5948 16.666
12.6100 15.965
12.6251 15.903
12.6403 16.245
12.6555 16.092
12.6707 15.962
12.6858 15.883
12.7010 15.804
12.7162 15.478
12.7314 15.462
12.7465 15.634
12.7617 15.648
12.7769 15.542
12.7921 15.631
12.8072 15.558
12.8224 15.331
12.8376 14.965
12.8528 14.920
12.8679 15.086
12.8831 15.202
12.8983 15.412
12.9135 15.298
12.9286 14.767
12.9438 14.610
12.9590 14.460
12.9742 14.582
12.9893 14.652
13.0045 14.407
13.0197 14.448
13.0349 14.426
13.0500 14.207
13.0652 13.865
13.0804 13.990
13.0956 13.997
13.1107 13.801
13.1259 13.862
13.1411 13.949
13.1563 13.898
13.1714 13.839
13.1866 13.661
13.2018 13.709
13.2170 13.889
13.2321 13.691
13.2473 13.669
13.2625 13.556
13.2777 13.598
13.2928 13.459
13.3080 13.288
13.3232 13.572
13.3384 13.383
13.3535 13.209
13.3687 13.214
13.3839 12.897
13.3991 12.975
13.4142 12.939
13.4294 12.853
13.4446 12.962
13.4598 12.912
13.4749 13.013
13.4901 12.916
13.5053 12.951
13.5205 12.787
13.5356 12.446
13.5508 12.305
13.5660 12.413
13.5812 12.355
13.5963 12.408
13.6115 12.386
13.6267 12.075
13.6419 11.890
13.6570 12.125
13.6722 12.439
13.6874 12.046
13.7026 12.007
13.7177 12.279
13.7329 12.399
13.7481 12.150
13.7633 12.273
13.7784 12.205
13.7936 12.100
13.8088 12.205
13.8239 12.255
13.8391 12.479
13.8543 12.457
13.8695 12.544
13.8846 12.385
13.8998 11.963
13.9150 12.092
13.9302 12.343
13.9453 12.277
13.9605 12.146
13.9757 11.715
13.9909 11.600
14.0060 11.884
14.0212 11.951
14.0364 11.725
14.0516 11.788
14.0667 11.682
14.0819 11.377
14.0971 11.591
14.1123 11.604
14.1274 11.635
14.1426 11.734
14.1578 11.540
14.1730 11.821
14.1881 11.823
14.2033 11.632
14.2185 11.716
14.2337 11.748
14.2488 11.547
14.2640 11.549
14.2792 12.101
14.2944 12.054
14.3095 12.038
14.3247 12.185
14.3399 12.332
14.3551 12.406
14.3702 12.770
14.3854 12.998
14.4006 12.790
14.4158 12.711
14.4309 12.468
14.4461 12.552
14.4613 12.325
14.4765 11.937
14.4916 12.027
14.5068 11.876
14.5220 11.602
14.5372 11.706
14.5523 11.367
14.5675 11.534
14.5827 10.957
14.5979 10.896
14.6130 11.042
14.6282 11.193
14.6434 11.133
14.6586 10.801
14.6737 10.880
14.6889 10.968
14.7041 10.746
14.7193 10.998
14.7344 10.723
14.7496 10.862
14.7648 11.073
14.7800 10.795
14.7951 11.142
14.8103 11.076
14.8255 10.975
14.8407 10.737
14.8558 10.900
14.8710 10.834
14.8862 10.922
14.9014 10.760
14.9165 10.929
14.9317 10.799
14.9469 10.584
14.9621 10.463
14.9772 10.517
14.9924 10.599
15.0076 10.434
15.0228 10.304
15.0379 10.766
15.0531 10.521
15.0683 10.718
15.0835 10.227
15.0986 10.344
15.1138 10.766
15.1290 10.215
15.1442 10.638
15.1593 10.741
15.1745 10.420
15.1897 10.298
15.2049 10.363
15.2200 10.057
15.2352 10.542
15.2504 10.393
15.2656 10.648
15.2807 9.945
15.2959 10.627
15.3111 10.285
15.3263 10.517
15.3414 10.275
15.3566 10.635
15.3718 10.655
15.3870 10.236
15.4021 10.375
15.4173 10.657
15.4325 10.598
15.4477 10.282
15.4628 10.431
15.4780 10.299
15.4932 10.578
15.5084 10.570
15.5235 10.393
15.5387 10.086
15.5539 10.357
15.5691 10.374
15.5842 10.543
15.5994 10.280
15.6146 10.270
15.6298 10.210
15.6449 10.296
15.6601 10.112
15.6753 10.226
15.6905 10.130
15.7056 10.076
15.7208 10.255
15.7360 9.832
15.7512 9.906
15.7663 9.824
15.7815 10.252
15.7967 9.994
15.8119 10.060
15.8270 9.901
15.8422 10.135
15.8574 10.094
15.8726 9.968
15.8877 9.551
15.9029 9.723
15.9181 9.709
15.9333 9.801
15.9484 9.854
15.9636 10.081
15.9788 10.283
15.9940 9.998
16.0091 9.906
16.0243 9.725
16.0395 9.816
16.0547 9.703
16.0698 9.754
16.0850 9.524
16.1002 9.790
16.1154 9.680
16.1305 9.685
16.1457 9.810
16.1609 9.851
16.1761 9.563
16.1912 9.782
16.2064 9.955
16.2216 9.788
16.2368 9.699
16.2519 9.673
16.2671 10.036
16.2823 10.137
16.2975 9.982
16.3126 10.071
16.3278 10.049
16.3430 9.880
16.3582 10.076
16.3733 10.046
16.3885 10.089
16.4037 10.193
16.4189 10.025
16.4340 9.798
16.4492 10.189
16.4644 10.206
16.4796 9.969
16.4947 9.573
16.5099 9.815
16.5251 9.824
16.5403 9.506
16.5554 9.753
16.5706 9.676
16.5858 9.709
16.6010 9.847
16.6161 9.656
16.6313 9.798
16.6465 9.946
16.6617 9.721
16.6768 9.579
16.6920 9.797
16.7072 10.013
16.7224 10.138
16.7375 10.104
16.7527 9.995
16.7679 9.941
16.7831 9.939
16.7982 9.857
16.8134 10.031
16.8286 10.148
16.8438 9.995
16.8589 9.986
16.8741 9.800
16.8893 9.728
16.9045 9.701
16.9196 9.769
16.9348 9.860
16.9500 10.089
16.9652 9.874
16.9803 9.720
16.9955 9.883
17.0107 10.019
17.0259 10.114
17.0410 10.243
17.0562 10.138
17.0714 10.142
17.0866 10.298
17.1017 10.469
17.1169 10.721
17.1321 10.897
17.1473 11.211
17.1624 11.611
17.1776 12.145
17.1928 13.162
17.2080 14.164
17.2231 15.172
17.2383 16.423
17.2535 17.578
17.2687 18.610
17.2838 18.793
17.2990 18.097
17.3142 17.331
17.3294 16.743
17.3445 16.518
17.3597 16.168
17.3749 15.541
17.3901 15.195
17.4052 14.390
17.4204 13.205
17.4356 12.348
17.4508 11.820
17.4659 11.676
17.4811 11.529
17.4963 11.438
17.5115 11.434
17.5266 11.103
17.5418 10.781
17.5570 10.947
17.5722 11.342
17.5873 11.474
17.6025 11.362
17.6177 11.241
17.6329 10.874
17.6480 10.749
17.6632 10.847
17.6784 10.803
17.6936 10.906
17.7087 10.642
17.7239 10.184
17.7391 10.290
17.7543 10.296
17.7694 10.279
17.7846 10.197
17.7998 10.157
17.8150 10.205
17.8301 10.108
17.8453 9.938
17.8605 9.933
17.8757 10.251
17.8908 10.484
17.9060 10.478
17.9212 10.369
17.9364 10.398
17.9515 10.356
17.9667 10.239
17.9819 10.385
17.9971 10.175
18.0122 10.040
18.0274 10.148
18.0426 10.273
18.0578 10.346
18.0729 10.345
18.0881 10.123
18.1033 10.017
18.1185 9.835
18.1336 9.909
18.1488 10.017
18.1640 10.140
18.1792 10.209
18.1943 10.114
18.2095 9.873
18.2247 9.814
18.2399 9.766
18.2550 9.883
18.2702 9.988
18.2854 9.857
18.3006 9.718
18.3157 9.790
18.3309 9.814
18.3461 9.732
18.3613 9.744
18.3764 9.872
18.3916 9.979
18.4068 9.972
18.4220 9.917
18.4371 9.775
18.4523 9.824
18.4675 9.656
18.4827 9.602
18.4978 9.715
18.5130 9.767
18.5282 9.871
18.5434 10.018
18.5585 9.640
18.5737 9.592
18.5889 9.871
18.6041 9.976
18.6192 9.906
18.6344 9.830
18.6496 9.669
18.6648 9.828
18.6799 10.025
18.6951 9.957
18.7103 9.808
18.7255 9.610
18.7406 9.513
18.7558 9.700
18.7710 9.721
18.7862 9.956
18.8013 10.094
18.8165 10.007
18.8317 9.986
18.8469 9.802
18.8620 9.708
18.8772 9.908
18.8924 10.036
18.9076 10.030
18.9227 9.902
18.9379 9.913
18.9531 9.893
18.9683 9.720
18.9834 10.007
18.9986 10.117
19.0138 10.157
19.0290 10.315
19.0441 10.251
19.0593 10.255
19.0745 10.438
19.0897 10.405
19.1048 10.251
19.1200 10.235
19.1352 10.402
19.1504 10.467
19.1655 10.536
19.1807 10.771
19.1959 10.745
19.2111 10.674
19.2262 10.734
19.2414 10.752
19.2566 10.831
19.2718 10.988
19.2869 10.956
19.3021 10.780
19.3173 11.051
19.3325 11.321
19.3476 11.334
19.3628 11.403
19.3780 11.378
19.3932 11.112
19.4083 10.988
19.4235 11.117
19.4387 11.132
19.4539 11.342
19.4690 11.540
19.4842 11.442
19.4994 11.327
19.5146 11.455
19.5297 11.456
19.5449 11.528
19.5601 11.524
19.5753 11.724
19.5904 11.892
19.6056 11.959
19.6208 11.968
19.6360 11.949
19.6511 12.064
19.6663 11.850
19.6815 11.550
19.6967 11.607
19.7118 11.903
19.7270 11.858
19.7422 11.564
19.7574 11.765
19.7725 11.893
19.7877 11.736
19.8029 11.683
19.8180 11.871
19.8332 12.040
19.8484 12.253
19.8636 12.725
19.8787 13.024
19.8939 13.005
19.9091 13.122
19.9243 13.334
19.9394 13.783
19.9546 14.067
19.9698 14.340
19.9850 14.470
20.0001 14.292
20.0153 14.230
20.0305 14.077
20.0457 13.858
20.0608 13.862
20.0760 13.817
20.0912 13.633
20.1064 13.591
20.1215 13.542
20.1367 13.397
20.1519 13.306
20.1671 13.140
20.1822 12.941
20.1974 12.733
20.2126 12.590
20.2278 12.624
20.2429 12.740
20.2581 12.587
20.2733 12.177
20.2885 12.089
20.3036 12.012
20.3188 11.849
20.3340 11.636
20.3492 11.641
20.3643 11.591
20.3795 11.347
20.3947 11.113
20.4099 10.913
20.4250 10.770
20.4402 10.621
20.4554 10.719
20.4706 10.565
20.4857 10.514
20.5009 10.477
20.5161 10.676
20.5313 10.809
20.5464 10.815
20.5616 10.582
20.5768 10.626
20.5920 10.512
20.6071 10.589
20.6223 10.495
20.6375 10.385
20.6527 10.764
20.6678 10.500
20.6830 10.535
20.6982 10.658
20.7134 10.392
20.7285 10.420
20.7437 10.668
20.7589 10.611
20.7741 10.722
20.7892 10.461
20.8044 10.240
20.8196 10.134
20.8348 9.982
20.8499 10.254
20.8651 10.247
20.8803 10.121
20.8955 10.298
20.9106 10.318
20.9258 10.377
20.9410 10.369
20.9562 10.269
20.9713 10.001
20.9865 10.365
21.0017 10.507
21.0169 10.145
21.0320 10.023
21.0472 9.790
21.0624 9.806
21.0776 9.910
21.0927 9.865
21.1079 9.610
21.1231 9.851
21.1383 9.858
21.1534 9.538
21.1686 9.756
21.1838 9.781
21.1990 10.099
21.2141 10.008
21.2293 9.563
21.2445 9.702
21.2597 9.541
21.2748 9.617
21.2900 9.657
21.3052 9.279
21.3204 9.360
21.3355 9.450
21.3507 9.637
21.3659 9.543
21.3811 9.781
21.3962 9.724
21.4114 9.586
21.4266 9.336
21.4418 9.145
21.4569 9.591
21.4721 9.206
21.4873 9.380
21.5025 9.514
21.5176 9.272
21.5328 9.254
21.5480 9.343
21.5632 9.206
21.5783 9.322
21.5935 9.375
21.6087 9.366
21.6239 9.269
21.6390 9.512
21.6542 9.486
21.6694 9.243
21.6846 9.240
21.6997 9.303
21.7149 9.264
21.7301 8.999
21.7453 9.119
21.7604 9.320
21.7756 9.106
21.7908 9.390
21.8060 9.347
21.8211 9.009
21.8363 9.195
21.8515 9.350
21.8667 8.944
21.8818 9.072
21.8970 9.153
21.9122 9.218
21.9274 9.378
21.9425 9.188
21.9577 9.011
21.9729 8.952
21.9881 8.915
22.0032 8.936
22.0184 8.987
22.0336 9.071
22.0488 9.045
22.0639 8.731
22.0791 8.572
22.0943 8.784
22.1095 8.802
22.1246 8.649
22.1398 8.631
22.1550 8.579
22.1702 8.693
22.1853 8.889
22.2005 8.782
22.2157 8.676
22.2309 8.656
22.2460 8.665
22.2612 8.601
22.2764 8.593
22.2916 8.738
22.3067 8.731
22.3219 8.364
22.3371 8.376
22.3523 8.453
22.3674 8.722
22.3826 8.839
22.3978 8.660
22.4130 8.572
22.4281 8.457
22.4433 8.591
22.4585 8.496
22.4737 8.304
22.4888 8.688
22.5040 8.430
22.5192 8.715
22.5344 8.821
22.5495 8.611
22.5647 8.498
22.5799 8.490
22.5951 8.510
22.6102 8.812
22.6254 8.453
22.6406 8.478
22.6558 8.398
22.6709 8.352
22.6861 8.350
22.7013 8.356
22.7165 8.427
22.7316 6.639
