'Id: "" Comment: "" Operator: "Lab Manager" Anode: "Mo" Scantype: "Still (Eiger2R_500K (1D mode))" TimePerStep: "300" X: "11.8" Y: "9.4" Z: "11.284" 
7.2532 18.907
7.2684 18.787
7.2836 19.136
7.2987 19.160
7.3139 19.121
7.3291 18.982
7.3443 18.814
7.3594 19.393
7.3746 19.386
7.3898 19.139
7.4050 19.437
7.4201 19.155
7.4353 19.588
7.4505 19.384
7.4657 19.606
7.4808 19.630
7.4960 19.339
7.5112 19.406
7.5264 19.988
7.5415 20.052
7.5567 20.203
7.5719 19.873
7.5871 19.760
7.6022 19.799
7.6174 20.114
7.6326 20.165
7.6478 20.283
7.6629 20.029
7.6781 20.034
7.6933 20.187
7.7085 20.203
7.7236 20.086
7.7388 20.354
7.7540 20.503
7.7692 20.525
7.7843 20.400
7.7995 19.833
7.8147 20.305
7.8299 20.796
7.8450 20.875
7.8602 21.126
7.8754 21.293
7.8905 21.247
7.9057 21.135
7.9209 21.201
7.9361 20.813
7.9512 21.126
7.9664 21.181
7.9816 21.305
7.9968 21.524
8.0119 21.060
8.0271 21.073
8.0423 21.181
8.0575 21.345
8.0726 21.341
8.0878 21.200
8.1030 21.593
8.1182 21.845
8.1333 21.436
8.1485 21.173
8.1637 21.332
8.1789 21.521
8.1940 21.462
8.2092 21.528
8.2244 21.724
8.2396 21.663
8.2547 21.839
8.2699 21.651
8.2851 21.386
8.3003 21.907
8.3154 21.986
8.3306 21.686
8.3458 21.998
8.3610 21.722
8.3761 21.786
8.3913 21.520
8.4065 21.824
8.4217 22.330
8.4368 22.290
8.4520 21.584
8.4672 22.147
8.4824 21.532
8.4975 22.297
8.5127 22.056
8.5279 22.197
8.5431 22.441
8.5582 22.267
8.5734 21.907
8.5886 21.987
8.6038 22.057
8.6189 22.513
8.6341 22.819
8.6493 21.958
8.6645 22.372
8.6796 23.010
8.6948 22.741
8.7100 22.591
8.7252 22.646
8.7403 22.557
8.7555 22.240
8.7707 22.732
8.7859 22.583
8.8010 22.807
8.8162 23.032
8.8314 22.298
8.8466 22.722
8.8617 22.644
8.8769 22.391
8.8921 22.272
8.9073 22.825
8.9224 22.711
8.9376 22.738
8.9528 22.577
8.9680 22.597
8.9831 22.415
8.9983 22.797
9.0135 22.737
9.0287 22.727
9.0438 22.812
9.0590 23.032
9.0742 22.709
9.0894 22.765
9.1045 23.059
9.1197 23.143
9.1349 22.624
9.1501 22.789
9.1652 23.157
9.1804 23.020
9.1956 22.997
9.2108 23.010
9.2259 23.359
9.2411 23.326
9.2563 22.765
9.2715 22.767
9.2866 22.665
9.3018 22.963
9.3170 23.336
9.3322 23.420
9.3473 23.115
9.3625 22.874
9.3777 23.150
9.3929 23.508
9.4080 23.348
9.4232 23.070
9.4384 23.411
9.4536 23.492
9.4687 23.545
9.4839 23.419
9.4991 23.235
9.5143 23.128
9.5294 23.157
9.5446 23.164
9.5598 23.537
9.5750 23.567
9.5901 23.554
9.6053 23.801
9.6205 23.673
9.6357 23.640
9.6508 23.532
9.6660 23.391
9.6812 23.432
9.6964 23.699
9.7115 24.053
9.7267 23.988
9.7419 24.142
9.7571 24.284
9.7722 23.793
9.7874 23.680
9.8026 23.720
9.8178 23.763
9.8329 23.854
9.8481 23.532
9.8633 23.323
9.8785 23.523
9.8936 23.719
9.9088 23.456
9.9240 23.225
9.9392 23.455
9.9543 23.429
9.9695 23.302
9.9847 23.637
9.9999 23.892
10.0150 23.808
10.0302 23.828
10.0454 23.600
10.0606 23.518
10.0757 23.501
10.0909 23.565
10.1061 23.605
10.1213 23.975
10.1364 24.215
10.1516 23.755
10.1668 23.595
10.1820 23.504
10.1971 23.826
10.2123 24.248
10.2275 24.541
10.2427 24.241
10.2578 24.374
10.2730 23.995
10.2882 23.792
10.3034 23.389
10.3185 23.010
10.3337 23.063
10.3489 23.474
10.3641 23.186
10.3792 22.767
10.3944 22.917
10.4096 22.858
10.4248 23.000
10.4399 23.285
10.4551 23.271
10.4703 23.113
10.4855 22.530
10.5006 22.574
10.5158 22.453
10.5310 22.491
10.5462 22.253
10.5613 22.986
10.5765 22.866
10.5917 22.592
10.6069 22.316
10.6220 22.741
10.6372 22.584
10.6524 22.312
10.6676 22.522
10.6827 23.000
10.6979 22.646
10.7131 22.636
10.7283 22.311
10.7434 22.165
10.7586 22.325
10.7738 22.348
10.7890 22.212
10.8041 21.979
10.8193 22.070
10.8345 22.328
10.8497 22.394
10.8648 22.565
10.8800 22.135
10.8952 22.034
10.9104 22.287
10.9255 22.040
10.9407 22.117
10.9559 22.390
10.9711 22.220
10.9862 21.871
11.0014 21.844
11.0166 21.857
11.0318 22.056
11.0469 21.822
11.0621 21.773
11.0773 21.841
11.0925 22.049
11.1076 21.892
11.1228 21.906
11.1380 21.753
11.1532 21.823
11.1683 21.738
11.1835 21.952
11.1987 21.964
11.2139 22.037
11.2290 22.011
11.2442 21.910
11.2594 21.933
11.2746 22.171
11.2897 22.113
11.3049 21.771
11.3201 21.799
11.3353 21.621
11.3504 21.217
11.3656 21.147
11.3808 21.020
11.3960 21.415
11.4111 21.357
11.4263 21.444
11.4415 21.248
11.4567 21.278
11.4718 21.312
11.4870 21.179
11.5022 21.242
11.5174 21.298
11.5325 21.198
11.5477 21.000
11.5629 20.738
11.5781 20.931
11.5932 20.694
11.6084 20.794
11.6236 21.052
11.6388 20.840
11.6539 20.587
11.6691 20.661
11.6843 21.104
11.6995 20.874
11.7146 20.391
11.7298 20.328
11.7450 20.491
11.7602 20.441
11.7753 20.193
11.7905 19.785
11.8057 19.804
11.8209 19.789
11.8360 20.079
11.8512 19.857
11.8664 19.539
11.8816 19.762
11.8967 19.925
11.9119 19.703
11.9271 19.646
11.9423 19.545
11.9574 19.663
11.9726 19.559
11.9878 19.228
12.0030 19.239
12.0181 19.038
12.0333 18.959
12.0485 19.201
12.0637 19.171
12.0788 19.137
12.0940 18.917
12.1092 18.768
12.1244 18.938
12.1395 18.842
12.1547 18.414
12.1699 18.061
12.1851 18.259
12.2002 18.498
12.2154 18.122
12.2306 18.219
12.2458 18.372
12.2609 18.207
12.2761 17.992
12.2913 17.635
12.3065 17.856
12.3216 17.660
12.3368 17.769
12.3520 17.619
12.3672 17.499
12.3823 17.431
12.3975 17.392
12.4127 17.447
12.4279 17.522
12.4430 17.192
12.4582 16.976
12.4734 17.237
12.4886 17.005
12.5037 16.937
12.5189 17.025
12.5341 16.822
12.5493 16.264
12.5644 16.609
12.5796 16.664
12.5948 16.408
12.6100 16.323
12.6251 16.062
12.6403 16.005
12.6555 16.036
12.6707 16.026
12.6858 15.853
12.7010 15.765
12.7162 15.708
12.7314 15.733
12.7465 15.832
12.7617 15.583
12.7769 15.278
12.7921 15.232
12.8072 15.357
12.8224 15.192
12.8376 14.908
12.8528 14.797
12.8679 15.014
12.8831 15.003
12.8983 14.704
12.9135 14.630
12.9286 14.613
12.9438 14.376
12.9590 14.355
12.9742 14.573
12.9893 14.464
13.0045 14.197
13.0197 14.226
13.0349 14.136
13.0500 14.107
13.0652 14.325
13.0804 14.169
13.0956 14.016
13.1107 14.118
13.1259 13.915
13.1411 13.927
13.1563 13.807
13.1714 13.335
13.1866 13.836
13.2018 14.040
13.2170 13.495
13.2321 13.320
13.2473 13.187
13.2625 13.028
13.2777 13.198
13.2928 13.269
13.3080 12.877
13.3232 12.843
13.3384 12.968
13.3535 13.105
13.3687 13.089
13.3839 12.812
13.3991 12.975
13.4142 12.966
13.4294 12.773
13.4446 12.749
13.4598 12.686
13.4749 12.746
13.4901 12.556
13.5053 12.511
13.5205 12.364
13.5356 12.310
13.5508 12.536
13.5660 12.380
13.5812 12.153
13.5963 12.107
13.6115 12.155
13.6267 11.964
13.6419 12.013
13.6570 12.236
13.6722 11.973
13.6874 11.794
13.7026 11.905
13.7177 12.129
13.7329 12.199
13.7481 11.858
13.7633 11.762
13.7784 12.104
13.7936 12.249
13.8088 12.201
13.8239 12.154
13.8391 12.104
13.8543 12.058
13.8695 12.139
13.8846 12.195
13.8998 12.066
13.9150 12.068
13.9302 12.233
13.9453 11.975
13.9605 11.577
13.9757 11.582
13.9909 11.659
14.0060 11.752
14.0212 11.507
14.0364 11.266
14.0516 11.314
14.0667 11.622
14.0819 11.511
14.0971 11.661
14.1123 11.467
14.1274 11.535
14.1426 11.626
14.1578 11.717
14.1730 11.593
14.1881 11.424
14.2033 12.021
14.2185 12.429
14.2337 12.057
14.2488 11.850
14.2640 12.121
14.2792 11.886
14.2944 11.945
14.3095 12.283
14.3247 12.347
14.3399 12.859
14.3551 12.782
14.3702 12.655
14.3854 13.067
14.4006 13.065
14.4158 13.113
14.4309 12.746
14.4461 13.104
14.4613 13.115
14.4765 12.782
14.4916 12.745
14.5068 12.675
14.5220 12.271
14.5372 12.043
14.5523 11.770
14.5675 11.859
14.5827 11.870
14.5979 11.598
14.6130 11.356
14.6282 11.464
14.6434 11.540
14.6586 11.112
14.6737 10.952
14.6889 10.997
14.7041 10.943
14.7193 11.038
14.7344 10.702
14.7496 10.864
14.7648 10.779
14.7800 10.279
14.7951 10.675
14.8103 10.848
14.8255 10.454
14.8407 10.810
14.8558 10.770
14.8710 10.641
14.8862 10.615
14.9014 10.882
14.9165 10.992
14.9317 10.944
14.9469 10.558
14.9621 10.711
14.9772 10.437
14.9924 10.437
15.0076 10.415
15.0228 10.669
15.0379 10.633
15.0531 10.624
15.0683 10.243
15.0835 10.696
15.0986 10.642
15.1138 10.219
15.1290 10.165
15.1442 10.759
15.1593 10.914
15.1745 10.551
15.1897 10.345
15.2049 10.529
15.2200 10.397
15.2352 10.232
15.2504 10.344
15.2656 10.111
15.2807 10.206
15.2959 10.720
15.3111 10.577
15.3263 10.296
15.3414 10.410
15.3566 9.975
15.3718 9.986
15.3870 10.321
15.4021 10.220
15.4173 10.478
15.4325 10.868
15.4477 10.578
15.4628 10.163
15.4780 10.589
15.4932 10.501
15.5084 10.116
15.5235 10.129
15.5387 10.277
15.5539 10.271
15.5691 10.488
15.5842 10.160
15.5994 9.905
15.6146 10.173
15.6298 10.030
15.6449 10.058
15.6601 10.101
15.6753 9.746
15.6905 9.872
15.7056 9.647
15.7208 10.188
15.7360 9.770
15.7512 9.595
15.7663 9.661
15.7815 9.639
15.7967 9.934
15.8119 9.646
15.8270 9.849
15.8422 9.880
15.8574 9.747
15.8726 9.783
15.8877 9.727
15.9029 9.265
15.9181 9.519
15.9333 9.698
15.9484 9.700
15.9636 9.743
15.9788 9.751
15.9940 9.740
16.0091 9.700
16.0243 9.790
16.0395 9.965
16.0547 9.925
16.0698 9.651
16.0850 9.745
16.1002 9.815
16.1154 9.621
16.1305 9.562
16.1457 9.860
16.1609 9.503
16.1761 9.619
16.1912 9.690
16.2064 9.699
16.2216 9.803
16.2368 9.746
16.2519 9.767
16.2671 9.873
16.2823 10.029
16.2975 10.189
16.3126 10.268
16.3278 10.189
16.3430 9.993
16.3582 9.937
16.3733 10.034
16.3885 10.326
16.4037 10.277
16.4189 10.153
16.4340 9.954
16.4492 9.939
16.4644 9.971
16.4796 9.906
16.4947 9.772
16.5099 9.648
16.5251 9.611
16.5403 9.834
16.5554 9.724
16.5706 9.520
16.5858 9.710
16.6010 9.831
16.6161 9.809
16.6313 9.742
16.6465 9.647
16.6617 9.727
16.6768 9.819
16.6920 9.876
16.7072 9.894
16.7224 9.979
16.7375 9.891
16.7527 9.954
16.7679 9.968
16.7831 10.039
16.7982 9.816
16.8134 9.811
16.8286 9.788
16.8438 10.019
16.8589 10.263
16.8741 10.247
16.8893 9.919
16.9045 9.541
16.9196 9.697
16.9348 9.949
16.9500 9.922
16.9652 9.860
16.9803 9.852
16.9955 9.913
17.0107 9.707
17.0259 9.429
17.0410 9.721
17.0562 10.244
17.0714 10.414
17.0866 10.371
17.1017 10.496
17.1169 10.907
17.1321 10.938
17.1473 11.035
17.1624 11.643
17.1776 12.296
17.1928 12.940
17.2080 13.737
17.2231 14.640
17.2383 15.893
17.2535 17.339
17.2687 18.471
17.2838 18.564
17.2990 17.903
17.3142 17.128
17.3294 16.325
17.3445 15.832
17.3597 15.773
17.3749 15.819
17.3901 15.245
17.4052 14.233
17.4204 13.337
17.4356 12.453
17.4508 12.080
17.4659 11.881
17.4811 11.496
17.4963 11.465
17.5115 11.468
17.5266 11.420
17.5418 11.321
17.5570 11.257
17.5722 11.560
17.5873 11.880
17.6025 11.784
17.6177 11.527
17.6329 11.367
17.6480 11.185
17.6632 11.148
17.6784 11.269
17.6936 11.400
17.7087 11.414
17.7239 11.010
17.7391 10.808
17.7543 10.654
17.7694 10.784
17.7846 10.900
17.7998 10.921
17.8150 10.734
17.8301 10.553
17.8453 10.658
17.8605 10.580
17.8757 10.792
17.8908 10.961
17.9060 10.871
17.9212 10.672
17.9364 10.457
17.9515 10.476
17.9667 10.399
17.9819 10.486
17.9971 10.630
18.0122 10.588
18.0274 10.578
18.0426 10.256
18.0578 10.211
18.0729 10.325
18.0881 10.143
18.1033 10.024
18.1185 10.167
18.1336 10.015
18.1488 9.997
18.1640 10.058
18.1792 9.924
18.1943 9.828
18.2095 9.757
18.2247 9.784
18.2399 10.040
18.2550 9.943
18.2702 9.682
18.2854 9.751
18.3006 10.005
18.3157 10.002
18.3309 9.734
18.3461 9.940
18.3613 9.797
18.3764 9.710
18.3916 9.605
18.4068 9.706
18.4220 9.880
18.4371 9.856
18.4523 9.649
18.4675 9.786
18.4827 9.856
18.4978 9.847
18.5130 9.872
18.5282 9.703
18.5434 9.606
18.5585 9.524
18.5737 9.491
18.5889 9.446
18.6041 9.686
18.6192 9.790
18.6344 9.589
18.6496 9.692
18.6648 9.851
18.6799 9.867
18.6951 9.801
18.7103 9.644
18.7255 9.683
18.7406 9.755
18.7558 9.978
18.7710 9.920
18.7862 9.570
18.8013 9.618
18.8165 10.043
18.8317 9.909
18.8469 9.701
18.8620 9.776
18.8772 9.739
18.8924 9.805
18.9076 9.830
18.9227 9.832
18.9379 9.752
18.9531 9.798
18.9683 10.016
18.9834 10.001
18.9986 9.909
19.0138 10.136
19.0290 10.262
19.0441 10.184
19.0593 9.949
19.0745 9.860
19.0897 10.217
19.1048 10.291
19.1200 10.224
19.1352 10.471
19.1504 10.481
19.1655 10.555
19.1807 10.558
19.1959 10.628
19.2111 10.503
19.2262 10.506
19.2414 10.855
19.2566 10.977
19.2718 10.917
19.2869 10.927
19.3021 10.867
19.3173 11.094
19.3325 11.101
19.3476 11.066
19.3628 11.102
19.3780 11.209
19.3932 11.162
19.4083 11.145
19.4235 11.129
19.4387 11.245
19.4539 11.253
19.4690 11.159
19.4842 11.453
19.4994 11.584
19.5146 11.421
19.5297 11.489
19.5449 11.382
19.5601 11.429
19.5753 11.487
19.5904 11.348
19.6056 11.555
19.6208 11.633
19.6360 11.511
19.6511 11.511
19.6663 11.436
19.6815 11.527
19.6967 11.681
19.7118 11.743
19.7270 11.658
19.7422 11.703
19.7574 11.517
19.7725 11.324
19.7877 11.630
19.8029 12.016
19.8180 11.976
19.8332 11.963
19.8484 12.149
19.8636 12.293
19.8787 12.575
19.8939 12.725
19.9091 12.908
19.9243 13.458
19.9394 13.733
19.9546 13.934
19.9698 14.352
19.9850 14.486
20.0001 14.377
20.0153 14.239
20.0305 14.013
20.0457 13.622
20.0608 13.461
20.0760 13.562
20.0912 13.849
20.1064 13.814
20.1215 13.507
20.1367 13.268
20.1519 13.005
20.1671 12.972
20.1822 13.002
20.1974 12.999
20.2126 12.902
20.2278 12.884
20.2429 12.675
20.2581 12.436
20.2733 11.988
20.2885 11.774
20.3036 11.872
20.3188 11.825
20.3340 11.649
20.3492 11.609
20.3643 11.583
20.3795 11.239
20.3947 11.266
20.4099 11.279
20.4250 11.118
20.4402 11.217
20.4554 10.982
20.4706 10.863
20.4857 10.582
20.5009 10.827
20.5161 10.764
20.5313 10.809
20.5464 10.892
20.5616 10.921
20.5768 10.634
20.5920 10.816
20.6071 10.506
20.6223 10.580
20.6375 10.643
20.6527 10.715
20.6678 10.431
20.6830 10.910
20.6982 10.689
20.7134 10.568
20.7285 10.592
20.7437 10.350
20.7589 10.479
20.7741 10.785
20.7892 10.755
20.8044 10.610
20.8196 10.540
20.8348 10.427
20.8499 10.409
20.8651 10.393
20.8803 10.257
20.8955 9.942
20.9106 10.347
20.9258 9.928
20.9410 9.897
20.9562 10.212
20.9713 10.100
20.9865 10.235
21.0017 9.927
21.0169 10.147
21.0320 9.761
21.0472 10.105
21.0624 9.921
21.0776 9.753
21.0927 9.830
21.1079 10.021
21.1231 9.985
21.1383 9.665
21.1534 10.055
21.1686 9.849
21.1838 9.817
21.1990 9.967
21.2141 9.831
21.2293 9.485
21.2445 9.397
21.2597 9.803
21.2748 9.773
21.2900 9.741
21.3052 9.511
21.3204 9.767
21.3355 9.663
21.3507 9.547
21.3659 9.610
21.3811 9.385
21.3962 9.517
21.4114 9.209
21.4266 9.645
21.4418 9.427
21.4569 9.289
21.4721 9.138
21.4873 9.152
21.5025 9.466
21.5176 9.258
21.5328 9.424
21.5480 9.687
21.5632 9.442
21.5783 9.216
21.5935 9.234
21.6087 9.275
21.6239 9.253
21.6390 9.021
21.6542 8.952
21.6694 9.145
21.6846 9.026
21.6997 8.945
21.7149 8.959
21.7301 9.180
21.7453 8.878
21.7604 9.048
21.7756 8.968
21.7908 8.884
21.8060 9.034
21.8211 8.830
21.8363 8.961
21.8515 9.058
21.8667 8.761
21.8818 8.645
21.8970 8.853
21.9122 8.921
21.9274 9.004
21.9425 8.979
21.9577 8.905
21.9729 8.864
21.9881 8.720
22.0032 8.657
22.0184 8.881
22.0336 8.928
22.0488 8.786
22.0639 8.801
22.0791 8.786
22.0943 8.790
22.1095 8.595
22.1246 8.600
22.1398 8.889
22.1550 8.885
22.1702 8.944
22.1853 8.774
22.2005 8.694
22.2157 8.731
22.2309 8.655
22.2460 8.588
22.2612 8.497
22.2764 8.791
22.2916 8.690
22.3067 8.622
22.3219 8.448
22.3371 8.505
22.3523 8.497
22.3674 8.359
22.3826 8.491
22.3978 8.373
22.4130 8.491
22.4281 8.424
22.4433 8.575
22.4585 8.456
22.4737 8.194
22.4888 8.326
22.5040 8.181
22.5192 8.037
22.5344 8.485
22.5495 8.414
22.5647 8.527
22.5799 8.436
22.5951 8.337
22.6102 8.548
22.6254 8.472
22.6406 8.258
22.6558 8.453
22.6709 8.531
22.6861 8.368
22.7013 8.302
22.7165 8.280
22.7316 6.379
