'Id: "" Comment: "" Operator: "Lab Manager" Anode: "Mo" Scantype: "Still (Eiger2R_500K (1D mode))" TimePerStep: "300" X: "11.8" Y: "9.4" Z: "11.284" 
7.2532 18.400
7.2684 19.079
7.2836 18.734
7.2987 18.909
7.3139 18.733
7.3291 19.013
7.3443 18.715
7.3594 19.088
7.3746 19.159
7.3898 19.216
7.4050 19.835
7.4201 19.397
7.4353 19.226
7.4505 19.528
7.4657 19.370
7.4808 19.741
7.4960 19.910
7.5112 19.648
7.5264 19.881
7.5415 20.080
7.5567 19.620
7.5719 19.875
7.5871 19.921
7.6022 19.701
7.6174 19.940
7.6326 19.849
7.6478 20.185
7.6629 20.546
7.6781 20.279
7.6933 20.455
7.7085 20.744
7.7236 20.607
7.7388 20.467
7.7540 20.842
7.7692 21.102
7.7843 20.798
7.7995 20.184
7.8147 20.402
7.8299 20.814
7.8450 20.992
7.8602 20.607
7.8754 20.705
7.8905 21.155
7.9057 20.983
7.9209 20.941
7.9361 20.952
7.9512 21.025
7.9664 20.827
7.9816 20.770
7.9968 21.157
8.0119 21.285
8.0271 21.199
8.0423 21.250
8.0575 21.674
8.0726 21.446
8.0878 21.293
8.1030 21.413
8.1182 21.530
8.1333 21.661
8.1485 21.965
8.1637 21.744
8.1789 21.254
8.1940 21.216
8.2092 21.278
8.2244 21.389
8.2396 21.929
8.2547 22.294
8.2699 21.824
8.2851 21.951
8.3003 21.632
8.3154 22.108
8.3306 21.211
8.3458 21.631
8.3610 21.861
8.3761 22.022
8.3913 21.831
8.4065 22.251
8.4217 21.938
8.4368 22.066
8.4520 21.930
8.4672 21.664
8.4824 22.027
8.4975 21.553
8.5127 21.834
8.5279 22.085
8.5431 22.161
8.5582 21.923
8.5734 22.124
8.5886 22.898
8.6038 22.107
8.6189 22.279
8.6341 21.966
8.6493 22.584
8.6645 22.214
8.6796 22.546
8.6948 22.610
8.7100 22.168
8.7252 23.349
8.7403 22.672
8.7555 22.873
8.7707 22.724
8.7859 22.301
8.8010 22.655
8.8162 22.673
8.8314 22.779
8.8466 22.662
8.8617 22.687
8.8769 22.692
8.8921 22.232
8.9073 22.573
8.9224 22.746
8.9376 22.844
8.9528 22.933
8.9680 23.156
8.9831 22.910
8.9983 22.596
9.0135 22.689
9.0287 22.815
9.0438 22.957
9.0590 22.977
9.0742 22.794
9.0894 22.773
9.1045 23.094
9.1197 23.081
9.1349 23.143
9.1501 23.162
9.1652 23.037
9.1804 22.900
9.1956 23.316
9.2108 23.334
9.2259 23.305
9.2411 23.175
9.2563 23.102
9.2715 23.146
9.2866 22.889
9.3018 22.892
9.3170 22.987
9.3322 22.882
9.3473 23.179
9.3625 22.907
9.3777 22.744
9.3929 23.144
9.4080 23.042
9.4232 23.161
9.4384 23.480
9.4536 23.387
9.4687 23.298
9.4839 23.272
9.4991 23.326
9.5143 23.488
9.5294 23.529
9.5446 23.755
9.5598 23.702
9.5750 23.372
9.5901 23.263
9.6053 23.554
9.6205 23.616
9.6357 23.403
9.6508 23.449
9.6660 23.543
9.6812 23.651
9.6964 23.685
9.7115 23.685
9.7267 24.057
9.7419 24.430
9.7571 23.890
9.7722 23.611
9.7874 23.962
9.8026 23.923
9.8178 23.759
9.8329 23.757
9.8481 23.612
9.8633 23.508
9.8785 23.522
9.8936 23.389
9.9088 23.186
9.9240 23.154
9.9392 23.228
9.9543 23.316
9.9695 23.252
9.9847 23.244
9.9999 23.307
10.0150 23.712
10.0302 23.359
10.0454 23.377
10.0606 23.654
10.0757 23.373
10.0909 23.176
10.1061 23.103
10.1213 23.265
10.1364 23.354
10.1516 23.436
10.1668 23.388
10.1820 23.475
10.1971 23.273
10.2123 23.515
10.2275 23.456
10.2427 23.495
10.2578 23.731
10.2730 23.733
10.2882 23.642
10.3034 23.579
10.3185 23.552
10.3337 23.278
10.3489 23.077
10.3641 23.037
10.3792 22.735
10.3944 22.991
10.4096 22.847
10.4248 22.920
10.4399 23.094
10.4551 22.990
10.4703 23.160
10.4855 23.170
10.5006 22.913
10.5158 22.949
10.5310 22.782
10.5462 22.412
10.5613 22.711
10.5765 22.991
10.5917 22.818
10.6069 22.497
10.6220 22.687
10.6372 22.583
10.6524 22.266
10.6676 22.870
10.6827 22.767
10.6979 22.265
10.7131 22.349
10.7283 22.495
10.7434 22.214
10.7586 22.131
10.7738 22.263
10.7890 22.361
10.8041 22.548
10.8193 22.421
10.8345 22.258
10.8497 22.458
10.8648 22.618
10.8800 22.171
10.8952 22.160
10.9104 22.075
10.9255 22.338
10.9407 22.291
10.9559 22.097
10.9711 21.676
10.9862 21.751
11.0014 21.914
11.0166 22.049
11.0318 22.329
11.0469 21.955
11.0621 21.851
11.0773 22.002
11.0925 22.113
11.1076 21.988
11.1228 21.663
11.1380 21.594
11.1532 22.016
11.1683 22.049
11.1835 21.798
11.1987 21.401
11.2139 21.711
11.2290 22.078
11.2442 22.157
11.2594 21.879
11.2746 21.932
11.2897 22.102
11.3049 22.038
11.3201 21.737
11.3353 21.476
11.3504 21.699
11.3656 21.747
11.3808 21.727
11.3960 21.385
11.4111 21.346
11.4263 21.361
11.4415 21.523
11.4567 21.497
11.4718 21.403
11.4870 21.368
11.5022 21.262
11.5174 21.075
11.5325 21.098
11.5477 21.171
11.5629 21.302
11.5781 21.282
11.5932 20.872
11.6084 21.150
11.6236 20.942
11.6388 20.766
11.6539 20.766
11.6691 20.533
11.6843 20.404
11.6995 20.356
11.7146 20.562
11.7298 20.398
11.7450 20.241
11.7602 20.579
11.7753 20.740
11.7905 20.325
11.8057 20.078
11.8209 20.083
11.8360 20.320
11.8512 19.917
11.8664 20.078
11.8816 19.744
11.8967 19.866
11.9119 19.919
11.9271 20.233
11.9423 19.987
11.9574 19.687
11.9726 19.768
11.9878 19.423
12.0030 19.037
12.0181 19.110
12.0333 19.160
12.0485 19.075
12.0637 19.233
12.0788 19.214
12.0940 18.902
12.1092 18.871
12.1244 19.067
12.1395 18.791
12.1547 18.534
12.1699 18.512
12.1851 18.237
12.2002 18.486
12.2154 18.677
12.2306 18.565
12.2458 18.127
12.2609 17.891
12.2761 17.891
12.2913 17.900
12.3065 17.883
12.3216 17.801
12.3368 17.552
12.3520 17.563
12.3672 17.662
12.3823 17.645
12.3975 17.604
12.4127 17.328
12.4279 17.629
12.4430 17.692
12.4582 17.251
12.4734 17.158
12.4886 17.212
12.5037 17.364
12.5189 17.144
12.5341 16.669
12.5493 16.512
12.5644 16.465
12.5796 16.468
12.5948 16.534
12.6100 16.365
12.6251 16.271
12.6403 15.887
12.6555 15.905
12.6707 16.109
12.6858 16.089
12.7010 15.823
12.7162 15.668
12.7314 15.557
12.7465 15.584
12.7617 15.605
12.7769 15.595
12.7921 15.505
12.8072 15.421
12.8224 15.310
12.8376 15.183
12.8528 15.236
12.8679 15.152
12.8831 14.977
12.8983 14.951
12.9135 14.937
12.9286 14.979
12.9438 15.189
12.9590 15.120
12.9742 14.796
12.9893 14.712
13.0045 14.775
13.0197 14.523
13.0349 14.571
13.0500 14.504
13.0652 14.015
13.0804 13.910
13.0956 14.046
13.1107 14.207
13.1259 14.230
13.1411 14.105
13.1563 13.899
13.1714 13.779
13.1866 13.807
13.2018 13.872
13.2170 13.775
13.2321 13.533
13.2473 13.569
13.2625 13.764
13.2777 13.651
13.2928 13.207
13.3080 13.002
13.3232 13.142
13.3384 13.119
13.3535 13.269
13.3687 13.370
13.3839 13.092
13.3991 13.068
13.4142 12.971
13.4294 12.951
13.4446 13.204
13.4598 13.356
13.4749 13.070
13.4901 12.710
13.5053 12.668
13.5205 12.689
13.5356 12.759
13.5508 12.776
13.5660 12.424
13.5812 12.370
13.5963 12.349
13.6115 12.252
13.6267 12.337
13.6419 12.314
13.6570 12.241
13.6722 12.279
13.6874 12.287
13.7026 12.173
13.7177 12.473
13.7329 12.520
13.7481 12.436
13.7633 12.231
13.7784 12.142
13.7936 12.197
13.8088 12.163
13.8239 12.127
13.8391 12.068
13.8543 12.169
13.8695 12.425
13.8846 12.488
13.8998 12.525
13.9150 12.559
13.9302 12.569
13.9453 12.257
13.9605 11.733
13.9757 11.756
13.9909 11.986
14.0060 11.920
14.0212 11.905
14.0364 11.504
14.0516 11.809
14.0667 11.651
14.0819 11.486
14.0971 11.383
14.1123 11.862
14.1274 11.851
14.1426 11.390
14.1578 11.132
14.1730 11.409
14.1881 11.737
14.2033 11.446
14.2185 11.460
14.2337 11.766
14.2488 11.701
14.2640 11.613
14.2792 11.800
14.2944 11.926
14.3095 12.137
14.3247 11.990
14.3399 12.007
14.3551 12.140
14.3702 12.300
14.3854 12.230
14.4006 12.556
14.4158 12.452
14.4309 12.279
14.4461 12.252
14.4613 12.136
14.4765 12.136
14.4916 11.671
14.5068 11.891
14.5220 11.824
14.5372 11.817
14.5523 11.439
14.5675 11.475
14.5827 11.234
14.5979 11.028
14.6130 10.712
14.6282 11.094
14.6434 11.239
14.6586 10.917
14.6737 11.087
14.6889 11.246
14.7041 10.644
14.7193 10.966
14.7344 10.627
14.7496 11.180
14.7648 10.819
14.7800 10.855
14.7951 10.997
14.8103 10.452
14.8255 10.440
14.8407 10.690
14.8558 10.821
14.8710 10.586
14.8862 10.527
14.9014 10.640
14.9165 10.780
14.9317 10.991
14.9469 10.469
14.9621 10.743
14.9772 10.462
14.9924 10.295
15.0076 10.610
15.0228 10.590
15.0379 10.560
15.0531 10.423
15.0683 10.689
15.0835 10.376
15.0986 10.297
15.1138 10.483
15.1290 10.549
15.1442 10.464
15.1593 10.625
15.1745 10.251
15.1897 10.394
15.2049 10.283
15.2200 10.110
15.2352 10.553
15.2504 9.977
15.2656 10.507
15.2807 10.240
15.2959 10.336
15.3111 10.546
15.3263 10.109
15.3414 10.359
15.3566 10.643
15.3718 10.673
15.3870 10.577
15.4021 10.018
15.4173 10.581
15.4325 10.604
15.4477 10.372
15.4628 10.583
15.4780 10.404
15.4932 10.374
15.5084 10.294
15.5235 10.498
15.5387 10.206
15.5539 10.302
15.5691 10.051
15.5842 10.227
15.5994 10.227
15.6146 10.162
15.6298 10.031
15.6449 10.233
15.6601 10.042
15.6753 10.043
15.6905 10.221
15.7056 10.132
15.7208 10.004
15.7360 9.802
15.7512 9.720
15.7663 9.883
15.7815 9.932
15.7967 9.979
15.8119 10.315
15.8270 9.803
15.8422 9.995
15.8574 9.876
15.8726 9.949
15.8877 9.781
15.9029 9.666
15.9181 9.544
15.9333 9.667
15.9484 9.915
15.9636 9.847
15.9788 9.851
15.9940 9.834
16.0091 9.739
16.0243 9.892
16.0395 9.919
16.0547 9.880
16.0698 9.881
16.0850 9.799
16.1002 9.955
16.1154 9.734
16.1305 9.539
16.1457 9.844
16.1609 9.910
16.1761 9.844
16.1912 10.194
16.2064 10.107
16.2216 9.715
16.2368 9.669
16.2519 9.918
16.2671 9.962
16.2823 10.002
16.2975 10.042
16.3126 9.987
16.3278 9.866
16.3430 10.120
16.3582 9.900
16.3733 9.960
16.3885 9.905
16.4037 10.201
16.4189 10.168
16.4340 10.051
16.4492 10.173
16.4644 9.916
16.4796 9.870
16.4947 10.033
16.5099 9.988
16.5251 10.033
16.5403 9.780
16.5554 9.922
16.5706 9.985
16.5858 9.948
16.6010 9.818
16.6161 9.811
16.6313 9.862
16.6465 9.983
16.6617 9.884
16.6768 9.914
16.6920 10.177
16.7072 10.098
16.7224 10.051
16.7375 10.042
16.7527 10.071
16.7679 10.157
16.7831 10.148
16.7982 10.119
16.8134 9.859
16.8286 9.904
16.8438 10.047
16.8589 9.911
16.8741 10.073
16.8893 10.360
16.9045 9.959
16.9196 9.724
16.9348 9.825
16.9500 9.844
16.9652 9.863
16.9803 10.108
16.9955 10.164
17.0107 9.939
17.0259 10.056
17.0410 10.125
17.0562 10.200
17.0714 10.214
17.0866 10.185
17.1017 10.582
17.1169 10.915
17.1321 11.018
17.1473 11.443
17.1624 12.021
17.1776 12.520
17.1928 13.148
17.2080 14.034
17.2231 15.093
17.2383 16.230
17.2535 17.635
17.2687 18.987
17.2838 19.162
17.2990 18.330
17.3142 17.416
17.3294 16.588
17.3445 16.198
17.3597 16.168
17.3749 15.721
17.3901 15.200
17.4052 14.318
17.4204 12.999
17.4356 12.197
17.4508 12.002
17.4659 11.942
17.4811 11.677
17.4963 11.346
17.5115 11.156
17.5266 11.135
17.5418 10.907
17.5570 10.779
17.5722 11.045
17.5873 11.112
17.6025 11.117
17.6177 11.016
17.6329 10.779
17.6480 10.845
17.6632 10.653
17.6784 10.663
17.6936 10.775
17.7087 10.610
17.7239 10.585
17.7391 10.445
17.7543 10.141
17.7694 10.138
17.7846 10.151
17.7998 10.044
17.8150 10.188
17.8301 10.321
17.8453 10.104
17.8605 10.012
17.8757 9.970
17.8908 10.137
17.9060 10.319
17.9212 10.155
17.9364 10.172
17.9515 10.204
17.9667 10.087
17.9819 10.076
17.9971 9.894
18.0122 9.969
18.0274 10.075
18.0426 10.239
18.0578 10.339
18.0729 10.253
18.0881 9.902
18.1033 9.752
18.1185 10.136
18.1336 10.169
18.1488 10.305
18.1640 10.193
18.1792 10.129
18.1943 10.125
18.2095 9.899
18.2247 9.852
18.2399 9.799
18.2550 9.843
18.2702 9.959
18.2854 9.880
18.3006 9.848
18.3157 9.723
18.3309 9.791
18.3461 9.739
18.3613 9.648
18.3764 9.805
18.3916 9.851
18.4068 9.748
18.4220 9.853
18.4371 10.022
18.4523 9.763
18.4675 9.751
18.4827 9.751
18.4978 9.955
18.5130 10.112
18.5282 9.906
18.5434 9.709
18.5585 9.852
18.5737 9.916
18.5889 9.717
18.6041 9.615
18.6192 9.911
18.6344 9.830
18.6496 9.753
18.6648 9.625
18.6799 9.714
18.6951 9.816
18.7103 9.916
18.7255 9.784
18.7406 9.714
18.7558 9.779
18.7710 9.927
18.7862 10.000
18.8013 9.728
18.8165 9.539
18.8317 9.770
18.8469 9.973
18.8620 9.944
18.8772 9.948
18.8924 9.935
18.9076 9.872
18.9227 10.005
18.9379 10.174
18.9531 9.939
18.9683 9.865
18.9834 9.960
18.9986 10.184
19.0138 10.214
19.0290 10.016
19.0441 9.932
19.0593 9.973
19.0745 10.262
19.0897 10.401
19.1048 10.355
19.1200 10.093
19.1352 10.260
19.1504 10.578
19.1655 10.516
19.1807 10.491
19.1959 10.583
19.2111 10.664
19.2262 10.778
19.2414 10.901
19.2566 10.778
19.2718 10.674
19.2869 11.154
19.3021 10.906
19.3173 10.866
19.3325 11.151
19.3476 11.109
19.3628 10.907
19.3780 10.832
19.3932 11.081
19.4083 11.034
19.4235 10.888
19.4387 11.145
19.4539 11.493
19.4690 11.524
19.4842 11.325
19.4994 11.363
19.5146 11.629
19.5297 11.747
19.5449 11.891
19.5601 11.680
19.5753 11.677
19.5904 11.797
19.6056 11.715
19.6208 11.566
19.6360 11.517
19.6511 11.556
19.6663 11.605
19.6815 11.705
19.6967 11.863
19.7118 11.695
19.7270 11.404
19.7422 11.623
19.7574 11.801
19.7725 11.635
19.7877 11.583
19.8029 11.798
19.8180 12.099
19.8332 12.146
19.8484 12.075
19.8636 12.288
19.8787 12.427
19.8939 12.915
19.9091 13.202
19.9243 13.224
19.9394 13.672
19.9546 14.374
19.9698 14.709
19.9850 14.784
20.0001 14.535
20.0153 14.229
20.0305 13.806
20.0457 13.440
20.0608 13.576
20.0760 13.545
20.0912 13.606
20.1064 13.533
20.1215 13.417
20.1367 13.312
20.1519 13.344
20.1671 13.273
20.1822 12.882
20.1974 12.603
20.2126 12.803
20.2278 12.967
20.2429 12.962
20.2581 12.597
20.2733 11.955
20.2885 11.852
20.3036 11.877
20.3188 11.631
20.3340 11.582
20.3492 11.706
20.3643 11.775
20.3795 11.478
20.3947 11.121
20.4099 11.040
20.4250 10.765
20.4402 10.608
20.4554 10.651
20.4706 10.789
20.4857 10.716
20.5009 10.529
20.5161 10.450
20.5313 10.499
20.5464 10.579
20.5616 10.596
20.5768 10.705
20.5920 10.787
20.6071 10.582
20.6223 10.859
20.6375 10.640
20.6527 10.201
20.6678 10.533
20.6830 10.656
20.6982 10.667
20.7134 10.398
20.7285 10.206
20.7437 10.634
20.7589 10.655
20.7741 10.316
20.7892 10.257
20.8044 10.253
20.8196 10.354
20.8348 10.243
20.8499 10.360
20.8651 10.291
20.8803 10.502
20.8955 10.426
20.9106 10.371
20.9258 10.203
20.9410 9.976
20.9562 9.884
20.9713 10.205
20.9865 10.202
21.0017 9.828
21.0169 9.885
21.0320 9.816
21.0472 10.009
21.0624 9.903
21.0776 9.854
21.0927 10.115
21.1079 10.020
21.1231 9.655
21.1383 9.800
21.1534 9.816
21.1686 9.835
21.1838 9.709
21.1990 9.476
21.2141 9.659
21.2293 9.853
21.2445 9.603
21.2597 9.286
21.2748 9.535
21.2900 9.327
21.3052 9.574
21.3204 9.683
21.3355 9.741
21.3507 9.697
21.3659 9.325
21.3811 9.448
21.3962 9.780
21.4114 9.705
21.4266 9.185
21.4418 9.250
21.4569 9.487
21.4721 9.679
21.4873 9.537
21.5025 9.221
21.5176 9.516
21.5328 9.473
21.5480 9.147
21.5632 9.192
21.5783 9.273
21.5935 9.328
21.6087 9.246
21.6239 9.363
21.6390 9.178
21.6542 9.137
21.6694 9.270
21.6846 9.286
21.6997 9.204
21.7149 9.057
21.7301 9.044
21.7453 9.043
21.7604 9.116
21.7756 9.038
21.7908 8.922
21.8060 8.990
21.8211 9.005
21.8363 9.287
21.8515 9.382
21.8667 9.295
21.8818 9.409
21.8970 9.243
21.9122 9.131
21.9274 9.159
21.9425 9.039
21.9577 9.007
21.9729 9.149
21.9881 9.066
22.0032 8.883
22.0184 8.847
22.0336 9.005
22.0488 9.040
22.0639 8.785
22.0791 8.575
22.0943 8.627
22.1095 8.704
22.1246 8.897
22.1398 8.930
22.1550 8.797
22.1702 8.637
22.1853 8.597
22.2005 8.545
22.2157 8.695
22.2309 8.865
22.2460 8.686
22.2612 8.639
22.2764 8.588
22.2916 8.636
22.3067 8.814
22.3219 8.683
22.3371 8.651
22.3523 8.660
22.3674 8.333
22.3826 8.697
22.3978 8.567
22.4130 8.443
22.4281 8.336
22.4433 8.445
22.4585 8.504
22.4737 8.333
22.4888 8.485
22.5040 8.368
22.5192 8.428
22.5344 8.509
22.5495 8.504
22.5647 8.336
22.5799 8.483
22.5951 8.484
22.6102 8.620
22.6254 8.587
22.6406 8.510
22.6558 8.239
22.6709 8.346
22.6861 8.693
22.7013 8.371
22.7165 7.932
22.7316 6.564
