'Id: "" Comment: "" Operator: "Lab Manager" Anode: "Mo" Scantype: "Still (Eiger2R_500K (1D mode))" TimePerStep: "300" X: "11.8" Y: "9.4" Z: "11.284" 
7.2532 18.731
7.2684 18.914
7.2836 19.100
7.2987 18.796
7.3139 19.017
7.3291 19.223
7.3443 19.079
7.3594 18.902
7.3746 19.137
7.3898 19.266
7.4050 19.207
7.4201 19.213
7.4353 19.367
7.4505 19.305
7.4657 19.473
7.4808 19.543
7.4960 19.697
7.5112 19.524
7.5264 19.462
7.5415 19.740
7.5567 19.714
7.5719 20.007
7.5871 19.655
7.6022 19.990
7.6174 20.053
7.6326 20.073
7.6478 20.081
7.6629 20.227
7.6781 20.370
7.6933 20.479
7.7085 19.935
7.7236 19.914
7.7388 20.571
7.7540 20.623
7.7692 20.720
7.7843 20.931
7.7995 20.905
7.8147 20.794
7.8299 20.615
7.8450 20.507
7.8602 20.707
7.8754 20.873
7.8905 20.992
7.9057 21.005
7.9209 20.915
7.9361 20.929
7.9512 21.233
7.9664 21.073
7.9816 20.951
7.9968 21.253
8.0119 21.109
8.0271 20.915
8.0423 21.343
8.0575 21.118
8.0726 21.309
8.0878 21.481
8.1030 21.373
8.1182 21.231
8.1333 21.068
8.1485 21.386
8.1637 21.374
8.1789 21.579
8.1940 21.424
8.2092 21.228
8.2244 21.772
8.2396 21.409
8.2547 21.294
8.2699 21.504
8.2851 21.581
8.3003 21.767
8.3154 21.797
8.3306 21.685
8.3458 21.627
8.3610 21.717
8.3761 21.585
8.3913 21.857
8.4065 21.844
8.4217 22.074
8.4368 22.018
8.4520 21.931
8.4672 21.462
8.4824 21.958
8.4975 21.469
8.5127 21.994
8.5279 22.101
8.5431 22.196
8.5582 22.065
8.5734 22.156
8.5886 22.542
8.6038 22.507
8.6189 22.293
8.6341 21.842
8.6493 22.659
8.6645 22.275
8.6796 22.639
8.6948 22.230
8.7100 22.259
8.7252 22.569
8.7403 22.199
8.7555 22.139
8.7707 22.367
8.7859 22.330
8.8010 22.563
8.8162 22.731
8.8314 22.676
8.8466 22.124
8.8617 22.291
8.8769 22.483
8.8921 22.943
8.9073 22.363
8.9224 22.793
8.9376 22.728
8.9528 22.518
8.9680 22.250
8.9831 22.726
8.9983 22.896
9.0135 22.998
9.0287 22.620
9.0438 22.918
9.0590 23.068
9.0742 22.877
9.0894 22.484
9.1045 22.903
9.1197 22.973
9.1349 22.805
9.1501 23.106
9.1652 23.081
9.1804 23.208
9.1956 22.885
9.2108 22.864
9.2259 22.673
9.2411 22.595
9.2563 22.957
9.2715 23.003
9.2866 22.961
9.3018 23.047
9.3170 23.195
9.3322 22.980
9.3473 23.093
9.3625 22.988
9.3777 23.218
9.3929 23.272
9.4080 23.097
9.4232 23.069
9.4384 23.291
9.4536 22.915
9.4687 22.777
9.4839 23.159
9.4991 23.177
9.5143 23.267
9.5294 23.345
9.5446 23.236
9.5598 23.065
9.5750 23.190
9.5901 22.933
9.6053 22.929
9.6205 23.187
9.6357 23.309
9.6508 23.330
9.6660 23.467
9.6812 23.678
9.6964 23.826
9.7115 23.726
9.7267 23.728
9.7419 24.170
9.7571 24.006
9.7722 23.741
9.7874 24.032
9.8026 23.936
9.8178 23.609
9.8329 23.311
9.8481 23.197
9.8633 23.237
9.8785 23.276
9.8936 23.555
9.9088 23.342
9.9240 23.133
9.9392 23.339
9.9543 23.445
9.9695 23.508
9.9847 23.110
9.9999 22.920
10.0150 23.367
10.0302 23.530
10.0454 23.486
10.0606 23.607
10.0757 23.596
10.0909 23.142
10.1061 23.278
10.1213 23.451
10.1364 23.349
10.1516 23.513
10.1668 23.629
10.1820 23.269
10.1971 23.147
10.2123 23.122
10.2275 22.924
10.2427 22.817
10.2578 22.838
10.2730 22.828
10.2882 22.635
10.3034 22.845
10.3185 22.752
10.3337 22.854
10.3489 22.947
10.3641 22.852
10.3792 22.758
10.3944 22.900
10.4096 22.686
10.4248 23.022
10.4399 22.948
10.4551 22.737
10.4703 22.749
10.4855 22.858
10.5006 22.747
10.5158 22.558
10.5310 22.865
10.5462 22.680
10.5613 22.604
10.5765 22.469
10.5917 22.610
10.6069 23.090
10.6220 22.750
10.6372 22.119
10.6524 22.032
10.6676 22.380
10.6827 22.669
10.6979 22.294
10.7131 22.094
10.7283 22.430
10.7434 22.724
10.7586 22.305
10.7738 22.359
10.7890 22.471
10.8041 22.464
10.8193 22.302
10.8345 22.113
10.8497 22.269
10.8648 22.272
10.8800 22.182
10.8952 22.308
10.9104 22.391
10.9255 22.462
10.9407 22.108
10.9559 21.701
10.9711 22.095
10.9862 22.301
11.0014 22.299
11.0166 22.222
11.0318 22.251
11.0469 22.151
11.0621 21.935
11.0773 21.888
11.0925 22.037
11.1076 21.797
11.1228 21.562
11.1380 21.642
11.1532 22.011
11.1683 22.065
11.1835 21.560
11.1987 21.604
11.2139 21.767
11.2290 21.769
11.2442 21.279
11.2594 21.407
11.2746 21.709
11.2897 21.776
11.3049 21.599
11.3201 21.217
11.3353 21.609
11.3504 21.540
11.3656 21.534
11.3808 21.401
11.3960 21.207
11.4111 21.198
11.4263 21.205
11.4415 21.140
11.4567 21.179
11.4718 21.193
11.4870 21.517
11.5022 21.307
11.5174 20.949
11.5325 20.879
11.5477 20.930
11.5629 20.950
11.5781 21.049
11.5932 20.946
11.6084 20.750
11.6236 20.382
11.6388 20.507
11.6539 20.837
11.6691 20.823
11.6843 20.520
11.6995 20.751
11.7146 20.958
11.7298 20.655
11.7450 20.338
11.7602 20.124
11.7753 19.935
11.7905 20.256
11.8057 20.358
11.8209 19.930
11.8360 20.162
11.8512 20.229
11.8664 20.002
11.8816 19.869
11.8967 19.716
11.9119 19.918
11.9271 19.589
11.9423 19.596
11.9574 19.389
11.9726 19.515
11.9878 19.506
12.0030 19.181
12.0181 19.143
12.0333 19.079
12.0485 18.957
12.0637 19.123
12.0788 19.206
12.0940 18.732
12.1092 18.594
12.1244 18.656
12.1395 18.489
12.1547 18.203
12.1699 18.370
12.1851 18.526
12.2002 18.256
12.2154 18.385
12.2306 18.596
12.2458 18.301
12.2609 17.904
12.2761 17.845
12.2913 17.901
12.3065 17.570
12.3216 17.480
12.3368 17.508
12.3520 17.497
12.3672 17.215
12.3823 17.337
12.3975 17.400
12.4127 16.996
12.4279 16.802
12.4430 16.905
12.4582 17.073
12.4734 16.889
12.4886 16.578
12.5037 16.677
12.5189 16.802
12.5341 16.577
12.5493 16.640
12.5644 16.454
12.5796 16.425
12.5948 16.654
12.6100 16.289
12.6251 16.157
12.6403 15.913
12.6555 15.692
12.6707 15.946
12.6858 15.965
12.7010 15.843
12.7162 15.752
12.7314 15.830
12.7465 15.607
12.7617 15.164
12.7769 15.295
12.7921 15.024
12.8072 14.983
12.8224 15.302
12.8376 15.113
12.8528 14.904
12.8679 14.944
12.8831 14.668
12.8983 14.467
12.9135 14.661
12.9286 14.491
12.9438 14.293
12.9590 14.456
12.9742 14.531
12.9893 14.424
13.0045 14.244
13.0197 13.957
13.0349 13.791
13.0500 13.803
13.0652 13.826
13.0804 13.959
13.0956 13.985
13.1107 13.830
13.1259 13.611
13.1411 13.530
13.1563 13.691
13.1714 13.718
13.1866 13.538
13.2018 13.399
13.2170 13.374
13.2321 13.179
13.2473 13.042
13.2625 13.210
13.2777 13.229
13.2928 13.353
13.3080 13.549
13.3232 13.277
13.3384 13.027
13.3535 12.973
13.3687 12.814
13.3839 12.705
13.3991 12.762
13.4142 12.978
13.4294 13.073
13.4446 12.991
13.4598 12.926
13.4749 12.774
13.4901 12.642
13.5053 12.602
13.5205 12.477
13.5356 12.441
13.5508 12.427
13.5660 12.443
13.5812 12.275
13.5963 12.238
13.6115 12.356
13.6267 12.186
13.6419 12.074
13.6570 12.239
13.6722 12.128
13.6874 12.277
13.7026 12.290
13.7177 12.158
13.7329 12.041
13.7481 12.296
13.7633 12.305
13.7784 12.248
13.7936 12.199
13.8088 12.298
13.8239 12.479
13.8391 12.253
13.8543 12.343
13.8695 12.252
13.8846 12.473
13.8998 12.328
13.9150 12.217
13.9302 11.969
13.9453 12.003
13.9605 11.683
13.9757 11.625
13.9909 11.616
14.0060 11.582
14.0212 11.729
14.0364 11.703
14.0516 11.653
14.0667 11.630
14.0819 11.876
14.0971 11.549
14.1123 11.463
14.1274 11.456
14.1426 11.395
14.1578 11.534
14.1730 11.471
14.1881 11.696
14.2033 11.629
14.2185 11.707
14.2337 11.739
14.2488 11.918
14.2640 11.900
14.2792 11.834
14.2944 12.027
14.3095 12.169
14.3247 12.068
14.3399 12.340
14.3551 12.749
14.3702 12.778
14.3854 13.116
14.4006 13.406
14.4158 13.242
14.4309 13.486
14.4461 13.072
14.4613 12.571
14.4765 12.423
14.4916 12.468
14.5068 12.134
14.5220 11.803
14.5372 11.476
14.5523 11.409
14.5675 11.025
14.5827 10.976
14.5979 11.071
14.6130 10.652
14.6282 10.625
14.6434 10.692
14.6586 10.684
14.6737 10.712
14.6889 10.984
14.7041 10.832
14.7193 10.466
14.7344 10.575
14.7496 10.923
14.7648 10.405
14.7800 10.554
14.7951 10.635
14.8103 10.492
14.8255 10.806
14.8407 10.352
14.8558 10.205
14.8710 10.535
14.8862 10.112
14.9014 10.649
14.9165 10.817
14.9317 11.052
14.9469 10.847
14.9621 10.397
14.9772 10.104
14.9924 10.785
15.0076 10.520
15.0228 10.733
15.0379 10.471
15.0531 10.648
15.0683 9.967
15.0835 10.111
15.0986 10.326
15.1138 10.026
15.1290 10.157
15.1442 10.277
15.1593 10.038
15.1745 10.239
15.1897 10.530
15.2049 10.416
15.2200 10.140
15.2352 10.159
15.2504 9.942
15.2656 10.219
15.2807 10.175
15.2959 10.113
15.3111 10.352
15.3263 10.213
15.3414 10.130
15.3566 10.233
15.3718 10.490
15.3870 10.555
15.4021 10.358
15.4173 10.179
15.4325 10.339
15.4477 10.194
15.4628 10.516
15.4780 9.992
15.4932 10.555
15.5084 10.341
15.5235 10.374
15.5387 10.041
15.5539 9.861
15.5691 10.010
15.5842 10.196
15.5994 10.419
15.6146 9.832
15.6298 9.850
15.6449 9.715
15.6601 9.983
15.6753 9.958
15.6905 9.695
15.7056 9.528
15.7208 9.610
15.7360 9.690
15.7512 9.741
15.7663 9.575
15.7815 9.582
15.7967 9.760
15.8119 9.826
15.8270 9.973
15.8422 9.856
15.8574 9.825
15.8726 9.655
15.8877 9.794
15.9029 9.730
15.9181 9.563
15.9333 9.491
15.9484 9.578
15.9636 9.613
15.9788 9.777
15.9940 9.712
16.0091 9.555
16.0243 9.612
16.0395 9.744
16.0547 9.486
16.0698 9.630
16.0850 9.722
16.1002 9.743
16.1154 9.591
16.1305 9.822
16.1457 9.488
16.1609 9.463
16.1761 9.765
16.1912 9.793
16.2064 9.741
16.2216 9.565
16.2368 9.776
16.2519 10.019
16.2671 9.826
16.2823 9.880
16.2975 10.013
16.3126 10.079
16.3278 9.876
16.3430 9.561
16.3582 9.680
16.3733 9.739
16.3885 9.779
16.4037 9.940
16.4189 9.957
16.4340 9.733
16.4492 9.794
16.4644 9.893
16.4796 9.906
16.4947 9.978
16.5099 9.800
16.5251 9.514
16.5403 9.478
16.5554 9.728
16.5706 9.729
16.5858 9.590
16.6010 9.871
16.6161 9.788
16.6313 9.710
16.6465 9.795
16.6617 9.869
16.6768 9.796
16.6920 9.943
16.7072 10.078
16.7224 10.029
16.7375 9.866
16.7527 10.070
16.7679 10.023
16.7831 10.099
16.7982 10.056
16.8134 9.922
16.8286 9.936
16.8438 9.780
16.8589 9.700
16.8741 9.940
16.8893 9.868
16.9045 9.699
16.9196 9.715
16.9348 9.967
16.9500 10.000
16.9652 9.849
16.9803 9.951
16.9955 10.053
17.0107 10.051
17.0259 10.217
17.0410 10.086
17.0562 9.979
17.0714 10.341
17.0866 10.439
17.1017 10.460
17.1169 10.777
17.1321 11.185
17.1473 11.249
17.1624 11.599
17.1776 12.534
17.1928 13.284
17.2080 14.017
17.2231 14.794
17.2383 15.986
17.2535 17.433
17.2687 18.413
17.2838 18.641
17.2990 17.854
17.3142 16.927
17.3294 16.227
17.3445 16.034
17.3597 16.190
17.3749 15.844
17.3901 14.951
17.4052 14.122
17.4204 13.302
17.4356 12.651
17.4508 12.247
17.4659 11.737
17.4811 11.654
17.4963 11.474
17.5115 11.322
17.5266 11.211
17.5418 10.949
17.5570 10.923
17.5722 11.099
17.5873 11.285
17.6025 11.279
17.6177 11.325
17.6329 11.295
17.6480 11.248
17.6632 11.440
17.6784 11.692
17.6936 11.749
17.7087 11.493
17.7239 11.217
17.7391 11.231
17.7543 11.190
17.7694 11.227
17.7846 11.095
17.7998 10.912
17.8150 10.897
17.8301 10.662
17.8453 10.335
17.8605 10.295
17.8757 10.110
17.8908 10.087
17.9060 10.079
17.9212 10.153
17.9364 10.208
17.9515 10.102
17.9667 10.103
17.9819 10.078
17.9971 10.116
18.0122 10.115
18.0274 10.185
18.0426 10.243
18.0578 10.047
18.0729 9.935
18.0881 9.956
18.1033 9.994
18.1185 9.960
18.1336 9.914
18.1488 9.919
18.1640 9.894
18.1792 10.094
18.1943 10.094
18.2095 9.885
18.2247 9.819
18.2399 9.878
18.2550 9.830
18.2702 9.755
18.2854 9.719
18.3006 9.816
18.3157 9.852
18.3309 9.824
18.3461 9.905
18.3613 9.920
18.3764 9.774
18.3916 9.696
18.4068 9.842
18.4220 10.041
18.4371 9.916
18.4523 9.682
18.4675 9.766
18.4827 9.842
18.4978 9.920
18.5130 9.979
18.5282 9.715
18.5434 9.831
18.5585 9.814
18.5737 9.680
18.5889 9.739
18.6041 9.664
18.6192 9.658
18.6344 9.890
18.6496 10.000
18.6648 9.942
18.6799 9.769
18.6951 9.972
18.7103 9.896
18.7255 9.713
18.7406 9.556
18.7558 9.736
18.7710 9.982
18.7862 9.862
18.8013 9.673
18.8165 9.535
18.8317 9.794
18.8469 9.969
18.8620 9.984
18.8772 9.870
18.8924 9.990
18.9076 10.114
18.9227 10.066
18.9379 9.880
18.9531 9.878
18.9683 10.028
18.9834 10.191
18.9986 9.989
19.0138 10.016
19.0290 9.931
19.0441 10.130
19.0593 10.247
19.0745 10.156
19.0897 10.159
19.1048 10.184
19.1200 10.121
19.1352 10.343
19.1504 10.372
19.1655 10.473
19.1807 10.597
19.1959 10.722
19.2111 10.753
19.2262 10.691
19.2414 10.821
19.2566 10.938
19.2718 10.963
19.2869 10.942
19.3021 10.747
19.3173 10.738
19.3325 10.915
19.3476 10.994
19.3628 10.874
19.3780 10.919
19.3932 11.226
19.4083 11.245
19.4235 11.111
19.4387 11.153
19.4539 11.244
19.4690 11.467
19.4842 11.526
19.4994 11.208
19.5146 11.425
19.5297 11.713
19.5449 11.521
19.5601 11.287
19.5753 11.392
19.5904 11.620
19.6056 11.733
19.6208 11.709
19.6360 11.744
19.6511 11.710
19.6663 11.601
19.6815 11.608
19.6967 11.639
19.7118 11.857
19.7270 11.814
19.7422 11.657
19.7574 11.665
19.7725 11.554
19.7877 11.755
19.8029 11.874
19.8180 11.772
19.8332 11.852
19.8484 12.080
19.8636 12.516
19.8787 12.727
19.8939 12.879
19.9091 13.128
19.9243 13.642
19.9394 13.938
19.9546 14.006
19.9698 14.306
19.9850 14.473
20.0001 14.258
20.0153 14.159
20.0305 14.012
20.0457 13.892
20.0608 13.834
20.0760 13.436
20.0912 13.582
20.1064 13.727
20.1215 13.549
20.1367 13.299
20.1519 12.932
20.1671 12.925
20.1822 12.964
20.1974 12.704
20.2126 12.706
20.2278 12.964
20.2429 12.622
20.2581 12.495
20.2733 12.355
20.2885 12.122
20.3036 12.275
20.3188 12.075
20.3340 11.876
20.3492 11.980
20.3643 12.045
20.3795 11.876
20.3947 11.775
20.4099 11.726
20.4250 12.022
20.4402 11.788
20.4554 11.745
20.4706 11.674
20.4857 12.053
20.5009 11.976
20.5161 11.853
20.5313 11.482
20.5464 11.310
20.5616 11.222
20.5768 11.209
20.5920 11.238
20.6071 11.229
20.6223 11.064
20.6375 10.851
20.6527 10.949
20.6678 10.754
20.6830 10.855
20.6982 10.693
20.7134 10.355
20.7285 10.394
20.7437 10.522
20.7589 10.446
20.7741 10.484
20.7892 10.173
20.8044 10.604
20.8196 10.592
20.8348 10.445
20.8499 10.078
20.8651 10.190
20.8803 10.316
20.8955 10.336
20.9106 10.061
20.9258 9.839
20.9410 9.817
20.9562 9.943
20.9713 9.876
20.9865 9.950
21.0017 10.039
21.0169 9.897
21.0320 10.086
21.0472 9.711
21.0624 9.630
21.0776 9.835
21.0927 9.430
21.1079 9.752
21.1231 9.817
21.1383 9.729
21.1534 9.954
21.1686 9.722
21.1838 9.756
21.1990 9.697
21.2141 9.706
21.2293 9.471
21.2445 9.827
21.2597 9.747
21.2748 9.448
21.2900 9.687
21.3052 9.439
21.3204 9.325
21.3355 9.272
21.3507 9.587
21.3659 9.573
21.3811 9.206
21.3962 9.328
21.4114 9.393
21.4266 9.605
21.4418 9.496
21.4569 9.233
21.4721 9.324
21.4873 9.184
21.5025 9.404
21.5176 9.231
21.5328 9.189
21.5480 9.342
21.5632 9.330
21.5783 9.310
21.5935 9.246
21.6087 9.324
21.6239 8.939
21.6390 9.356
21.6542 9.507
21.6694 9.148
21.6846 9.065
21.6997 9.137
21.7149 9.037
21.7301 9.150
21.7453 9.095
21.7604 9.142
21.7756 9.093
21.7908 8.908
21.8060 9.178
21.8211 9.191
21.8363 9.092
21.8515 9.122
21.8667 8.963
21.8818 8.971
21.8970 8.934
21.9122 9.053
21.9274 9.047
21.9425 8.920
21.9577 9.083
21.9729 9.133
21.9881 8.964
22.0032 8.898
22.0184 9.053
22.0336 8.968
22.0488 8.751
22.0639 8.587
22.0791 8.740
22.0943 8.725
22.1095 8.764
22.1246 8.911
22.1398 8.839
22.1550 8.749
22.1702 8.645
22.1853 8.565
22.2005 8.636
22.2157 8.755
22.2309 8.555
22.2460 8.560
22.2612 8.565
22.2764 8.571
22.2916 8.435
22.3067 8.544
22.3219 8.615
22.3371 8.405
22.3523 8.487
22.3674 8.305
22.3826 8.375
22.3978 8.447
22.4130 8.598
22.4281 8.607
22.4433 8.294
22.4585 8.347
22.4737 8.399
22.4888 8.288
22.5040 8.327
22.5192 8.344
22.5344 8.490
22.5495 8.193
22.5647 8.153
22.5799 8.233
22.5951 8.252
22.6102 8.241
22.6254 8.688
22.6406 8.479
22.6558 8.241
22.6709 8.437
22.6861 8.073
22.7013 8.055
22.7165 7.872
22.7316 6.403
