'Id: "" Comment: "" Operator: "Lab Manager" Anode: "Mo" Scantype: "Still (Eiger2R_500K (1D mode))" TimePerStep: "300" X: "11.8" Y: "9.4" Z: "11.284" 
7.2532 18.979
7.2684 18.828
7.2836 18.945
7.2987 18.817
7.3139 18.936
7.3291 19.127
7.3443 18.970
7.3594 18.769
7.3746 19.203
7.3898 19.163
7.4050 19.141
7.4201 18.995
7.4353 19.250
7.4505 19.334
7.4657 19.296
7.4808 19.632
7.4960 19.790
7.5112 19.684
7.5264 19.602
7.5415 19.544
7.5567 19.844
7.5719 19.836
7.5871 19.609
7.6022 19.788
7.6174 19.845
7.6326 20.288
7.6478 20.518
7.6629 20.271
7.6781 20.008
7.6933 19.836
7.7085 20.271
7.7236 20.684
7.7388 20.367
7.7540 20.291
7.7692 20.350
7.7843 20.512
7.7995 20.770
7.8147 20.373
7.8299 20.475
7.8450 20.340
7.8602 20.481
7.8754 20.868
7.8905 20.909
7.9057 20.660
7.9209 20.498
7.9361 20.746
7.9512 20.720
7.9664 20.696
7.9816 20.958
7.9968 21.012
8.0119 20.559
8.0271 20.842
8.0423 21.237
8.0575 21.334
8.0726 21.215
8.0878 21.138
8.1030 21.129
8.1182 20.945
8.1333 21.200
8.1485 21.183
8.1637 21.475
8.1789 21.601
8.1940 21.311
8.2092 21.628
8.2244 21.565
8.2396 21.490
8.2547 21.333
8.2699 21.575
8.2851 21.419
8.3003 21.490
8.3154 21.562
8.3306 21.547
8.3458 21.644
8.3610 21.587
8.3761 21.373
8.3913 21.705
8.4065 22.115
8.4217 21.533
8.4368 21.651
8.4520 22.148
8.4672 21.822
8.4824 21.808
8.4975 22.136
8.5127 21.881
8.5279 21.850
8.5431 21.702
8.5582 22.172
8.5734 22.117
8.5886 21.666
8.6038 21.818
8.6189 21.805
8.6341 22.604
8.6493 22.303
8.6645 22.131
8.6796 22.613
8.6948 22.144
8.7100 22.571
8.7252 22.203
8.7403 22.560
8.7555 22.161
8.7707 21.964
8.7859 21.949
8.8010 22.244
8.8162 22.416
8.8314 22.557
8.8466 22.672
8.8617 22.273
8.8769 22.509
8.8921 22.182
8.9073 22.042
8.9224 22.247
8.9376 22.508
8.9528 22.868
8.9680 22.743
8.9831 22.755
8.9983 22.496
9.0135 22.875
9.0287 22.943
9.0438 22.800
9.0590 22.492
9.0742 22.361
9.0894 23.015
9.1045 22.535
9.1197 22.559
9.1349 22.521
9.1501 22.928
9.1652 22.856
9.1804 22.631
9.1956 23.039
9.2108 22.637
9.2259 22.739
9.2411 22.596
9.2563 22.699
9.2715 22.723
9.2866 22.652
9.3018 22.963
9.3170 23.087
9.3322 22.946
9.3473 22.892
9.3625 22.768
9.3777 22.846
9.3929 22.642
9.4080 22.855
9.4232 23.449
9.4384 23.037
9.4536 22.740
9.4687 23.015
9.4839 23.244
9.4991 23.246
9.5143 23.148
9.5294 22.972
9.5446 22.798
9.5598 22.945
9.5750 23.284
9.5901 22.990
9.6053 22.944
9.6205 23.284
9.6357 23.129
9.6508 23.247
9.6660 23.408
9.6812 23.483
9.6964 23.554
9.7115 23.710
9.7267 23.704
9.7419 23.890
9.7571 23.835
9.7722 24.069
9.7874 24.067
9.8026 23.701
9.8178 23.686
9.8329 23.627
9.8481 23.788
9.8633 23.478
9.8785 23.173
9.8936 23.263
9.9088 23.176
9.9240 23.142
9.9392 23.388
9.9543 23.068
9.9695 23.109
9.9847 23.497
9.9999 22.979
10.0150 22.865
10.0302 23.001
10.0454 23.101
10.0606 23.092
10.0757 23.308
10.0909 23.244
10.1061 23.388
10.1213 23.703
10.1364 23.595
10.1516 23.232
10.1668 23.070
10.1820 23.371
10.1971 23.155
10.2123 23.293
10.2275 23.144
10.2427 22.884
10.2578 22.765
10.2730 22.683
10.2882 22.537
10.3034 22.664
10.3185 22.731
10.3337 22.378
10.3489 22.407
10.3641 22.392
10.3792 22.579
10.3944 23.009
10.4096 22.552
10.4248 22.453
10.4399 22.535
10.4551 22.519
10.4703 22.691
10.4855 22.446
10.5006 22.609
10.5158 22.600
10.5310 22.672
10.5462 22.635
10.5613 22.658
10.5765 22.767
10.5917 22.757
10.6069 22.513
10.6220 22.607
10.6372 22.964
10.6524 22.702
10.6676 22.599
10.6827 22.282
10.6979 22.388
10.7131 22.592
10.7283 22.527
10.7434 22.384
10.7586 22.263
10.7738 22.188
10.7890 22.232
10.8041 22.274
10.8193 22.012
10.8345 22.018
10.8497 22.165
10.8648 22.477
10.8800 22.331
10.8952 21.791
10.9104 21.671
10.9255 21.895
10.9407 22.228
10.9559 22.144
10.9711 21.799
10.9862 21.792
11.0014 21.862
11.0166 21.914
11.0318 21.840
11.0469 21.746
11.0621 21.991
11.0773 21.863
11.0925 21.993
11.1076 22.026
11.1228 21.625
11.1380 21.640
11.1532 21.649
11.1683 22.072
11.1835 21.942
11.1987 21.744
11.2139 22.038
11.2290 21.750
11.2442 21.555
11.2594 21.219
11.2746 21.622
11.2897 21.433
11.3049 21.427
11.3201 21.532
11.3353 21.226
11.3504 21.038
11.3656 21.433
11.3808 21.303
11.3960 20.883
11.4111 21.361
11.4263 21.705
11.4415 21.082
11.4567 21.456
11.4718 21.683
11.4870 21.487
11.5022 21.218
11.5174 20.909
11.5325 20.926
11.5477 20.693
11.5629 20.748
11.5781 21.137
11.5932 20.983
11.6084 20.543
11.6236 20.519
11.6388 20.290
11.6539 20.383
11.6691 20.687
11.6843 20.699
11.6995 20.621
11.7146 20.602
11.7298 20.598
11.7450 20.411
11.7602 20.601
11.7753 20.326
11.7905 20.218
11.8057 20.401
11.8209 20.408
11.8360 20.329
11.8512 20.173
11.8664 19.530
11.8816 19.646
11.8967 19.730
11.9119 19.473
11.9271 19.553
11.9423 19.536
11.9574 19.460
11.9726 19.280
11.9878 19.118
12.0030 18.987
12.0181 18.978
12.0333 18.969
12.0485 19.093
12.0637 19.051
12.0788 18.864
12.0940 18.865
12.1092 18.742
12.1244 18.803
12.1395 18.647
12.1547 18.522
12.1699 18.195
12.1851 17.976
12.2002 18.040
12.2154 18.186
12.2306 18.053
12.2458 17.874
12.2609 17.936
12.2761 17.826
12.2913 17.727
12.3065 17.902
12.3216 17.922
12.3368 17.502
12.3520 17.571
12.3672 17.559
12.3823 17.209
12.3975 17.227
12.4127 17.394
12.4279 17.110
12.4430 16.876
12.4582 16.826
12.4734 16.827
12.4886 16.936
12.5037 16.955
12.5189 16.828
12.5341 16.335
12.5493 16.064
12.5644 16.267
12.5796 16.288
12.5948 16.235
12.6100 16.280
12.6251 15.985
12.6403 15.897
12.6555 15.880
12.6707 15.921
12.6858 16.177
12.7010 16.071
12.7162 15.415
12.7314 15.501
12.7465 15.604
12.7617 15.788
12.7769 15.769
12.7921 15.393
12.8072 14.890
12.8224 14.919
12.8376 15.066
12.8528 14.937
12.8679 14.800
12.8831 14.624
12.8983 14.742
12.9135 14.744
12.9286 14.651
12.9438 14.354
12.9590 14.367
12.9742 14.419
12.9893 14.230
13.0045 14.438
13.0197 14.564
13.0349 14.448
13.0500 14.225
13.0652 14.073
13.0804 13.938
13.0956 13.842
13.1107 13.797
13.1259 13.741
13.1411 13.600
13.1563 13.738
13.1714 13.832
13.1866 13.700
13.2018 13.656
13.2170 13.595
13.2321 13.498
13.2473 13.503
13.2625 13.426
13.2777 13.206
13.2928 13.235
13.3080 12.988
13.3232 13.029
13.3384 13.251
13.3535 13.098
13.3687 13.083
13.3839 13.130
13.3991 13.025
13.4142 12.925
13.4294 12.783
13.4446 12.831
13.4598 12.763
13.4749 12.801
13.4901 12.908
13.5053 12.768
13.5205 12.567
13.5356 12.423
13.5508 12.536
13.5660 12.383
13.5812 12.131
13.5963 12.226
13.6115 12.261
13.6267 12.255
13.6419 12.407
13.6570 12.178
13.6722 12.203
13.6874 12.150
13.7026 12.342
13.7177 12.381
13.7329 12.268
13.7481 12.351
13.7633 12.345
13.7784 12.221
13.7936 12.080
13.8088 12.205
13.8239 12.373
13.8391 12.778
13.8543 12.615
13.8695 12.431
13.8846 12.232
13.8998 12.286
13.9150 12.267
13.9302 12.257
13.9453 12.383
13.9605 12.272
13.9757 11.891
13.9909 11.659
14.0060 11.794
14.0212 11.754
14.0364 11.575
14.0516 11.539
14.0667 11.500
14.0819 11.699
14.0971 11.562
14.1123 11.496
14.1274 11.504
14.1426 11.584
14.1578 11.645
14.1730 11.589
14.1881 11.897
14.2033 11.820
14.2185 11.940
14.2337 11.774
14.2488 11.808
14.2640 11.715
14.2792 11.931
14.2944 12.272
14.3095 12.278
14.3247 12.459
14.3399 12.434
14.3551 12.710
14.3702 13.050
14.3854 12.960
14.4006 13.150
14.4158 12.791
14.4309 12.783
14.4461 12.538
14.4613 12.501
14.4765 12.376
14.4916 12.511
14.5068 12.308
14.5220 12.138
14.5372 11.726
14.5523 11.494
14.5675 11.153
14.5827 11.046
14.5979 10.482
14.6130 10.876
14.6282 10.632
14.6434 10.677
14.6586 10.919
14.6737 10.838
14.6889 10.767
14.7041 10.421
14.7193 10.853
14.7344 10.616
14.7496 10.642
14.7648 10.502
14.7800 10.690
14.7951 10.618
14.8103 10.327
14.8255 10.641
14.8407 10.447
14.8558 10.710
14.8710 10.601
14.8862 10.268
14.9014 10.254
14.9165 10.934
14.9317 10.772
14.9469 10.383
14.9621 10.307
14.9772 9.884
14.9924 10.055
15.0076 10.283
15.0228 10.313
15.0379 10.228
15.0531 10.402
15.0683 10.494
15.0835 10.029
15.0986 10.337
15.1138 10.020
15.1290 10.077
15.1442 10.374
15.1593 10.154
15.1745 10.085
15.1897 10.389
15.2049 10.049
15.2200 10.234
15.2352 10.150
15.2504 10.045
15.2656 9.913
15.2807 10.166
15.2959 9.753
15.3111 10.159
15.3263 9.937
15.3414 9.857
15.3566 10.021
15.3718 10.038
15.3870 10.219
15.4021 10.138
15.4173 10.336
15.4325 10.341
15.4477 10.412
15.4628 10.287
15.4780 10.319
15.4932 10.029
15.5084 10.149
15.5235 10.048
15.5387 10.249
15.5539 10.185
15.5691 9.881
15.5842 9.625
15.5994 9.817
15.6146 9.790
15.6298 9.448
15.6449 9.848
15.6601 9.682
15.6753 9.747
15.6905 9.625
15.7056 9.809
15.7208 9.600
15.7360 9.804
15.7512 9.657
15.7663 9.622
15.7815 9.676
15.7967 9.967
15.8119 9.475
15.8270 9.478
15.8422 9.643
15.8574 9.480
15.8726 9.534
15.8877 9.441
15.9029 9.403
15.9181 9.212
15.9333 9.675
15.9484 9.709
15.9636 9.617
15.9788 9.574
15.9940 9.829
16.0091 9.460
16.0243 9.569
16.0395 9.713
16.0547 9.832
16.0698 9.587
16.0850 9.602
16.1002 9.649
16.1154 9.545
16.1305 9.430
16.1457 9.244
16.1609 9.553
16.1761 9.492
16.1912 9.539
16.2064 9.832
16.2216 9.873
16.2368 9.845
16.2519 9.853
16.2671 9.824
16.2823 9.890
16.2975 9.850
16.3126 9.941
16.3278 9.834
16.3430 10.005
16.3582 10.006
16.3733 9.773
16.3885 9.763
16.4037 9.697
16.4189 9.937
16.4340 9.846
16.4492 9.591
16.4644 9.696
16.4796 9.587
16.4947 9.627
16.5099 9.566
16.5251 9.408
16.5403 9.479
16.5554 9.501
16.5706 9.577
16.5858 9.373
16.6010 9.573
16.6161 9.556
16.6313 9.509
16.6465 9.588
16.6617 9.758
16.6768 9.755
16.6920 9.851
16.7072 9.693
16.7224 9.742
16.7375 9.795
16.7527 9.919
16.7679 9.886
16.7831 9.823
16.7982 9.935
16.8134 9.934
16.8286 9.742
16.8438 9.815
16.8589 9.934
16.8741 9.926
16.8893 9.942
16.9045 9.722
16.9196 9.545
16.9348 9.641
16.9500 9.875
16.9652 9.787
16.9803 9.727
16.9955 9.666
17.0107 9.799
17.0259 10.006
17.0410 10.059
17.0562 9.998
17.0714 10.056
17.0866 10.254
17.1017 10.559
17.1169 10.715
17.1321 11.204
17.1473 11.591
17.1624 11.689
17.1776 12.156
17.1928 13.004
17.2080 13.874
17.2231 14.744
17.2383 16.251
17.2535 17.612
17.2687 18.186
17.2838 18.449
17.2990 17.973
17.3142 16.990
17.3294 16.413
17.3445 16.161
17.3597 16.074
17.3749 15.886
17.3901 15.505
17.4052 14.635
17.4204 13.464
17.4356 12.644
17.4508 12.039
17.4659 11.655
17.4811 11.494
17.4963 11.352
17.5115 11.239
17.5266 11.165
17.5418 11.037
17.5570 10.950
17.5722 10.766
17.5873 10.757
17.6025 11.030
17.6177 11.260
17.6329 11.208
17.6480 11.126
17.6632 11.250
17.6784 11.349
17.6936 11.386
17.7087 11.368
17.7239 11.218
17.7391 10.985
17.7543 10.993
17.7694 10.909
17.7846 10.871
17.7998 10.701
17.8150 10.501
17.8301 10.620
17.8453 10.647
17.8605 10.461
17.8757 10.282
17.8908 10.073
17.9060 10.104
17.9212 10.294
17.9364 10.360
17.9515 10.252
17.9667 9.891
17.9819 10.079
17.9971 10.137
18.0122 9.974
18.0274 10.273
18.0426 10.427
18.0578 10.242
18.0729 10.191
18.0881 10.067
18.1033 10.131
18.1185 10.362
18.1336 10.055
18.1488 9.810
18.1640 9.815
18.1792 9.832
18.1943 9.949
18.2095 9.930
18.2247 9.784
18.2399 9.835
18.2550 9.956
18.2702 9.887
18.2854 9.883
18.3006 9.715
18.3157 9.655
18.3309 9.783
18.3461 9.785
18.3613 9.963
18.3764 9.823
18.3916 9.727
18.4068 9.750
18.4220 9.801
18.4371 9.685
18.4523 9.739
18.4675 9.972
18.4827 9.889
18.4978 9.905
18.5130 9.867
18.5282 9.799
18.5434 9.733
18.5585 9.611
18.5737 9.662
18.5889 9.562
18.6041 9.619
18.6192 9.814
18.6344 9.697
18.6496 9.896
18.6648 9.757
18.6799 9.699
18.6951 9.634
18.7103 9.372
18.7255 9.639
18.7406 9.890
18.7558 9.795
18.7710 9.819
18.7862 9.875
18.8013 9.812
18.8165 9.695
18.8317 9.840
18.8469 9.957
18.8620 9.902
18.8772 9.892
18.8924 10.029
18.9076 9.996
18.9227 9.777
18.9379 9.807
18.9531 9.942
18.9683 10.040
18.9834 10.177
18.9986 10.176
19.0138 10.015
19.0290 10.072
19.0441 10.225
19.0593 10.166
19.0745 10.071
19.0897 10.179
19.1048 10.238
19.1200 10.196
19.1352 10.461
19.1504 10.546
19.1655 10.443
19.1807 10.456
19.1959 10.473
19.2111 10.561
19.2262 10.806
19.2414 10.989
19.2566 10.848
19.2718 10.726
19.2869 10.842
19.3021 10.730
19.3173 11.145
19.3325 11.399
19.3476 11.131
19.3628 11.092
19.3780 11.093
19.3932 11.160
19.4083 11.196
19.4235 11.074
19.4387 11.126
19.4539 11.283
19.4690 11.514
19.4842 11.679
19.4994 11.571
19.5146 11.535
19.5297 11.560
19.5449 11.489
19.5601 11.478
19.5753 11.429
19.5904 11.403
19.6056 11.691
19.6208 11.952
19.6360 11.838
19.6511 11.743
19.6663 11.930
19.6815 11.931
19.6967 11.745
19.7118 11.801
19.7270 11.857
19.7422 11.872
19.7574 11.671
19.7725 11.668
19.7877 11.821
19.8029 11.956
19.8180 12.100
19.8332 12.138
19.8484 12.432
19.8636 12.637
19.8787 12.650
19.8939 12.993
19.9091 13.357
19.9243 13.506
19.9394 13.758
19.9546 14.189
19.9698 14.519
19.9850 14.518
20.0001 14.479
20.0153 14.333
20.0305 13.942
20.0457 13.769
20.0608 13.805
20.0760 14.062
20.0912 14.099
20.1064 13.874
20.1215 13.679
20.1367 13.666
20.1519 13.564
20.1671 13.266
20.1822 13.106
20.1974 13.077
20.2126 13.024
20.2278 12.882
20.2429 12.785
20.2581 12.741
20.2733 12.633
20.2885 12.288
20.3036 12.335
20.3188 12.265
20.3340 12.067
20.3492 12.065
20.3643 11.982
20.3795 12.064
20.3947 11.911
20.4099 11.901
20.4250 11.844
20.4402 11.854
20.4554 11.774
20.4706 11.934
20.4857 11.771
20.5009 11.649
20.5161 11.612
20.5313 11.764
20.5464 11.525
20.5616 11.513
20.5768 11.405
20.5920 11.327
20.6071 11.557
20.6223 11.140
20.6375 10.683
20.6527 10.892
20.6678 10.671
20.6830 10.490
20.6982 10.477
20.7134 10.528
20.7285 10.378
20.7437 10.565
20.7589 10.470
20.7741 10.501
20.7892 10.438
20.8044 10.354
20.8196 10.577
20.8348 10.512
20.8499 10.378
20.8651 10.587
20.8803 10.373
20.8955 10.241
20.9106 10.236
20.9258 10.271
20.9410 10.345
20.9562 10.117
20.9713 10.150
20.9865 10.191
21.0017 10.090
21.0169 9.840
21.0320 10.442
21.0472 10.110
21.0624 10.050
21.0776 9.907
21.0927 10.126
21.1079 10.287
21.1231 9.974
21.1383 9.824
21.1534 9.674
21.1686 10.107
21.1838 9.698
21.1990 9.639
21.2141 9.947
21.2293 10.035
21.2445 9.626
21.2597 9.541
21.2748 9.590
21.2900 9.543
21.3052 9.682
21.3204 9.734
21.3355 9.579
21.3507 9.585
21.3659 9.350
21.3811 9.605
21.3962 9.373
21.4114 9.417
21.4266 9.587
21.4418 9.432
21.4569 9.699
21.4721 9.342
21.4873 9.251
21.5025 9.430
21.5176 9.577
21.5328 9.452
21.5480 9.181
21.5632 9.257
21.5783 9.305
21.5935 9.005
21.6087 9.023
21.6239 9.289
21.6390 9.234
21.6542 8.945
21.6694 9.158
21.6846 9.194
21.6997 9.253
21.7149 9.202
21.7301 8.838
21.7453 9.102
21.7604 9.224
21.7756 9.179
21.7908 9.255
21.8060 9.135
21.8211 9.164
21.8363 9.144
21.8515 9.248
21.8667 9.046
21.8818 8.847
21.8970 8.844
21.9122 9.085
21.9274 9.221
21.9425 8.907
21.9577 8.847
21.9729 8.742
21.9881 8.950
22.0032 8.923
22.0184 8.902
22.0336 8.936
22.0488 8.819
22.0639 8.716
22.0791 8.562
22.0943 8.591
22.1095 8.659
22.1246 8.610
22.1398 8.541
22.1550 8.666
22.1702 8.697
22.1853 8.700
22.2005 8.611
22.2157 8.782
22.2309 8.616
22.2460 8.527
22.2612 8.564
22.2764 8.452
22.2916 8.864
22.3067 8.735
22.3219 8.882
22.3371 8.499
22.3523 8.324
22.3674 8.428
22.3826 8.566
22.3978 8.650
22.4130 8.687
22.4281 8.436
22.4433 8.458
22.4585 8.301
22.4737 8.605
22.4888 8.487
22.5040 8.414
22.5192 8.259
22.5344 8.348
22.5495 8.459
22.5647 8.351
22.5799 8.569
22.5951 8.445
22.6102 8.414
22.6254 8.391
22.6406 8.277
22.6558 7.991
22.6709 8.442
22.6861 8.129
22.7013 8.243
22.7165 7.925
22.7316 6.673
