'Id: "" Comment: "" Operator: "Lab Manager" Anode: "Mo" Scantype: "Still (Eiger2R_500K (1D mode))" TimePerStep: "300" X: "11.8" Y: "9.4" Z: "11.284" 
7.2532 18.534
7.2684 18.767
7.2836 19.382
7.2987 19.324
7.3139 19.108
7.3291 18.726
7.3443 18.847
7.3594 19.154
7.3746 19.180
7.3898 19.109
7.4050 19.338
7.4201 19.294
7.4353 19.396
7.4505 19.205
7.4657 19.297
7.4808 19.880
7.4960 20.084
7.5112 19.701
7.5264 19.799
7.5415 19.930
7.5567 19.841
7.5719 19.937
7.5871 19.974
7.6022 19.932
7.6174 20.094
7.6326 20.123
7.6478 20.284
7.6629 19.994
7.6781 19.753
7.6933 19.977
7.7085 19.712
7.7236 19.769
7.7388 20.084
7.7540 20.264
7.7692 20.494
7.7843 20.433
7.7995 20.385
7.8147 20.634
7.8299 20.797
7.8450 20.478
7.8602 20.287
7.8754 20.275
7.8905 20.407
7.9057 20.725
7.9209 21.116
7.9361 20.790
7.9512 20.662
7.9664 21.243
7.9816 21.222
7.9968 21.307
8.0119 21.210
8.0271 20.743
8.0423 21.055
8.0575 21.226
8.0726 21.088
8.0878 21.118
8.1030 20.883
8.1182 21.038
8.1333 21.222
8.1485 21.331
8.1637 21.213
8.1789 21.635
8.1940 21.413
8.2092 21.151
8.2244 21.398
8.2396 21.118
8.2547 21.293
8.2699 21.309
8.2851 21.240
8.3003 21.831
8.3154 21.774
8.3306 21.751
8.3458 21.605
8.3610 21.849
8.3761 21.574
8.3913 21.833
8.4065 21.728
8.4217 22.030
8.4368 21.877
8.4520 21.945
8.4672 22.335
8.4824 21.559
8.4975 22.246
8.5127 21.509
8.5279 21.738
8.5431 21.289
8.5582 22.749
8.5734 22.497
8.5886 22.116
8.6038 21.633
8.6189 21.702
8.6341 22.092
8.6493 22.451
8.6645 22.125
8.6796 22.235
8.6948 22.406
8.7100 22.052
8.7252 21.830
8.7403 21.916
8.7555 22.336
8.7707 22.285
8.7859 22.352
8.8010 22.676
8.8162 22.311
8.8314 22.196
8.8466 22.534
8.8617 22.556
8.8769 22.472
8.8921 22.605
8.9073 22.390
8.9224 22.605
8.9376 22.849
8.9528 22.618
8.9680 22.592
8.9831 22.580
8.9983 22.691
9.0135 22.856
9.0287 22.794
9.0438 22.669
9.0590 22.874
9.0742 22.903
9.0894 22.527
9.1045 22.610
9.1197 22.579
9.1349 22.683
9.1501 22.619
9.1652 22.861
9.1804 22.983
9.1956 22.948
9.2108 22.685
9.2259 22.922
9.2411 22.784
9.2563 22.962
9.2715 22.996
9.2866 22.857
9.3018 22.473
9.3170 22.695
9.3322 22.971
9.3473 22.815
9.3625 22.750
9.3777 22.778
9.3929 23.101
9.4080 23.288
9.4232 22.921
9.4384 23.100
9.4536 23.375
9.4687 22.772
9.4839 22.739
9.4991 22.837
9.5143 22.634
9.5294 22.947
9.5446 23.045
9.5598 23.392
9.5750 23.206
9.5901 22.911
9.6053 22.967
9.6205 22.976
9.6357 23.031
9.6508 23.456
9.6660 23.566
9.6812 23.211
9.6964 23.707
9.7115 23.915
9.7267 23.687
9.7419 23.946
9.7571 24.037
9.7722 23.783
9.7874 23.465
9.8026 23.473
9.8178 23.404
9.8329 23.256
9.8481 23.201
9.8633 23.367
9.8785 23.208
9.8936 22.938
9.9088 22.949
9.9240 22.922
9.9392 23.024
9.9543 22.915
9.9695 23.241
9.9847 23.720
9.9999 23.366
10.0150 23.006
10.0302 23.132
10.0454 22.900
10.0606 23.004
10.0757 23.607
10.0909 23.568
10.1061 23.646
10.1213 23.764
10.1364 23.162
10.1516 23.244
10.1668 23.434
10.1820 23.248
10.1971 22.973
10.2123 22.924
10.2275 22.987
10.2427 22.961
10.2578 22.995
10.2730 22.980
10.2882 22.659
10.3034 22.784
10.3185 22.838
10.3337 22.876
10.3489 22.645
10.3641 22.813
10.3792 22.527
10.3944 22.458
10.4096 22.702
10.4248 22.783
10.4399 22.643
10.4551 22.451
10.4703 22.449
10.4855 22.530
10.5006 22.546
10.5158 22.552
10.5310 22.645
10.5462 22.749
10.5613 22.700
10.5765 22.548
10.5917 22.431
10.6069 22.389
10.6220 22.361
10.6372 22.400
10.6524 22.569
10.6676 22.372
10.6827 22.227
10.6979 22.612
10.7131 22.494
10.7283 22.644
10.7434 22.632
10.7586 22.472
10.7738 22.161
10.7890 22.111
10.8041 22.248
10.8193 22.275
10.8345 22.084
10.8497 22.279
10.8648 22.339
10.8800 22.368
10.8952 22.421
10.9104 22.098
10.9255 22.055
10.9407 22.192
10.9559 21.947
10.9711 21.940
10.9862 21.794
11.0014 21.819
11.0166 22.122
11.0318 22.209
11.0469 21.906
11.0621 21.890
11.0773 22.070
11.0925 22.332
11.1076 22.190
11.1228 21.604
11.1380 21.597
11.1532 21.631
11.1683 21.636
11.1835 21.929
11.1987 21.402
11.2139 21.359
11.2290 21.562
11.2442 21.897
11.2594 21.631
11.2746 21.328
11.2897 21.707
11.3049 21.469
11.3201 21.758
11.3353 21.302
11.3504 21.417
11.3656 21.632
11.3808 21.548
11.3960 21.321
11.4111 21.124
11.4263 21.144
11.4415 21.389
11.4567 21.356
11.4718 21.149
11.4870 21.139
11.5022 20.790
11.5174 21.020
11.5325 20.746
11.5477 20.623
11.5629 20.947
11.5781 20.801
11.5932 20.712
11.6084 20.777
11.6236 20.961
11.6388 20.471
11.6539 20.611
11.6691 20.632
11.6843 20.834
11.6995 20.052
11.7146 20.102
11.7298 20.439
11.7450 20.307
11.7602 20.452
11.7753 20.137
11.7905 19.967
11.8057 20.175
11.8209 20.276
11.8360 19.862
11.8512 19.890
11.8664 19.942
11.8816 20.018
11.8967 19.605
11.9119 19.368
11.9271 19.364
11.9423 19.368
11.9574 19.587
11.9726 19.242
11.9878 18.846
12.0030 19.004
12.0181 19.094
12.0333 18.891
12.0485 18.835
12.0637 18.972
12.0788 18.860
12.0940 18.565
12.1092 18.665
12.1244 18.592
12.1395 18.631
12.1547 18.624
12.1699 18.373
12.1851 18.392
12.2002 18.324
12.2154 18.294
12.2306 17.884
12.2458 17.759
12.2609 17.947
12.2761 17.799
12.2913 17.781
12.3065 17.803
12.3216 17.571
12.3368 17.422
12.3520 17.337
12.3672 17.337
12.3823 17.381
12.3975 17.298
12.4127 17.166
12.4279 17.026
12.4430 16.914
12.4582 16.951
12.4734 16.756
12.4886 16.682
12.5037 16.760
12.5189 16.652
12.5341 16.548
12.5493 16.428
12.5644 16.208
12.5796 16.039
12.5948 16.093
12.6100 16.458
12.6251 16.189
12.6403 15.642
12.6555 15.642
12.6707 16.035
12.6858 16.082
12.7010 15.897
12.7162 15.501
12.7314 15.516
12.7465 15.713
12.7617 15.880
12.7769 15.784
12.7921 15.304
12.8072 14.959
12.8224 14.853
12.8376 14.911
12.8528 14.919
12.8679 14.978
12.8831 14.867
12.8983 14.587
12.9135 14.625
12.9286 14.589
12.9438 14.385
12.9590 14.312
12.9742 14.392
12.9893 14.367
13.0045 14.297
13.0197 14.400
13.0349 14.331
13.0500 14.135
13.0652 14.073
13.0804 14.121
13.0956 13.977
13.1107 13.596
13.1259 13.399
13.1411 13.401
13.1563 13.613
13.1714 13.778
13.1866 13.661
13.2018 13.569
13.2170 13.435
13.2321 13.405
13.2473 13.517
13.2625 13.609
13.2777 13.448
13.2928 13.075
13.3080 13.113
13.3232 13.166
13.3384 12.850
13.3535 12.704
13.3687 12.870
13.3839 12.920
13.3991 12.976
13.4142 13.088
13.4294 12.931
13.4446 12.810
13.4598 12.813
13.4749 12.618
13.4901 12.387
13.5053 12.469
13.5205 12.488
13.5356 12.230
13.5508 12.342
13.5660 12.346
13.5812 12.220
13.5963 12.196
13.6115 12.103
13.6267 12.049
13.6419 12.004
13.6570 12.235
13.6722 12.326
13.6874 12.166
13.7026 11.959
13.7177 11.819
13.7329 11.959
13.7481 11.948
13.7633 12.258
13.7784 12.281
13.7936 12.197
13.8088 12.137
13.8239 11.986
13.8391 12.025
13.8543 12.500
13.8695 12.511
13.8846 12.329
13.8998 12.074
13.9150 12.198
13.9302 12.080
13.9453 11.808
13.9605 11.656
13.9757 11.737
13.9909 11.901
14.0060 11.917
14.0212 12.001
14.0364 11.877
14.0516 11.669
14.0667 11.640
14.0819 11.502
14.0971 11.712
14.1123 11.863
14.1274 11.720
14.1426 11.572
14.1578 11.808
14.1730 11.797
14.1881 11.861
14.2033 11.856
14.2185 11.806
14.2337 11.674
14.2488 12.092
14.2640 11.756
14.2792 11.910
14.2944 11.792
14.3095 12.141
14.3247 12.141
14.3399 11.963
14.3551 12.378
14.3702 12.686
14.3854 13.098
14.4006 13.432
14.4158 13.156
14.4309 13.119
14.4461 12.813
14.4613 12.652
14.4765 12.513
14.4916 12.273
14.5068 11.997
14.5220 11.745
14.5372 11.329
14.5523 11.236
14.5675 11.036
14.5827 10.618
14.5979 10.906
14.6130 10.845
14.6282 10.625
14.6434 10.911
14.6586 10.500
14.6737 10.684
14.6889 10.464
14.7041 10.718
14.7193 10.702
14.7344 10.361
14.7496 10.689
14.7648 10.678
14.7800 10.635
14.7951 10.445
14.8103 10.593
14.8255 10.534
14.8407 10.441
14.8558 10.667
14.8710 10.244
14.8862 10.552
14.9014 10.308
14.9165 10.811
14.9317 10.762
14.9469 10.306
14.9621 10.567
14.9772 10.205
14.9924 10.153
15.0076 10.536
15.0228 10.368
15.0379 10.220
15.0531 10.131
15.0683 10.058
15.0835 10.436
15.0986 10.343
15.1138 10.392
15.1290 10.036
15.1442 10.311
15.1593 10.205
15.1745 10.231
15.1897 10.346
15.2049 10.412
15.2200 10.389
15.2352 9.918
15.2504 10.014
15.2656 9.971
15.2807 9.942
15.2959 9.786
15.3111 9.991
15.3263 10.191
15.3414 9.970
15.3566 10.117
15.3718 10.163
15.3870 10.000
15.4021 10.030
15.4173 10.212
15.4325 10.099
15.4477 10.169
15.4628 10.286
15.4780 9.785
15.4932 10.398
15.5084 10.056
15.5235 9.993
15.5387 9.471
15.5539 9.734
15.5691 9.788
15.5842 9.855
15.5994 9.865
15.6146 9.933
15.6298 9.743
15.6449 9.871
15.6601 9.786
15.6753 9.908
15.6905 9.949
15.7056 9.839
15.7208 9.707
15.7360 9.493
15.7512 9.891
15.7663 9.568
15.7815 9.723
15.7967 9.768
15.8119 9.626
15.8270 9.752
15.8422 9.550
15.8574 9.652
15.8726 9.579
15.8877 9.421
15.9029 9.548
15.9181 9.488
15.9333 9.618
15.9484 9.656
15.9636 9.664
15.9788 9.587
15.9940 9.634
16.0091 9.567
16.0243 9.642
16.0395 9.714
16.0547 9.651
16.0698 9.626
16.0850 9.618
16.1002 9.467
16.1154 9.608
16.1305 9.701
16.1457 9.546
16.1609 9.476
16.1761 9.826
16.1912 9.737
16.2064 9.381
16.2216 9.396
16.2368 9.716
16.2519 9.826
16.2671 9.782
16.2823 9.585
16.2975 9.807
16.3126 9.866
16.3278 9.958
16.3430 10.037
16.3582 10.004
16.3733 9.675
16.3885 9.777
16.4037 9.827
16.4189 10.121
16.4340 10.020
16.4492 9.756
16.4644 9.494
16.4796 9.742
16.4947 9.648
16.5099 9.707
16.5251 9.560
16.5403 9.526
16.5554 9.695
16.5706 9.549
16.5858 9.752
16.6010 9.761
16.6161 9.615
16.6313 9.676
16.6465 9.589
16.6617 9.527
16.6768 9.723
16.6920 9.835
16.7072 9.903
16.7224 9.831
16.7375 9.933
16.7527 9.967
16.7679 9.685
16.7831 9.705
16.7982 9.808
16.8134 9.680
16.8286 9.925
16.8438 9.976
16.8589 9.777
16.8741 9.703
16.8893 9.905
16.9045 9.794
16.9196 9.851
16.9348 9.949
16.9500 9.901
16.9652 9.893
16.9803 9.814
16.9955 9.762
17.0107 9.970
17.0259 10.271
17.0410 10.021
17.0562 10.042
17.0714 10.314
17.0866 10.308
17.1017 10.443
17.1169 10.808
17.1321 10.764
17.1473 11.102
17.1624 11.871
17.1776 12.486
17.1928 13.128
17.2080 13.993
17.2231 15.012
17.2383 16.330
17.2535 17.614
17.2687 18.214
17.2838 18.550
17.2990 18.225
17.3142 17.176
17.3294 16.498
17.3445 16.285
17.3597 16.241
17.3749 15.972
17.3901 15.335
17.4052 14.384
17.4204 13.580
17.4356 12.861
17.4508 12.290
17.4659 12.035
17.4811 11.822
17.4963 11.671
17.5115 11.191
17.5266 10.939
17.5418 10.912
17.5570 10.930
17.5722 11.035
17.5873 11.228
17.6025 11.361
17.6177 11.130
17.6329 11.187
17.6480 11.290
17.6632 11.379
17.6784 11.533
17.6936 11.614
17.7087 11.534
17.7239 11.223
17.7391 10.967
17.7543 10.890
17.7694 11.000
17.7846 10.873
17.7998 10.914
17.8150 10.801
17.8301 10.555
17.8453 10.385
17.8605 10.427
17.8757 10.338
17.8908 10.276
17.9060 10.378
17.9212 10.247
17.9364 9.968
17.9515 9.882
17.9667 10.102
17.9819 10.239
17.9971 10.040
18.0122 9.996
18.0274 10.251
18.0426 10.331
18.0578 10.100
18.0729 10.133
18.0881 10.156
18.1033 9.993
18.1185 9.825
18.1336 9.693
18.1488 9.659
18.1640 9.772
18.1792 9.928
18.1943 9.907
18.2095 9.944
18.2247 9.956
18.2399 10.012
18.2550 10.057
18.2702 9.847
18.2854 9.872
18.3006 10.056
18.3157 10.056
18.3309 9.971
18.3461 9.816
18.3613 9.652
18.3764 9.694
18.3916 9.853
18.4068 9.788
18.4220 9.988
18.4371 9.776
18.4523 9.860
18.4675 9.917
18.4827 9.987
18.4978 9.868
18.5130 9.772
18.5282 9.852
18.5434 9.811
18.5585 9.644
18.5737 9.893
18.5889 9.742
18.6041 9.438
18.6192 9.551
18.6344 9.600
18.6496 9.804
18.6648 9.751
18.6799 9.831
18.6951 9.700
18.7103 9.696
18.7255 9.985
18.7406 9.776
18.7558 9.763
18.7710 9.910
18.7862 9.954
18.8013 9.713
18.8165 9.385
18.8317 9.769
18.8469 9.812
18.8620 9.983
18.8772 9.908
18.8924 9.864
18.9076 10.044
18.9227 10.062
18.9379 9.913
18.9531 10.006
18.9683 10.285
18.9834 10.261
18.9986 10.239
19.0138 10.062
19.0290 10.039
19.0441 10.230
19.0593 10.267
19.0745 10.291
19.0897 10.320
19.1048 10.199
19.1200 10.327
19.1352 10.443
19.1504 10.433
19.1655 10.492
19.1807 10.382
19.1959 10.534
19.2111 10.812
19.2262 10.655
19.2414 10.628
19.2566 10.867
19.2718 11.045
19.2869 10.779
19.3021 10.819
19.3173 10.920
19.3325 10.937
19.3476 11.071
19.3628 10.842
19.3780 10.864
19.3932 11.155
19.4083 11.220
19.4235 10.918
19.4387 11.109
19.4539 11.267
19.4690 11.277
19.4842 11.362
19.4994 11.267
19.5146 11.339
19.5297 11.428
19.5449 11.695
19.5601 11.746
19.5753 11.630
19.5904 11.546
19.6056 11.657
19.6208 11.788
19.6360 11.735
19.6511 11.812
19.6663 11.811
19.6815 11.749
19.6967 11.696
19.7118 11.798
19.7270 11.732
19.7422 11.737
19.7574 11.994
19.7725 11.901
19.7877 11.841
19.8029 12.064
19.8180 12.212
19.8332 12.239
19.8484 12.183
19.8636 12.518
19.8787 12.613
19.8939 12.741
19.9091 13.137
19.9243 13.358
19.9394 13.724
19.9546 14.281
19.9698 14.625
19.9850 14.642
20.0001 14.568
20.0153 14.334
20.0305 14.084
20.0457 13.755
20.0608 13.641
20.0760 13.800
20.0912 13.833
20.1064 13.724
20.1215 13.563
20.1367 13.119
20.1519 13.219
20.1671 13.271
20.1822 12.818
20.1974 12.819
20.2126 12.787
20.2278 12.835
20.2429 12.606
20.2581 12.324
20.2733 12.199
20.2885 12.339
20.3036 12.020
20.3188 11.929
20.3340 11.938
20.3492 11.744
20.3643 11.810
20.3795 11.826
20.3947 11.820
20.4099 11.659
20.4250 12.036
20.4402 12.049
20.4554 11.809
20.4706 11.831
20.4857 11.823
20.5009 11.769
20.5161 11.680
20.5313 11.497
20.5464 11.279
20.5616 11.231
20.5768 11.332
20.5920 11.169
20.6071 11.242
20.6223 11.119
20.6375 10.876
20.6527 10.930
20.6678 10.641
20.6830 10.679
20.6982 10.846
20.7134 10.480
20.7285 10.379
20.7437 10.593
20.7589 10.360
20.7741 10.097
20.7892 10.336
20.8044 10.168
20.8196 10.028
20.8348 10.085
20.8499 10.386
20.8651 10.130
20.8803 10.410
20.8955 10.346
20.9106 10.253
20.9258 10.167
20.9410 10.240
20.9562 10.014
20.9713 10.211
20.9865 9.886
21.0017 10.214
21.0169 10.183
21.0320 10.122
21.0472 9.946
21.0624 10.095
21.0776 10.075
21.0927 10.099
21.1079 9.839
21.1231 9.647
21.1383 9.835
21.1534 9.994
21.1686 9.703
21.1838 9.871
21.1990 9.652
21.2141 9.769
21.2293 9.827
21.2445 9.582
21.2597 9.758
21.2748 9.533
21.2900 9.480
21.3052 9.609
21.3204 9.478
21.3355 9.827
21.3507 9.534
21.3659 9.461
21.3811 9.505
21.3962 9.818
21.4114 9.400
21.4266 9.800
21.4418 9.671
21.4569 9.340
21.4721 9.567
21.4873 9.643
21.5025 9.478
21.5176 9.244
21.5328 9.279
21.5480 9.379
21.5632 9.463
21.5783 9.239
21.5935 9.267
21.6087 9.323
21.6239 9.022
21.6390 9.057
21.6542 9.278
21.6694 9.433
21.6846 9.395
21.6997 9.201
21.7149 8.881
21.7301 9.022
21.7453 8.971
21.7604 9.129
21.7756 9.072
21.7908 9.139
21.8060 9.013
21.8211 8.860
21.8363 8.927
21.8515 8.795
21.8667 8.950
21.8818 8.989
21.8970 8.846
21.9122 8.940
21.9274 8.963
21.9425 8.997
21.9577 8.993
21.9729 9.034
21.9881 8.895
22.0032 8.880
22.0184 8.950
22.0336 9.015
22.0488 8.922
22.0639 8.763
22.0791 8.626
22.0943 8.684
22.1095 8.733
22.1246 8.588
22.1398 8.569
22.1550 8.816
22.1702 8.852
22.1853 8.699
22.2005 8.600
22.2157 8.717
22.2309 8.787
22.2460 8.397
22.2612 8.353
22.2764 8.543
22.2916 8.596
22.3067 8.456
22.3219 8.508
22.3371 8.480
22.3523 8.390
22.3674 8.370
22.3826 8.253
22.3978 8.419
22.4130 8.538
22.4281 8.470
22.4433 8.510
22.4585 8.521
22.4737 8.388
22.4888 8.264
22.5040 8.473
22.5192 8.205
22.5344 8.580
22.5495 8.807
22.5647 8.530
22.5799 8.467
22.5951 8.251
22.6102 8.524
22.6254 8.483
22.6406 8.489
22.6558 8.430
22.6709 8.514
22.6861 8.265
22.7013 7.910
22.7165 7.778
22.7316 6.526
