'Id: "" Comment: "" Operator: "Lab Manager" Anode: "Mo" Scantype: "Still (Eiger2R_500K (1D mode))" TimePerStep: "300" X: "11.8" Y: "9.4" Z: "11.284" 
7.2532 18.884
7.2684 19.030
7.2836 19.129
7.2987 19.243
7.3139 18.617
7.3291 19.119
7.3443 18.756
7.3594 18.957
7.3746 19.049
7.3898 19.020
7.4050 19.374
7.4201 19.442
7.4353 19.003
7.4505 19.705
7.4657 19.426
7.4808 19.439
7.4960 19.719
7.5112 19.534
7.5264 19.873
7.5415 19.960
7.5567 19.694
7.5719 19.702
7.5871 19.727
7.6022 19.756
7.6174 19.958
7.6326 20.018
7.6478 19.904
7.6629 20.099
7.6781 19.971
7.6933 20.138
7.7085 20.723
7.7236 20.478
7.7388 20.148
7.7540 20.138
7.7692 20.413
7.7843 20.390
7.7995 20.482
7.8147 20.703
7.8299 20.356
7.8450 20.480
7.8602 20.799
7.8754 20.648
7.8905 20.702
7.9057 20.902
7.9209 20.848
7.9361 20.918
7.9512 21.054
7.9664 20.980
7.9816 20.658
7.9968 20.833
8.0119 21.111
8.0271 20.927
8.0423 20.891
8.0575 21.032
8.0726 21.047
8.0878 21.071
8.1030 21.111
8.1182 21.086
8.1333 21.169
8.1485 21.489
8.1637 21.422
8.1789 21.484
8.1940 20.906
8.2092 21.004
8.2244 21.641
8.2396 21.447
8.2547 21.097
8.2699 21.603
8.2851 21.570
8.3003 22.213
8.3154 21.783
8.3306 21.519
8.3458 21.692
8.3610 22.011
8.3761 21.818
8.3913 21.516
8.4065 21.757
8.4217 21.864
8.4368 21.933
8.4520 22.087
8.4672 22.164
8.4824 22.075
8.4975 22.022
8.5127 21.907
8.5279 21.683
8.5431 22.148
8.5582 22.213
8.5734 22.182
8.5886 21.863
8.6038 22.337
8.6189 21.973
8.6341 22.293
8.6493 22.250
8.6645 21.867
8.6796 22.068
8.6948 21.989
8.7100 22.557
8.7252 22.130
8.7403 21.929
8.7555 22.085
8.7707 22.421
8.7859 22.808
8.8010 22.742
8.8162 22.545
8.8314 22.392
8.8466 22.038
8.8617 22.355
8.8769 22.459
8.8921 22.541
8.9073 22.451
8.9224 22.544
8.9376 22.408
8.9528 22.349
8.9680 22.891
8.9831 23.049
8.9983 22.887
9.0135 23.086
9.0287 22.479
9.0438 22.629
9.0590 22.555
9.0742 22.709
9.0894 22.813
9.1045 22.648
9.1197 22.851
9.1349 23.110
9.1501 22.559
9.1652 22.629
9.1804 22.472
9.1956 23.138
9.2108 23.162
9.2259 22.914
9.2411 23.201
9.2563 22.879
9.2715 22.701
9.2866 22.843
9.3018 22.908
9.3170 22.921
9.3322 22.857
9.3473 22.922
9.3625 22.991
9.3777 22.993
9.3929 23.067
9.4080 23.123
9.4232 23.134
9.4384 22.994
9.4536 22.796
9.4687 23.040
9.4839 22.886
9.4991 22.783
9.5143 23.091
9.5294 22.991
9.5446 22.855
9.5598 22.738
9.5750 22.918
9.5901 23.212
9.6053 23.343
9.6205 23.171
9.6357 23.080
9.6508 23.479
9.6660 23.456
9.6812 23.349
9.6964 23.620
9.7115 23.823
9.7267 24.025
9.7419 24.159
9.7571 24.229
9.7722 24.041
9.7874 23.699
9.8026 23.621
9.8178 23.579
9.8329 23.396
9.8481 23.114
9.8633 23.160
9.8785 23.405
9.8936 23.518
9.9088 23.164
9.9240 22.945
9.9392 23.144
9.9543 23.348
9.9695 23.164
9.9847 22.810
9.9999 22.967
10.0150 23.200
10.0302 23.284
10.0454 23.517
10.0606 23.363
10.0757 23.325
10.0909 23.128
10.1061 23.041
10.1213 23.234
10.1364 23.633
10.1516 23.536
10.1668 23.368
10.1820 23.326
10.1971 23.304
10.2123 23.346
10.2275 23.095
10.2427 22.909
10.2578 22.924
10.2730 22.764
10.2882 22.803
10.3034 22.799
10.3185 22.849
10.3337 22.824
10.3489 22.880
10.3641 22.760
10.3792 22.571
10.3944 22.444
10.4096 22.612
10.4248 22.786
10.4399 22.906
10.4551 22.715
10.4703 22.585
10.4855 22.690
10.5006 22.742
10.5158 22.960
10.5310 22.665
10.5462 22.780
10.5613 22.562
10.5765 22.345
10.5917 22.680
10.6069 22.626
10.6220 22.360
10.6372 22.459
10.6524 22.152
10.6676 22.558
10.6827 22.274
10.6979 21.899
10.7131 21.968
10.7283 22.383
10.7434 22.199
10.7586 22.050
10.7738 22.442
10.7890 22.727
10.8041 22.131
10.8193 21.615
10.8345 22.095
10.8497 21.739
10.8648 21.937
10.8800 21.924
10.8952 22.028
10.9104 22.240
10.9255 22.031
10.9407 21.599
10.9559 22.058
10.9711 22.184
10.9862 22.266
11.0014 21.944
11.0166 22.065
11.0318 22.025
11.0469 21.926
11.0621 21.849
11.0773 21.634
11.0925 21.774
11.1076 21.692
11.1228 21.538
11.1380 21.804
11.1532 22.020
11.1683 21.885
11.1835 21.904
11.1987 21.972
11.2139 21.823
11.2290 21.511
11.2442 21.704
11.2594 21.685
11.2746 21.638
11.2897 21.530
11.3049 21.554
11.3201 21.319
11.3353 21.347
11.3504 21.090
11.3656 21.235
11.3808 21.623
11.3960 21.308
11.4111 21.302
11.4263 21.357
11.4415 21.113
11.4567 21.107
11.4718 21.392
11.4870 21.482
11.5022 20.873
11.5174 20.938
11.5325 20.901
11.5477 20.866
11.5629 20.530
11.5781 20.653
11.5932 20.727
11.6084 21.003
11.6236 20.815
11.6388 20.788
11.6539 20.421
11.6691 20.647
11.6843 20.594
11.6995 20.931
11.7146 20.631
11.7298 20.658
11.7450 20.477
11.7602 20.311
11.7753 20.030
11.7905 20.362
11.8057 19.966
11.8209 20.110
11.8360 20.156
11.8512 20.121
11.8664 19.832
11.8816 19.642
11.8967 19.798
11.9119 19.415
11.9271 19.662
11.9423 19.623
11.9574 19.334
11.9726 19.415
11.9878 19.543
12.0030 19.472
12.0181 18.952
12.0333 19.058
12.0485 18.992
12.0637 18.831
12.0788 18.836
12.0940 18.715
12.1092 18.659
12.1244 18.863
12.1395 18.510
12.1547 18.311
12.1699 18.347
12.1851 18.620
12.2002 18.586
12.2154 18.565
12.2306 18.066
12.2458 17.965
12.2609 18.155
12.2761 17.833
12.2913 17.622
12.3065 17.632
12.3216 17.324
12.3368 17.322
12.3520 17.336
12.3672 17.033
12.3823 17.098
12.3975 17.198
12.4127 17.355
12.4279 16.895
12.4430 16.870
12.4582 16.798
12.4734 16.906
12.4886 16.995
12.5037 16.669
12.5189 16.209
12.5341 16.246
12.5493 16.435
12.5644 16.611
12.5796 16.527
12.5948 16.232
12.6100 16.125
12.6251 15.998
12.6403 15.813
12.6555 16.049
12.6707 15.833
12.6858 15.792
12.7010 15.663
12.7162 15.674
12.7314 15.621
12.7465 15.472
12.7617 15.208
12.7769 15.117
12.7921 15.159
12.8072 15.055
12.8224 15.129
12.8376 15.147
12.8528 14.957
12.8679 14.652
12.8831 14.754
12.8983 14.792
12.9135 14.537
12.9286 14.701
12.9438 14.665
12.9590 14.855
12.9742 14.817
12.9893 14.321
13.0045 14.201
13.0197 14.212
13.0349 14.222
13.0500 14.031
13.0652 13.974
13.0804 14.080
13.0956 14.196
13.1107 13.966
13.1259 13.785
13.1411 13.771
13.1563 13.604
13.1714 13.534
13.1866 13.545
13.2018 13.541
13.2170 13.342
13.2321 13.218
13.2473 13.180
13.2625 13.280
13.2777 13.354
13.2928 13.258
13.3080 13.243
13.3232 13.186
13.3384 12.926
13.3535 13.047
13.3687 13.363
13.3839 13.225
13.3991 12.948
13.4142 12.862
13.4294 12.891
13.4446 12.747
13.4598 12.705
13.4749 12.695
13.4901 12.657
13.5053 12.576
13.5205 12.453
13.5356 12.280
13.5508 12.360
13.5660 12.471
13.5812 12.260
13.5963 12.341
13.6115 12.468
13.6267 12.232
13.6419 12.060
13.6570 12.229
13.6722 12.251
13.6874 11.906
13.7026 11.998
13.7177 11.984
13.7329 11.998
13.7481 12.311
13.7633 12.342
13.7784 12.372
13.7936 11.939
13.8088 11.952
13.8239 12.217
13.8391 12.288
13.8543 12.183
13.8695 12.328
13.8846 12.347
13.8998 11.932
13.9150 11.906
13.9302 11.981
13.9453 12.005
13.9605 11.919
13.9757 11.791
13.9909 11.890
14.0060 11.958
14.0212 11.625
14.0364 11.785
14.0516 11.732
14.0667 11.809
14.0819 11.596
14.0971 11.741
14.1123 11.719
14.1274 11.785
14.1426 11.897
14.1578 11.818
14.1730 11.451
14.1881 11.766
14.2033 11.876
14.2185 11.731
14.2337 11.927
14.2488 11.871
14.2640 11.883
14.2792 12.096
14.2944 11.909
14.3095 12.046
14.3247 12.379
14.3399 12.116
14.3551 12.424
14.3702 12.897
14.3854 12.808
14.4006 13.110
14.4158 13.378
14.4309 12.877
14.4461 12.685
14.4613 12.531
14.4765 12.546
14.4916 12.117
14.5068 11.960
14.5220 11.547
14.5372 11.160
14.5523 11.414
14.5675 11.297
14.5827 11.203
14.5979 11.145
14.6130 10.908
14.6282 10.784
14.6434 10.917
14.6586 10.833
14.6737 10.967
14.6889 10.839
14.7041 10.811
14.7193 10.647
14.7344 10.902
14.7496 10.611
14.7648 10.785
14.7800 10.195
14.7951 10.604
14.8103 10.649
14.8255 10.835
14.8407 10.717
14.8558 10.628
14.8710 10.391
14.8862 10.303
14.9014 10.301
14.9165 10.439
14.9317 10.660
14.9469 10.291
14.9621 10.504
14.9772 10.076
14.9924 10.649
15.0076 10.371
15.0228 10.198
15.0379 10.130
15.0531 10.418
15.0683 9.858
15.0835 10.551
15.0986 10.277
15.1138 10.634
15.1290 10.235
15.1442 10.341
15.1593 10.212
15.1745 10.563
15.1897 10.046
15.2049 10.306
15.2200 10.018
15.2352 10.321
15.2504 10.412
15.2656 9.996
15.2807 10.445
15.2959 10.281
15.3111 9.956
15.3263 9.861
15.3414 9.927
15.3566 10.183
15.3718 10.302
15.3870 10.366
15.4021 10.359
15.4173 10.032
15.4325 10.101
15.4477 10.169
15.4628 10.066
15.4780 10.192
15.4932 10.087
15.5084 10.312
15.5235 10.171
15.5387 10.287
15.5539 10.310
15.5691 9.932
15.5842 9.874
15.5994 9.980
15.6146 9.933
15.6298 9.865
15.6449 9.798
15.6601 9.914
15.6753 9.799
15.6905 9.741
15.7056 9.907
15.7208 9.887
15.7360 9.714
15.7512 9.969
15.7663 9.991
15.7815 9.934
15.7967 9.536
15.8119 9.772
15.8270 10.057
15.8422 9.618
15.8574 9.457
15.8726 9.594
15.8877 9.596
15.9029 9.517
15.9181 9.651
15.9333 9.423
15.9484 9.698
15.9636 9.628
15.9788 9.516
15.9940 9.854
16.0091 9.669
16.0243 9.477
16.0395 9.576
16.0547 9.992
16.0698 9.992
16.0850 9.469
16.1002 9.736
16.1154 9.693
16.1305 9.564
16.1457 9.542
16.1609 9.754
16.1761 9.699
16.1912 9.524
16.2064 9.722
16.2216 9.754
16.2368 9.851
16.2519 10.002
16.2671 9.710
16.2823 9.729
16.2975 9.752
16.3126 9.671
16.3278 9.677
16.3430 9.695
16.3582 9.798
16.3733 9.612
16.3885 9.879
16.4037 9.914
16.4189 9.929
16.4340 9.942
16.4492 9.639
16.4644 9.721
16.4796 9.701
16.4947 9.593
16.5099 9.637
16.5251 9.737
16.5403 9.615
16.5554 9.577
16.5706 9.588
16.5858 9.721
16.6010 9.570
16.6161 9.498
16.6313 9.696
16.6465 9.640
16.6617 9.554
16.6768 9.515
16.6920 9.496
16.7072 9.751
16.7224 9.941
16.7375 10.047
16.7527 9.929
16.7679 9.764
16.7831 9.917
16.7982 9.983
16.8134 9.759
16.8286 9.853
16.8438 9.846
16.8589 9.649
16.8741 9.591
16.8893 9.733
16.9045 9.879
16.9196 9.720
16.9348 9.773
16.9500 9.756
16.9652 9.514
16.9803 9.728
16.9955 10.059
17.0107 9.978
17.0259 9.911
17.0410 9.815
17.0562 9.900
17.0714 10.390
17.0866 10.594
17.1017 10.532
17.1169 10.852
17.1321 11.220
17.1473 11.380
17.1624 11.951
17.1776 12.588
17.1928 13.074
17.2080 13.793
17.2231 14.914
17.2383 16.273
17.2535 17.420
17.2687 18.143
17.2838 18.500
17.2990 18.041
17.3142 16.893
17.3294 16.041
17.3445 15.921
17.3597 16.067
17.3749 15.780
17.3901 15.151
17.4052 14.249
17.4204 13.196
17.4356 12.561
17.4508 12.377
17.4659 12.234
17.4811 11.938
17.4963 11.547
17.5115 11.170
17.5266 10.964
17.5418 10.751
17.5570 10.805
17.5722 10.835
17.5873 10.698
17.6025 10.852
17.6177 11.026
17.6329 11.171
17.6480 11.273
17.6632 11.426
17.6784 11.489
17.6936 11.575
17.7087 11.444
17.7239 11.410
17.7391 11.363
17.7543 11.168
17.7694 11.011
17.7846 10.783
17.7998 10.552
17.8150 10.580
17.8301 10.505
17.8453 10.235
17.8605 10.223
17.8757 10.443
17.8908 10.416
17.9060 10.375
17.9212 10.130
17.9364 9.927
17.9515 9.891
17.9667 10.048
17.9819 10.342
17.9971 10.203
18.0122 10.049
18.0274 9.884
18.0426 10.007
18.0578 10.025
18.0729 10.201
18.0881 10.351
18.1033 9.902
18.1185 9.839
18.1336 9.830
18.1488 9.966
18.1640 10.104
18.1792 9.979
18.1943 9.847
18.2095 9.764
18.2247 9.882
18.2399 9.862
18.2550 9.924
18.2702 9.909
18.2854 9.997
18.3006 9.945
18.3157 9.717
18.3309 9.731
18.3461 9.773
18.3613 9.648
18.3764 9.990
18.3916 10.018
18.4068 9.709
18.4220 9.579
18.4371 9.564
18.4523 9.751
18.4675 9.744
18.4827 9.579
18.4978 9.595
18.5130 9.521
18.5282 9.609
18.5434 9.749
18.5585 9.826
18.5737 9.873
18.5889 9.824
18.6041 9.742
18.6192 9.698
18.6344 9.888
18.6496 9.920
18.6648 9.607
18.6799 9.899
18.6951 9.808
18.7103 9.765
18.7255 10.043
18.7406 9.768
18.7558 9.977
18.7710 9.798
18.7862 9.752
18.8013 9.906
18.8165 9.821
18.8317 9.828
18.8469 10.045
18.8620 10.191
18.8772 10.109
18.8924 9.851
18.9076 9.950
18.9227 10.023
18.9379 10.245
18.9531 10.199
18.9683 10.096
18.9834 10.137
18.9986 10.297
19.0138 10.283
19.0290 10.072
19.0441 10.088
19.0593 10.315
19.0745 10.123
19.0897 9.916
19.1048 10.178
19.1200 10.322
19.1352 10.445
19.1504 10.464
19.1655 10.414
19.1807 10.480
19.1959 10.534
19.2111 10.601
19.2262 10.698
19.2414 10.709
19.2566 10.897
19.2718 11.031
19.2869 10.993
19.3021 10.989
19.3173 10.908
19.3325 10.886
19.3476 11.094
19.3628 11.166
19.3780 11.067
19.3932 11.250
19.4083 11.453
19.4235 11.294
19.4387 11.037
19.4539 11.174
19.4690 11.172
19.4842 11.296
19.4994 11.473
19.5146 11.524
19.5297 11.407
19.5449 11.515
19.5601 11.609
19.5753 11.538
19.5904 11.765
19.6056 11.758
19.6208 11.650
19.6360 11.521
19.6511 11.340
19.6663 11.565
19.6815 11.754
19.6967 11.661
19.7118 11.566
19.7270 11.653
19.7422 11.926
19.7574 11.973
19.7725 11.826
19.7877 11.991
19.8029 12.142
19.8180 12.079
19.8332 12.130
19.8484 12.257
19.8636 12.485
19.8787 12.952
19.8939 12.867
19.9091 12.885
19.9243 13.251
19.9394 13.690
19.9546 14.161
19.9698 14.326
19.9850 14.457
20.0001 14.505
20.0153 14.395
20.0305 13.860
20.0457 13.601
20.0608 13.738
20.0760 13.758
20.0912 13.544
20.1064 13.619
20.1215 13.513
20.1367 13.328
20.1519 13.178
20.1671 12.904
20.1822 12.807
20.1974 12.798
20.2126 12.786
20.2278 12.716
20.2429 12.684
20.2581 12.563
20.2733 12.179
20.2885 11.935
20.3036 11.966
20.3188 11.985
20.3340 11.910
20.3492 11.970
20.3643 12.034
20.3795 11.928
20.3947 11.718
20.4099 11.616
20.4250 11.592
20.4402 11.910
20.4554 11.936
20.4706 11.631
20.4857 11.443
20.5009 11.622
20.5161 11.647
20.5313 11.548
20.5464 11.522
20.5616 11.700
20.5768 11.313
20.5920 11.124
20.6071 11.008
20.6223 10.932
20.6375 10.805
20.6527 10.576
20.6678 10.670
20.6830 10.895
20.6982 10.574
20.7134 10.685
20.7285 11.068
20.7437 10.652
20.7589 10.418
20.7741 10.489
20.7892 10.162
20.8044 10.442
20.8196 10.307
20.8348 9.972
20.8499 10.002
20.8651 10.352
20.8803 10.344
20.8955 10.393
20.9106 10.456
20.9258 10.462
20.9410 9.841
20.9562 10.061
20.9713 10.179
20.9865 9.925
21.0017 9.846
21.0169 10.137
21.0320 10.080
21.0472 9.763
21.0624 9.974
21.0776 9.873
21.0927 9.956
21.1079 10.098
21.1231 9.926
21.1383 9.957
21.1534 9.757
21.1686 10.010
21.1838 9.692
21.1990 9.470
21.2141 9.888
21.2293 9.889
21.2445 9.891
21.2597 9.738
21.2748 9.834
21.2900 9.578
21.3052 9.928
21.3204 9.679
21.3355 9.530
21.3507 9.598
21.3659 9.620
21.3811 9.318
21.3962 9.772
21.4114 9.352
21.4266 9.575
21.4418 9.495
21.4569 9.377
21.4721 9.570
21.4873 9.162
21.5025 9.526
21.5176 9.233
21.5328 9.282
21.5480 9.539
21.5632 9.357
21.5783 9.155
21.5935 9.277
21.6087 9.305
21.6239 8.990
21.6390 9.080
21.6542 9.065
21.6694 9.105
21.6846 9.199
21.6997 9.259
21.7149 9.276
21.7301 9.146
21.7453 9.376
21.7604 9.194
21.7756 9.072
21.7908 9.051
21.8060 9.012
21.8211 9.048
21.8363 9.116
21.8515 9.233
21.8667 9.233
21.8818 9.101
21.8970 8.976
21.9122 8.915
21.9274 8.862
21.9425 8.845
21.9577 8.859
21.9729 8.782
21.9881 9.076
22.0032 9.101
22.0184 8.939
22.0336 8.769
22.0488 8.790
22.0639 8.857
22.0791 8.962
22.0943 8.775
22.1095 8.828
22.1246 8.823
22.1398 8.758
22.1550 8.766
22.1702 8.725
22.1853 8.521
22.2005 8.601
22.2157 8.650
22.2309 8.436
22.2460 8.606
22.2612 8.439
22.2764 8.348
22.2916 8.444
22.3067 8.496
22.3219 8.575
22.3371 8.508
22.3523 8.349
22.3674 8.447
22.3826 8.551
22.3978 8.310
22.4130 8.559
22.4281 8.369
22.4433 8.502
22.4585 8.625
22.4737 8.476
22.4888 8.361
22.5040 8.318
22.5192 8.656
22.5344 8.452
22.5495 8.409
22.5647 8.249
22.5799 8.301
22.5951 8.299
22.6102 8.303
22.6254 8.415
22.6406 8.401
22.6558 8.349
22.6709 8.337
22.6861 8.154
22.7013 8.027
22.7165 8.087
22.7316 6.567
