'Id: "" Comment: "" Operator: "Lab Manager" Anode: "Mo" Scantype: "Still (Eiger2R_500K (1D mode))" TimePerStep: "300" X: "11.8" Y: "9.4" Z: "11.284" 
7.2532 19.113
7.2684 18.662
7.2836 18.464
7.2987 18.857
7.3139 18.730
7.3291 19.315
7.3443 19.221
7.3594 19.094
7.3746 18.924
7.3898 18.869
7.4050 18.590
7.4201 19.272
7.4353 19.184
7.4505 19.582
7.4657 19.546
7.4808 19.558
7.4960 19.739
7.5112 20.155
7.5264 19.800
7.5415 19.572
7.5567 19.830
7.5719 19.712
7.5871 19.846
7.6022 19.710
7.6174 20.343
7.6326 20.350
7.6478 20.355
7.6629 20.559
7.6781 20.376
7.6933 20.363
7.7085 20.496
7.7236 20.254
7.7388 20.511
7.7540 20.564
7.7692 20.593
7.7843 20.574
7.7995 20.713
7.8147 20.780
7.8299 20.630
7.8450 20.669
7.8602 20.756
7.8754 20.977
7.8905 21.091
7.9057 21.259
7.9209 21.207
7.9361 21.305
7.9512 21.591
7.9664 21.372
7.9816 21.380
7.9968 21.138
8.0119 20.881
8.0271 20.887
8.0423 21.223
8.0575 21.422
8.0726 21.238
8.0878 21.178
8.1030 21.143
8.1182 21.609
8.1333 21.628
8.1485 21.541
8.1637 21.307
8.1789 21.582
8.1940 21.754
8.2092 21.719
8.2244 21.731
8.2396 21.702
8.2547 21.756
8.2699 21.797
8.2851 21.221
8.3003 21.515
8.3154 21.457
8.3306 22.048
8.3458 21.495
8.3610 21.789
8.3761 21.954
8.3913 21.989
8.4065 22.090
8.4217 22.290
8.4368 21.998
8.4520 21.830
8.4672 22.215
8.4824 22.201
8.4975 22.468
8.5127 21.828
8.5279 22.310
8.5431 21.586
8.5582 21.891
8.5734 22.056
8.5886 22.448
8.6038 22.516
8.6189 22.324
8.6341 22.545
8.6493 22.385
8.6645 22.258
8.6796 22.631
8.6948 22.628
8.7100 23.007
8.7252 22.798
8.7403 22.612
8.7555 23.189
8.7707 22.630
8.7859 22.674
8.8010 22.522
8.8162 22.691
8.8314 22.896
8.8466 22.713
8.8617 22.289
8.8769 22.830
8.8921 22.611
8.9073 22.740
8.9224 22.587
8.9376 22.436
8.9528 22.851
8.9680 22.548
8.9831 22.536
8.9983 22.721
9.0135 22.835
9.0287 22.488
9.0438 22.762
9.0590 22.996
9.0742 23.114
9.0894 22.793
9.1045 22.536
9.1197 22.870
9.1349 22.998
9.1501 23.195
9.1652 22.709
9.1804 23.145
9.1956 23.407
9.2108 23.156
9.2259 23.224
9.2411 23.327
9.2563 22.970
9.2715 23.401
9.2866 23.032
9.3018 22.919
9.3170 23.013
9.3322 23.040
9.3473 23.009
9.3625 23.343
9.3777 23.440
9.3929 23.549
9.4080 23.459
9.4232 23.460
9.4384 23.485
9.4536 23.712
9.4687 23.095
9.4839 22.873
9.4991 23.196
9.5143 23.209
9.5294 23.397
9.5446 23.499
9.5598 23.451
9.5750 23.468
9.5901 23.542
9.6053 23.831
9.6205 23.529
9.6357 23.414
9.6508 23.447
9.6660 23.412
9.6812 23.601
9.6964 23.567
9.7115 23.906
9.7267 24.124
9.7419 24.247
9.7571 24.333
9.7722 24.115
9.7874 23.935
9.8026 24.022
9.8178 24.126
9.8329 23.750
9.8481 23.420
9.8633 23.463
9.8785 23.573
9.8936 23.320
9.9088 23.222
9.9240 23.225
9.9392 23.224
9.9543 23.366
9.9695 23.315
9.9847 23.388
9.9999 23.434
10.0150 23.462
10.0302 23.477
10.0454 23.507
10.0606 23.339
10.0757 23.027
10.0909 23.635
10.1061 24.027
10.1213 23.872
10.1364 23.997
10.1516 23.865
10.1668 23.298
10.1820 23.066
10.1971 23.204
10.2123 23.674
10.2275 23.979
10.2427 23.907
10.2578 24.225
10.2730 23.928
10.2882 23.477
10.3034 23.353
10.3185 23.313
10.3337 23.712
10.3489 23.273
10.3641 22.992
10.3792 22.900
10.3944 23.126
10.4096 22.967
10.4248 23.026
10.4399 22.737
10.4551 22.667
10.4703 22.737
10.4855 22.889
10.5006 22.863
10.5158 22.745
10.5310 22.562
10.5462 22.628
10.5613 22.942
10.5765 22.922
10.5917 22.926
10.6069 22.490
10.6220 22.308
10.6372 22.560
10.6524 22.710
10.6676 22.615
10.6827 22.291
10.6979 22.374
10.7131 22.842
10.7283 22.586
10.7434 22.319
10.7586 22.327
10.7738 22.485
10.7890 22.505
10.8041 22.587
10.8193 22.699
10.8345 22.352
10.8497 22.452
10.8648 22.345
10.8800 22.075
10.8952 22.196
10.9104 22.377
10.9255 22.098
10.9407 22.091
10.9559 22.255
10.9711 22.065
10.9862 22.245
11.0014 21.877
11.0166 21.972
11.0318 22.462
11.0469 22.129
11.0621 22.020
11.0773 22.196
11.0925 21.909
11.1076 21.914
11.1228 21.859
11.1380 21.876
11.1532 22.009
11.1683 21.940
11.1835 22.381
11.1987 22.263
11.2139 22.037
11.2290 22.341
11.2442 22.186
11.2594 22.115
11.2746 21.952
11.2897 21.652
11.3049 22.016
11.3201 21.902
11.3353 21.590
11.3504 21.684
11.3656 21.496
11.3808 21.357
11.3960 21.596
11.4111 21.584
11.4263 21.304
11.4415 21.201
11.4567 21.412
11.4718 21.375
11.4870 21.001
11.5022 20.957
11.5174 20.897
11.5325 20.959
11.5477 20.922
11.5629 20.771
11.5781 20.665
11.5932 20.582
11.6084 20.873
11.6236 20.977
11.6388 20.659
11.6539 20.507
11.6691 20.598
11.6843 20.425
11.6995 20.451
11.7146 20.616
11.7298 20.495
11.7450 20.200
11.7602 19.821
11.7753 20.270
11.7905 20.132
11.8057 20.207
11.8209 20.113
11.8360 19.987
11.8512 19.827
11.8664 20.246
11.8816 20.374
11.8967 19.901
11.9119 19.751
11.9271 19.699
11.9423 19.418
11.9574 19.580
11.9726 19.440
11.9878 19.400
12.0030 19.450
12.0181 19.345
12.0333 19.211
12.0485 19.176
12.0637 18.873
12.0788 18.738
12.0940 18.847
12.1092 19.210
12.1244 19.065
12.1395 18.688
12.1547 18.644
12.1699 18.534
12.1851 18.457
12.2002 18.371
12.2154 18.079
12.2306 18.127
12.2458 18.153
12.2609 17.598
12.2761 17.956
12.2913 18.008
12.3065 17.645
12.3216 17.751
12.3368 17.739
12.3520 17.311
12.3672 17.296
12.3823 17.476
12.3975 17.513
12.4127 17.211
12.4279 17.225
12.4430 17.197
12.4582 16.940
12.4734 16.977
12.4886 17.374
12.5037 17.446
12.5189 16.971
12.5341 16.530
12.5493 16.609
12.5644 16.620
12.5796 16.574
12.5948 16.428
12.6100 16.187
12.6251 15.886
12.6403 15.911
12.6555 15.807
12.6707 15.769
12.6858 15.734
12.7010 15.529
12.7162 15.524
12.7314 15.595
12.7465 15.478
12.7617 15.238
12.7769 15.380
12.7921 15.425
12.8072 15.432
12.8224 15.369
12.8376 15.178
12.8528 15.027
12.8679 15.225
12.8831 15.084
12.8983 14.855
12.9135 14.809
12.9286 14.769
12.9438 14.471
12.9590 14.427
12.9742 14.559
12.9893 14.650
13.0045 14.778
13.0197 14.647
13.0349 14.355
13.0500 14.242
13.0652 14.370
13.0804 14.288
13.0956 14.033
13.1107 14.008
13.1259 13.876
13.1411 13.670
13.1563 13.637
13.1714 13.623
13.1866 13.660
13.2018 13.624
13.2170 13.654
13.2321 13.535
13.2473 13.378
13.2625 13.483
13.2777 13.626
13.2928 13.453
13.3080 13.150
13.3232 13.341
13.3384 13.387
13.3535 13.262
13.3687 13.265
13.3839 13.177
13.3991 13.067
13.4142 13.015
13.4294 13.114
13.4446 12.920
13.4598 12.652
13.4749 12.774
13.4901 12.614
13.5053 12.511
13.5205 12.712
13.5356 12.636
13.5508 12.432
13.5660 12.568
13.5812 12.669
13.5963 12.510
13.6115 12.476
13.6267 12.353
13.6419 12.463
13.6570 12.312
13.6722 12.288
13.6874 12.313
13.7026 12.264
13.7177 12.197
13.7329 12.101
13.7481 11.924
13.7633 11.911
13.7784 12.100
13.7936 12.141
13.8088 12.396
13.8239 12.175
13.8391 12.129
13.8543 12.094
13.8695 12.518
13.8846 12.311
13.8998 11.725
13.9150 12.207
13.9302 12.281
13.9453 12.018
13.9605 11.954
13.9757 11.668
13.9909 11.675
14.0060 11.848
14.0212 11.683
14.0364 11.554
14.0516 11.598
14.0667 11.561
14.0819 11.542
14.0971 11.543
14.1123 11.671
14.1274 11.540
14.1426 11.529
14.1578 11.675
14.1730 11.741
14.1881 11.738
14.2033 11.588
14.2185 11.333
14.2337 11.663
14.2488 12.063
14.2640 11.981
14.2792 11.796
14.2944 11.867
14.3095 11.897
14.3247 11.959
14.3399 12.192
14.3551 12.232
14.3702 12.737
14.3854 12.752
14.4006 13.048
14.4158 12.584
14.4309 12.381
14.4461 12.270
14.4613 12.397
14.4765 12.384
14.4916 12.363
14.5068 12.141
14.5220 11.675
14.5372 11.527
14.5523 11.439
14.5675 11.579
14.5827 11.493
14.5979 11.278
14.6130 10.989
14.6282 10.977
14.6434 10.987
14.6586 11.006
14.6737 10.996
14.6889 11.017
14.7041 10.981
14.7193 10.792
14.7344 10.993
14.7496 10.993
14.7648 10.778
14.7800 10.714
14.7951 10.630
14.8103 10.931
14.8255 10.818
14.8407 10.510
14.8558 10.675
14.8710 10.871
14.8862 10.553
14.9014 10.503
14.9165 10.688
14.9317 11.028
14.9469 10.445
14.9621 10.324
14.9772 9.997
14.9924 10.383
15.0076 10.705
15.0228 10.598
15.0379 10.781
15.0531 10.224
15.0683 10.495
15.0835 10.460
15.0986 10.603
15.1138 10.653
15.1290 10.448
15.1442 10.366
15.1593 10.520
15.1745 10.587
15.1897 10.213
15.2049 10.356
15.2200 10.512
15.2352 10.500
15.2504 10.532
15.2656 10.554
15.2807 10.175
15.2959 10.299
15.3111 10.710
15.3263 10.154
15.3414 10.353
15.3566 10.582
15.3718 10.459
15.3870 10.388
15.4021 10.202
15.4173 10.859
15.4325 10.357
15.4477 10.425
15.4628 10.308
15.4780 10.595
15.4932 10.550
15.5084 10.144
15.5235 10.195
15.5387 10.312
15.5539 10.117
15.5691 9.992
15.5842 10.474
15.5994 10.072
15.6146 10.406
15.6298 10.085
15.6449 10.121
15.6601 10.000
15.6753 9.896
15.6905 10.035
15.7056 9.961
15.7208 10.010
15.7360 9.854
15.7512 9.940
15.7663 9.858
15.7815 9.775
15.7967 9.803
15.8119 9.921
15.8270 9.851
15.8422 10.006
15.8574 9.472
15.8726 9.858
15.8877 10.121
15.9029 9.789
15.9181 9.699
15.9333 9.763
15.9484 9.612
15.9636 9.687
15.9788 10.044
15.9940 9.806
16.0091 9.555
16.0243 9.768
16.0395 9.861
16.0547 9.705
16.0698 9.826
16.0850 10.216
16.1002 9.926
16.1154 9.862
16.1305 9.896
16.1457 9.793
16.1609 9.746
16.1761 9.696
16.1912 9.744
16.2064 9.780
16.2216 9.542
16.2368 9.790
16.2519 10.003
16.2671 10.094
16.2823 9.985
16.2975 9.992
16.3126 10.125
16.3278 9.966
16.3430 9.952
16.3582 10.084
16.3733 10.156
16.3885 10.282
16.4037 10.102
16.4189 9.984
16.4340 10.091
16.4492 9.818
16.4644 10.087
16.4796 10.006
16.4947 9.903
16.5099 10.018
16.5251 9.832
16.5403 9.792
16.5554 9.750
16.5706 9.587
16.5858 9.584
16.6010 9.775
16.6161 9.807
16.6313 9.769
16.6465 9.787
16.6617 9.648
16.6768 9.615
16.6920 10.060
16.7072 10.167
16.7224 10.105
16.7375 10.061
16.7527 10.224
16.7679 9.840
16.7831 9.840
16.7982 10.193
16.8134 10.024
16.8286 9.760
16.8438 9.760
16.8589 9.851
16.8741 10.058
16.8893 10.069
16.9045 9.991
16.9196 9.888
16.9348 9.892
16.9500 9.877
16.9652 9.803
16.9803 9.810
16.9955 9.698
17.0107 9.814
17.0259 9.890
17.0410 9.955
17.0562 10.157
17.0714 10.278
17.0866 10.474
17.1017 10.511
17.1169 10.501
17.1321 10.876
17.1473 11.346
17.1624 11.759
17.1776 12.350
17.1928 13.188
17.2080 14.243
17.2231 15.036
17.2383 16.213
17.2535 17.533
17.2687 18.430
17.2838 18.821
17.2990 18.044
17.3142 16.725
17.3294 16.074
17.3445 15.958
17.3597 16.010
17.3749 16.051
17.3901 15.540
17.4052 14.453
17.4204 13.247
17.4356 12.452
17.4508 12.090
17.4659 11.763
17.4811 11.597
17.4963 11.592
17.5115 11.401
17.5266 11.264
17.5418 11.136
17.5570 11.339
17.5722 11.656
17.5873 11.696
17.6025 11.687
17.6177 11.355
17.6329 11.205
17.6480 11.115
17.6632 10.912
17.6784 10.840
17.6936 10.682
17.7087 10.680
17.7239 10.674
17.7391 10.498
17.7543 10.393
17.7694 10.285
17.7846 10.257
17.7998 10.125
17.8150 10.015
17.8301 10.148
17.8453 10.206
17.8605 10.194
17.8757 10.121
17.8908 9.998
17.9060 10.266
17.9212 10.410
17.9364 10.284
17.9515 10.184
17.9667 10.216
17.9819 10.312
17.9971 10.223
18.0122 10.230
18.0274 10.273
18.0426 10.208
18.0578 10.171
18.0729 10.125
18.0881 10.051
18.1033 10.164
18.1185 9.952
18.1336 9.920
18.1488 10.022
18.1640 10.000
18.1792 10.167
18.1943 10.063
18.2095 10.026
18.2247 10.042
18.2399 9.924
18.2550 9.882
18.2702 9.781
18.2854 9.643
18.3006 9.763
18.3157 9.912
18.3309 9.812
18.3461 9.750
18.3613 9.848
18.3764 9.973
18.3916 9.847
18.4068 9.773
18.4220 9.998
18.4371 9.998
18.4523 9.762
18.4675 9.782
18.4827 9.862
18.4978 9.780
18.5130 9.775
18.5282 9.892
18.5434 9.706
18.5585 9.691
18.5737 9.686
18.5889 9.718
18.6041 9.857
18.6192 9.885
18.6344 9.892
18.6496 9.857
18.6648 9.719
18.6799 9.682
18.6951 9.784
18.7103 9.868
18.7255 9.801
18.7406 9.696
18.7558 9.852
18.7710 9.945
18.7862 9.763
18.8013 9.511
18.8165 9.505
18.8317 9.689
18.8469 9.887
18.8620 10.097
18.8772 10.334
18.8924 10.373
18.9076 10.082
18.9227 9.744
18.9379 9.837
18.9531 9.882
18.9683 10.149
18.9834 10.007
18.9986 9.984
19.0138 10.271
19.0290 10.249
19.0441 10.235
19.0593 10.200
19.0745 10.298
19.0897 10.279
19.1048 10.244
19.1200 10.336
19.1352 10.298
19.1504 10.285
19.1655 10.457
19.1807 10.691
19.1959 10.819
19.2111 10.762
19.2262 10.486
19.2414 10.675
19.2566 10.667
19.2718 10.651
19.2869 10.760
19.3021 10.869
19.3173 11.004
19.3325 11.063
19.3476 11.381
19.3628 11.158
19.3780 10.965
19.3932 11.126
19.4083 11.063
19.4235 11.157
19.4387 11.300
19.4539 11.279
19.4690 11.272
19.4842 11.131
19.4994 11.133
19.5146 11.380
19.5297 11.487
19.5449 11.737
19.5601 11.755
19.5753 11.508
19.5904 11.617
19.6056 11.530
19.6208 11.552
19.6360 11.752
19.6511 11.554
19.6663 11.478
19.6815 11.637
19.6967 11.557
19.7118 11.438
19.7270 11.607
19.7422 11.856
19.7574 11.836
19.7725 11.773
19.7877 11.630
19.8029 11.752
19.8180 11.894
19.8332 11.978
19.8484 12.211
19.8636 12.328
19.8787 12.547
19.8939 12.825
19.9091 13.373
19.9243 13.451
19.9394 13.696
19.9546 14.119
19.9698 14.317
19.9850 14.530
20.0001 14.509
20.0153 14.038
20.0305 13.789
20.0457 13.759
20.0608 13.788
20.0760 13.858
20.0912 13.817
20.1064 13.779
20.1215 13.499
20.1367 13.189
20.1519 13.140
20.1671 13.038
20.1822 12.978
20.1974 12.920
20.2126 12.768
20.2278 12.884
20.2429 13.051
20.2581 12.847
20.2733 12.251
20.2885 12.155
20.3036 11.877
20.3188 11.498
20.3340 11.826
20.3492 11.767
20.3643 11.535
20.3795 11.295
20.3947 11.220
20.4099 11.195
20.4250 10.987
20.4402 10.610
20.4554 10.744
20.4706 11.021
20.4857 10.971
20.5009 10.909
20.5161 10.678
20.5313 10.731
20.5464 10.808
20.5616 10.436
20.5768 10.337
20.5920 10.561
20.6071 10.494
20.6223 10.530
20.6375 10.789
20.6527 10.387
20.6678 10.571
20.6830 10.653
20.6982 10.403
20.7134 10.322
20.7285 10.214
20.7437 10.391
20.7589 10.743
20.7741 10.740
20.7892 10.418
20.8044 10.428
20.8196 10.171
20.8348 10.243
20.8499 10.182
20.8651 10.130
20.8803 10.094
20.8955 10.069
20.9106 10.209
20.9258 9.916
20.9410 9.959
20.9562 10.158
20.9713 10.049
20.9865 10.057
21.0017 9.854
21.0169 9.912
21.0320 10.002
21.0472 9.862
21.0624 10.286
21.0776 9.834
21.0927 9.979
21.1079 9.871
21.1231 9.746
21.1383 9.736
21.1534 9.910
21.1686 9.575
21.1838 9.632
21.1990 9.943
21.2141 9.696
21.2293 9.640
21.2445 9.521
21.2597 9.733
21.2748 9.413
21.2900 9.665
21.3052 9.342
21.3204 9.457
21.3355 9.505
21.3507 9.619
21.3659 9.391
21.3811 9.504
21.3962 9.654
21.4114 9.455
21.4266 9.479
21.4418 9.366
21.4569 9.224
21.4721 9.505
21.4873 9.274
21.5025 9.553
21.5176 9.328
21.5328 9.235
21.5480 9.308
21.5632 9.337
21.5783 9.337
21.5935 9.092
21.6087 9.115
21.6239 9.231
21.6390 9.176
21.6542 9.371
21.6694 9.099
21.6846 8.963
21.6997 8.842
21.7149 8.920
21.7301 9.146
21.7453 8.877
21.7604 8.924
21.7756 9.085
21.7908 9.177
21.8060 8.958
21.8211 9.128
21.8363 8.941
21.8515 8.835
21.8667 8.911
21.8818 8.987
21.8970 8.993
21.9122 9.156
21.9274 9.080
21.9425 8.837
21.9577 8.716
21.9729 8.810
21.9881 8.661
22.0032 8.683
22.0184 8.728
22.0336 8.848
22.0488 8.739
22.0639 8.764
22.0791 8.710
22.0943 8.620
22.1095 8.869
22.1246 8.827
22.1398 8.703
22.1550 8.547
22.1702 8.334
22.1853 8.657
22.2005 8.723
22.2157 8.752
22.2309 8.859
22.2460 8.781
22.2612 8.495
22.2764 8.427
22.2916 8.712
22.3067 8.682
22.3219 8.619
22.3371 8.899
22.3523 8.850
22.3674 8.573
22.3826 8.843
22.3978 8.803
22.4130 8.472
22.4281 8.471
22.4433 8.512
22.4585 8.486
22.4737 8.229
22.4888 8.432
22.5040 8.497
22.5192 8.421
22.5344 8.337
22.5495 8.417
22.5647 8.445
22.5799 8.584
22.5951 8.363
22.6102 8.676
22.6254 8.479
22.6406 8.301
22.6558 8.787
22.6709 8.520
22.6861 8.578
22.7013 8.503
22.7165 8.164
22.7316 6.716
