'Id: "" Comment: "" Operator: "Lab Manager" Anode: "Mo" Scantype: "Still (Eiger2R_500K (1D mode))" TimePerStep: "300" X: "11.8" Y: "9.4" Z: "11.284" 
7.2532 18.721
7.2684 18.916
7.2836 18.908
7.2987 18.918
7.3139 18.717
7.3291 18.858
7.3443 19.330
7.3594 19.156
7.3746 18.836
7.3898 19.405
7.4050 19.418
7.4201 19.152
7.4353 19.295
7.4505 19.782
7.4657 19.079
7.4808 19.416
7.4960 19.275
7.5112 19.643
7.5264 19.855
7.5415 19.837
7.5567 19.789
7.5719 19.622
7.5871 19.792
7.6022 19.740
7.6174 19.898
7.6326 19.877
7.6478 20.215
7.6629 20.174
7.6781 20.196
7.6933 20.087
7.7085 20.125
7.7236 20.314
7.7388 20.309
7.7540 20.161
7.7692 20.235
7.7843 20.320
7.7995 20.247
7.8147 20.219
7.8299 20.358
7.8450 20.354
7.8602 20.589
7.8754 20.833
7.8905 20.771
7.9057 20.654
7.9209 20.715
7.9361 20.970
7.9512 20.780
7.9664 20.730
7.9816 20.839
7.9968 20.696
8.0119 20.837
8.0271 21.114
8.0423 21.087
8.0575 21.104
8.0726 20.873
8.0878 20.677
8.1030 20.701
8.1182 20.871
8.1333 21.077
8.1485 21.282
8.1637 21.184
8.1789 21.107
8.1940 21.237
8.2092 21.551
8.2244 21.469
8.2396 21.101
8.2547 21.594
8.2699 21.489
8.2851 21.413
8.3003 21.533
8.3154 21.650
8.3306 21.179
8.3458 21.688
8.3610 21.273
8.3761 21.305
8.3913 22.027
8.4065 22.061
8.4217 21.563
8.4368 21.907
8.4520 21.719
8.4672 21.475
8.4824 22.287
8.4975 21.993
8.5127 22.239
8.5279 22.074
8.5431 22.347
8.5582 22.051
8.5734 22.192
8.5886 21.626
8.6038 22.338
8.6189 22.491
8.6341 22.086
8.6493 22.230
8.6645 22.455
8.6796 21.793
8.6948 22.027
8.7100 22.129
8.7252 22.129
8.7403 22.157
8.7555 22.493
8.7707 21.962
8.7859 22.442
8.8010 22.371
8.8162 22.279
8.8314 22.290
8.8466 22.387
8.8617 22.382
8.8769 22.591
8.8921 22.168
8.9073 22.189
8.9224 22.208
8.9376 22.389
8.9528 22.470
8.9680 22.359
8.9831 22.625
8.9983 22.449
9.0135 22.642
9.0287 22.696
9.0438 22.513
9.0590 22.464
9.0742 22.420
9.0894 22.923
9.1045 22.717
9.1197 22.400
9.1349 22.742
9.1501 22.770
9.1652 22.832
9.1804 23.085
9.1956 22.861
9.2108 22.710
9.2259 22.526
9.2411 22.761
9.2563 22.714
9.2715 22.996
9.2866 22.937
9.3018 22.716
9.3170 22.606
9.3322 22.629
9.3473 22.888
9.3625 22.979
9.3777 22.923
9.3929 22.632
9.4080 22.929
9.4232 23.359
9.4384 23.204
9.4536 22.684
9.4687 22.583
9.4839 22.759
9.4991 23.406
9.5143 23.210
9.5294 22.927
9.5446 23.143
9.5598 22.999
9.5750 23.138
9.5901 23.038
9.6053 22.936
9.6205 23.434
9.6357 23.511
9.6508 23.247
9.6660 23.289
9.6812 23.698
9.6964 23.810
9.7115 23.550
9.7267 23.811
9.7419 23.984
9.7571 23.770
9.7722 23.434
9.7874 23.333
9.8026 23.539
9.8178 23.522
9.8329 23.602
9.8481 23.453
9.8633 23.196
9.8785 22.741
9.8936 22.688
9.9088 23.197
9.9240 23.318
9.9392 23.215
9.9543 23.152
9.9695 22.972
9.9847 23.128
9.9999 23.309
10.0150 23.257
10.0302 23.124
10.0454 23.225
10.0606 23.360
10.0757 23.110
10.0909 23.185
10.1061 23.526
10.1213 23.462
10.1364 23.373
10.1516 23.550
10.1668 23.159
10.1820 23.044
10.1971 23.022
10.2123 22.897
10.2275 23.114
10.2427 23.040
10.2578 22.881
10.2730 22.871
10.2882 22.858
10.3034 22.604
10.3185 22.549
10.3337 22.966
10.3489 22.740
10.3641 22.441
10.3792 22.586
10.3944 22.827
10.4096 22.555
10.4248 22.583
10.4399 22.372
10.4551 22.359
10.4703 22.534
10.4855 22.527
10.5006 22.601
10.5158 22.703
10.5310 22.923
10.5462 22.379
10.5613 22.147
10.5765 22.505
10.5917 22.457
10.6069 22.530
10.6220 22.683
10.6372 22.722
10.6524 22.503
10.6676 22.312
10.6827 22.395
10.6979 22.270
10.7131 22.281
10.7283 22.354
10.7434 22.265
10.7586 22.168
10.7738 22.032
10.7890 22.113
10.8041 22.085
10.8193 22.167
10.8345 22.325
10.8497 22.320
10.8648 22.124
10.8800 21.795
10.8952 21.975
10.9104 21.911
10.9255 21.689
10.9407 21.832
10.9559 21.671
10.9711 21.610
10.9862 21.612
11.0014 21.834
11.0166 22.108
11.0318 22.256
11.0469 21.660
11.0621 21.568
11.0773 21.579
11.0925 21.800
11.1076 21.517
11.1228 21.356
11.1380 21.531
11.1532 21.712
11.1683 21.946
11.1835 21.536
11.1987 21.453
11.2139 21.761
11.2290 21.603
11.2442 21.492
11.2594 21.681
11.2746 21.578
11.2897 21.470
11.3049 21.548
11.3201 21.782
11.3353 21.732
11.3504 21.386
11.3656 21.144
11.3808 21.067
11.3960 20.989
11.4111 20.850
11.4263 20.964
11.4415 21.055
11.4567 20.949
11.4718 21.151
11.4870 21.201
11.5022 20.860
11.5174 20.834
11.5325 20.885
11.5477 20.715
11.5629 20.598
11.5781 20.899
11.5932 20.571
11.6084 20.538
11.6236 20.372
11.6388 20.889
11.6539 20.303
11.6691 20.009
11.6843 20.364
11.6995 20.434
11.7146 20.695
11.7298 20.631
11.7450 20.204
11.7602 20.154
11.7753 20.130
11.7905 20.392
11.8057 20.317
11.8209 20.051
11.8360 20.256
11.8512 19.946
11.8664 19.522
11.8816 19.856
11.8967 19.768
11.9119 19.701
11.9271 19.597
11.9423 19.242
11.9574 19.319
11.9726 19.619
11.9878 19.299
12.0030 18.615
12.0181 18.936
12.0333 19.131
12.0485 19.365
12.0637 19.461
12.0788 18.597
12.0940 18.818
12.1092 18.980
12.1244 18.724
12.1395 18.502
12.1547 18.371
12.1699 18.661
12.1851 18.265
12.2002 18.029
12.2154 18.113
12.2306 17.938
12.2458 17.892
12.2609 17.834
12.2761 17.789
12.2913 17.918
12.3065 17.839
12.3216 17.615
12.3368 17.507
12.3520 17.626
12.3672 17.449
12.3823 17.455
12.3975 17.284
12.4127 16.949
12.4279 17.028
12.4430 17.014
12.4582 17.218
12.4734 17.065
12.4886 16.816
12.5037 16.735
12.5189 16.384
12.5341 16.278
12.5493 16.356
12.5644 16.300
12.5796 16.387
12.5948 16.318
12.6100 16.149
12.6251 15.965
12.6403 15.723
12.6555 15.521
12.6707 15.859
12.6858 15.605
12.7010 15.496
12.7162 15.632
12.7314 15.306
12.7465 15.272
12.7617 15.262
12.7769 15.172
12.7921 14.980
12.8072 14.862
12.8224 15.172
12.8376 15.186
12.8528 14.949
12.8679 14.850
12.8831 14.597
12.8983 14.652
12.9135 14.540
12.9286 14.341
12.9438 14.284
12.9590 14.240
12.9742 14.424
12.9893 14.478
13.0045 14.348
13.0197 14.192
13.0349 13.925
13.0500 13.950
13.0652 14.058
13.0804 13.970
13.0956 13.981
13.1107 13.901
13.1259 13.918
13.1411 13.877
13.1563 13.657
13.1714 13.727
13.1866 13.613
13.2018 13.546
13.2170 13.535
13.2321 13.356
13.2473 13.268
13.2625 13.252
13.2777 13.391
13.2928 13.336
13.3080 13.257
13.3232 13.115
13.3384 13.053
13.3535 13.282
13.3687 13.237
13.3839 13.087
13.3991 13.197
13.4142 13.210
13.4294 13.103
13.4446 13.025
13.4598 12.964
13.4749 12.880
13.4901 12.955
13.5053 12.725
13.5205 12.449
13.5356 12.293
13.5508 12.605
13.5660 12.694
13.5812 12.310
13.5963 12.223
13.6115 12.123
13.6267 12.140
13.6419 12.102
13.6570 12.170
13.6722 12.036
13.6874 12.366
13.7026 12.336
13.7177 12.090
13.7329 12.062
13.7481 12.013
13.7633 12.074
13.7784 12.100
13.7936 12.508
13.8088 12.952
13.8239 13.891
13.8391 13.709
13.8543 12.390
13.8695 12.436
13.8846 12.416
13.8998 12.184
13.9150 12.111
13.9302 12.178
13.9453 12.135
13.9605 11.871
13.9757 12.071
13.9909 11.878
14.0060 11.484
14.0212 11.563
14.0364 11.747
14.0516 11.818
14.0667 11.793
14.0819 11.750
14.0971 11.564
14.1123 11.496
14.1274 11.880
14.1426 11.684
14.1578 11.715
14.1730 11.988
14.1881 11.920
14.2033 11.891
14.2185 11.698
14.2337 11.721
14.2488 11.693
14.2640 11.701
14.2792 11.840
14.2944 11.801
14.3095 11.951
14.3247 12.150
14.3399 12.472
14.3551 12.570
14.3702 12.960
14.3854 13.127
14.4006 12.638
14.4158 13.016
14.4309 13.096
14.4461 12.732
14.4613 12.686
14.4765 12.251
14.4916 11.996
14.5068 11.614
14.5220 11.515
14.5372 11.379
14.5523 11.291
14.5675 10.980
14.5827 10.913
14.5979 10.908
14.6130 10.934
14.6282 10.776
14.6434 10.762
14.6586 10.659
14.6737 10.605
14.6889 10.797
14.7041 10.592
14.7193 10.689
14.7344 10.694
14.7496 10.418
14.7648 10.534
14.7800 10.507
14.7951 10.691
14.8103 10.504
14.8255 10.364
14.8407 10.439
14.8558 10.321
14.8710 10.402
14.8862 10.393
14.9014 10.563
14.9165 10.570
14.9317 10.919
14.9469 10.399
14.9621 10.322
14.9772 10.198
14.9924 10.669
15.0076 10.215
15.0228 10.136
15.0379 10.434
15.0531 10.353
15.0683 10.594
15.0835 10.470
15.0986 10.112
15.1138 10.496
15.1290 10.243
15.1442 10.282
15.1593 10.094
15.1745 10.146
15.1897 10.325
15.2049 10.078
15.2200 10.025
15.2352 10.006
15.2504 10.314
15.2656 9.874
15.2807 10.114
15.2959 10.028
15.3111 10.014
15.3263 10.374
15.3414 10.051
15.3566 10.123
15.3718 9.898
15.3870 9.811
15.4021 9.961
15.4173 10.328
15.4325 10.170
15.4477 10.214
15.4628 10.157
15.4780 9.951
15.4932 10.220
15.5084 10.305
15.5235 9.841
15.5387 9.849
15.5539 9.955
15.5691 10.051
15.5842 10.052
15.5994 9.785
15.6146 9.764
15.6298 9.966
15.6449 9.753
15.6601 9.946
15.6753 10.073
15.6905 9.801
15.7056 9.584
15.7208 9.699
15.7360 9.446
15.7512 9.971
15.7663 9.823
15.7815 9.898
15.7967 9.627
15.8119 9.822
15.8270 9.781
15.8422 9.770
15.8574 9.810
15.8726 9.627
15.8877 9.601
15.9029 9.434
15.9181 9.543
15.9333 9.845
15.9484 9.796
15.9636 9.509
15.9788 9.434
15.9940 9.473
16.0091 9.502
16.0243 9.512
16.0395 9.632
16.0547 9.402
16.0698 9.632
16.0850 9.602
16.1002 9.602
16.1154 9.705
16.1305 9.549
16.1457 9.692
16.1609 9.502
16.1761 9.641
16.1912 9.788
16.2064 9.748
16.2216 9.602
16.2368 9.490
16.2519 9.638
16.2671 9.720
16.2823 9.622
16.2975 9.282
16.3126 9.553
16.3278 9.684
16.3430 9.557
16.3582 9.511
16.3733 9.740
16.3885 9.843
16.4037 9.690
16.4189 9.794
16.4340 9.857
16.4492 9.762
16.4644 9.760
16.4796 9.643
16.4947 9.807
16.5099 10.098
16.5251 9.763
16.5403 9.310
16.5554 9.613
16.5706 9.697
16.5858 9.720
16.6010 9.700
16.6161 9.792
16.6313 9.870
16.6465 9.943
16.6617 9.619
16.6768 9.551
16.6920 9.718
16.7072 9.884
16.7224 9.919
16.7375 9.998
16.7527 9.902
16.7679 9.919
16.7831 9.737
16.7982 9.825
16.8134 9.925
16.8286 9.856
16.8438 9.741
16.8589 9.712
16.8741 9.692
16.8893 9.757
16.9045 9.759
16.9196 9.902
16.9348 9.924
16.9500 9.700
16.9652 9.935
16.9803 10.065
16.9955 9.670
17.0107 9.583
17.0259 9.904
17.0410 10.087
17.0562 10.355
17.0714 10.342
17.0866 10.199
17.1017 10.375
17.1169 10.722
17.1321 11.116
17.1473 11.412
17.1624 11.611
17.1776 12.240
17.1928 12.932
17.2080 13.823
17.2231 14.793
17.2383 15.911
17.2535 17.560
17.2687 18.425
17.2838 18.615
17.2990 18.035
17.3142 16.802
17.3294 16.235
17.3445 15.994
17.3597 15.808
17.3749 15.649
17.3901 15.405
17.4052 14.671
17.4204 13.569
17.4356 12.754
17.4508 12.120
17.4659 11.983
17.4811 11.865
17.4963 11.567
17.5115 11.342
17.5266 11.075
17.5418 11.075
17.5570 11.069
17.5722 10.924
17.5873 10.952
17.6025 11.255
17.6177 11.224
17.6329 10.996
17.6480 11.395
17.6632 11.599
17.6784 11.402
17.6936 11.325
17.7087 11.240
17.7239 11.201
17.7391 11.029
17.7543 11.067
17.7694 10.942
17.7846 10.781
17.7998 10.860
17.8150 10.867
17.8301 10.659
17.8453 10.344
17.8605 10.172
17.8757 10.225
17.8908 10.372
17.9060 10.171
17.9212 10.091
17.9364 10.361
17.9515 10.317
17.9667 10.197
17.9819 10.038
17.9971 10.202
18.0122 10.540
18.0274 10.326
18.0426 10.176
18.0578 9.947
18.0729 9.895
18.0881 10.009
18.1033 9.883
18.1185 9.818
18.1336 9.833
18.1488 9.839
18.1640 9.917
18.1792 9.841
18.1943 9.828
18.2095 9.907
18.2247 9.800
18.2399 9.851
18.2550 9.992
18.2702 9.656
18.2854 9.503
18.3006 9.673
18.3157 9.907
18.3309 9.919
18.3461 9.774
18.3613 9.836
18.3764 9.780
18.3916 9.912
18.4068 9.862
18.4220 9.934
18.4371 10.025
18.4523 9.850
18.4675 9.716
18.4827 9.574
18.4978 9.575
18.5130 9.924
18.5282 9.895
18.5434 9.714
18.5585 9.808
18.5737 9.821
18.5889 9.861
18.6041 9.753
18.6192 9.709
18.6344 9.832
18.6496 9.522
18.6648 9.519
18.6799 9.754
18.6951 9.624
18.7103 9.841
18.7255 9.816
18.7406 9.825
18.7558 9.900
18.7710 9.839
18.7862 9.803
18.8013 9.705
18.8165 9.521
18.8317 9.659
18.8469 9.937
18.8620 10.013
18.8772 10.049
18.8924 9.856
18.9076 9.918
18.9227 10.095
18.9379 9.915
18.9531 9.828
18.9683 9.763
18.9834 9.791
18.9986 10.092
19.0138 10.051
19.0290 10.194
19.0441 10.145
19.0593 10.053
19.0745 10.057
19.0897 10.339
19.1048 10.481
19.1200 10.226
19.1352 10.130
19.1504 10.399
19.1655 10.622
19.1807 10.738
19.1959 10.592
19.2111 10.586
19.2262 10.531
19.2414 10.789
19.2566 11.051
19.2718 10.737
19.2869 10.714
19.3021 10.781
19.3173 10.775
19.3325 10.973
19.3476 10.935
19.3628 11.000
19.3780 10.999
19.3932 11.034
19.4083 11.240
19.4235 11.421
19.4387 11.418
19.4539 11.347
19.4690 11.296
19.4842 11.261
19.4994 11.241
19.5146 11.245
19.5297 11.383
19.5449 11.530
19.5601 11.501
19.5753 11.467
19.5904 11.759
19.6056 11.863
19.6208 11.708
19.6360 11.663
19.6511 11.509
19.6663 11.549
19.6815 11.666
19.6967 11.483
19.7118 11.653
19.7270 11.854
19.7422 11.662
19.7574 11.743
19.7725 11.969
19.7877 11.871
19.8029 11.896
19.8180 12.057
19.8332 12.237
19.8484 12.406
19.8636 12.557
19.8787 12.780
19.8939 12.740
19.9091 12.729
19.9243 13.333
19.9394 13.513
19.9546 13.851
19.9698 14.379
19.9850 14.352
20.0001 14.440
20.0153 14.239
20.0305 14.084
20.0457 13.836
20.0608 13.775
20.0760 13.675
20.0912 13.864
20.1064 13.669
20.1215 13.233
20.1367 13.254
20.1519 12.891
20.1671 12.793
20.1822 12.919
20.1974 12.867
20.2126 12.627
20.2278 12.685
20.2429 12.512
20.2581 12.049
20.2733 11.944
20.2885 11.892
20.3036 11.905
20.3188 12.053
20.3340 12.179
20.3492 11.945
20.3643 11.980
20.3795 11.851
20.3947 11.922
20.4099 12.106
20.4250 11.987
20.4402 11.750
20.4554 11.869
20.4706 11.932
20.4857 11.949
20.5009 11.694
20.5161 11.708
20.5313 11.805
20.5464 11.483
20.5616 11.306
20.5768 11.062
20.5920 11.067
20.6071 10.917
20.6223 11.304
20.6375 11.044
20.6527 10.796
20.6678 10.633
20.6830 10.676
20.6982 10.686
20.7134 10.307
20.7285 10.396
20.7437 10.473
20.7589 10.262
20.7741 10.270
20.7892 9.970
20.8044 10.189
20.8196 10.190
20.8348 10.318
20.8499 10.331
20.8651 10.419
20.8803 10.250
20.8955 10.303
20.9106 10.190
20.9258 10.379
20.9410 10.157
20.9562 10.332
20.9713 10.075
20.9865 9.950
21.0017 9.957
21.0169 9.863
21.0320 10.380
21.0472 9.884
21.0624 9.915
21.0776 10.139
21.0927 9.913
21.1079 9.985
21.1231 9.628
21.1383 9.710
21.1534 9.492
21.1686 10.125
21.1838 9.874
21.1990 10.364
21.2141 9.725
21.2293 9.737
21.2445 9.583
21.2597 9.915
21.2748 9.857
21.2900 9.484
21.3052 9.893
21.3204 9.380
21.3355 9.564
21.3507 9.661
21.3659 9.484
21.3811 9.534
21.3962 9.185
21.4114 9.423
21.4266 9.484
21.4418 9.476
21.4569 9.416
21.4721 9.458
21.4873 9.437
21.5025 9.350
21.5176 9.234
21.5328 9.268
21.5480 9.443
21.5632 9.257
21.5783 9.480
21.5935 9.517
21.6087 9.202
21.6239 9.132
21.6390 8.962
21.6542 9.095
21.6694 9.205
21.6846 9.184
21.6997 9.130
21.7149 9.004
21.7301 8.960
21.7453 9.125
21.7604 9.090
21.7756 9.047
21.7908 8.942
21.8060 8.978
21.8211 9.027
21.8363 9.249
21.8515 9.168
21.8667 8.972
21.8818 8.915
21.8970 8.995
21.9122 9.134
21.9274 9.070
21.9425 8.943
21.9577 8.829
21.9729 8.837
21.9881 9.040
22.0032 8.998
22.0184 8.908
22.0336 8.960
22.0488 9.035
22.0639 9.181
22.0791 8.782
22.0943 8.514
22.1095 8.664
22.1246 8.762
22.1398 8.645
22.1550 8.513
22.1702 8.664
22.1853 8.536
22.2005 8.672
22.2157 8.833
22.2309 8.731
22.2460 8.257
22.2612 8.445
22.2764 8.441
22.2916 8.557
22.3067 8.715
22.3219 8.527
22.3371 8.435
22.3523 8.628
22.3674 8.534
22.3826 8.329
22.3978 8.486
22.4130 8.626
22.4281 8.441
22.4433 8.325
22.4585 8.282
22.4737 8.513
22.4888 8.291
22.5040 8.258
22.5192 8.273
22.5344 8.412
22.5495 8.445
22.5647 8.261
22.5799 8.747
22.5951 8.492
22.6102 8.276
22.6254 8.459
22.6406 8.344
22.6558 8.353
22.6709 8.361
22.6861 8.109
22.7013 8.221
22.7165 7.933
22.7316 6.399
