'Id: "" Comment: "" Operator: "Lab Manager" Anode: "Mo" Scantype: "Still (Eiger2R_500K (1D mode))" TimePerStep: "300" X: "11.8" Y: "9.4" Z: "11.284" 
7.2532 18.652
7.2684 19.165
7.2836 18.771
7.2987 18.921
7.3139 19.124
7.3291 19.167
7.3443 18.933
7.3594 19.221
7.3746 19.493
7.3898 19.456
7.4050 18.873
7.4201 19.489
7.4353 19.596
7.4505 19.632
7.4657 19.602
7.4808 20.093
7.4960 19.780
7.5112 19.564
7.5264 19.719
7.5415 19.774
7.5567 19.650
7.5719 19.644
7.5871 19.923
7.6022 20.127
7.6174 20.348
7.6326 19.993
7.6478 20.121
7.6629 20.058
7.6781 20.048
7.6933 20.216
7.7085 20.229
7.7236 20.490
7.7388 20.298
7.7540 20.030
7.7692 20.508
7.7843 20.663
7.7995 20.715
7.8147 21.055
7.8299 21.107
7.8450 20.888
7.8602 20.930
7.8754 20.975
7.8905 20.980
7.9057 21.053
7.9209 21.344
7.9361 21.566
7.9512 21.291
7.9664 21.126
7.9816 21.175
7.9968 21.309
8.0119 21.420
8.0271 21.382
8.0423 21.139
8.0575 20.706
8.0726 21.132
8.0878 21.274
8.1030 21.267
8.1182 21.314
8.1333 21.736
8.1485 21.370
8.1637 21.301
8.1789 21.549
8.1940 21.794
8.2092 21.728
8.2244 21.738
8.2396 21.666
8.2547 21.641
8.2699 21.828
8.2851 21.894
8.3003 21.742
8.3154 21.604
8.3306 21.854
8.3458 21.912
8.3610 21.977
8.3761 21.923
8.3913 22.255
8.4065 22.066
8.4217 22.234
8.4368 21.974
8.4520 22.330
8.4672 21.819
8.4824 22.062
8.4975 22.497
8.5127 22.205
8.5279 22.249
8.5431 22.274
8.5582 21.766
8.5734 22.337
8.5886 22.775
8.6038 22.107
8.6189 22.704
8.6341 22.395
8.6493 22.272
8.6645 22.639
8.6796 22.247
8.6948 22.704
8.7100 22.320
8.7252 22.936
8.7403 22.638
8.7555 22.912
8.7707 22.651
8.7859 22.915
8.8010 23.121
8.8162 22.407
8.8314 22.931
8.8466 22.803
8.8617 22.732
8.8769 22.812
8.8921 22.723
8.9073 22.837
8.9224 22.542
8.9376 22.743
8.9528 22.669
8.9680 22.590
8.9831 23.179
8.9983 23.427
9.0135 22.746
9.0287 23.133
9.0438 22.740
9.0590 22.675
9.0742 22.755
9.0894 23.029
9.1045 22.939
9.1197 22.450
9.1349 22.461
9.1501 22.277
9.1652 22.908
9.1804 22.913
9.1956 22.671
9.2108 23.174
9.2259 22.871
9.2411 23.122
9.2563 23.288
9.2715 23.042
9.2866 23.058
9.3018 23.200
9.3170 23.159
9.3322 23.060
9.3473 23.007
9.3625 22.954
9.3777 23.305
9.3929 23.148
9.4080 23.242
9.4232 23.044
9.4384 22.889
9.4536 23.191
9.4687 23.445
9.4839 23.288
9.4991 22.964
9.5143 23.216
9.5294 23.257
9.5446 23.252
9.5598 23.360
9.5750 23.604
9.5901 23.455
9.6053 23.303
9.6205 23.403
9.6357 23.457
9.6508 23.609
9.6660 23.763
9.6812 23.986
9.6964 23.923
9.7115 24.031
9.7267 24.118
9.7419 23.985
9.7571 23.903
9.7722 23.943
9.7874 23.992
9.8026 24.075
9.8178 24.073
9.8329 23.451
9.8481 23.177
9.8633 23.578
9.8785 23.577
9.8936 23.506
9.9088 23.639
9.9240 23.516
9.9392 23.446
9.9543 23.557
9.9695 23.532
9.9847 23.353
9.9999 23.375
10.0150 23.575
10.0302 23.499
10.0454 23.615
10.0606 23.509
10.0757 23.614
10.0909 23.614
10.1061 23.570
10.1213 23.914
10.1364 23.963
10.1516 24.419
10.1668 24.159
10.1820 23.718
10.1971 24.115
10.2123 24.041
10.2275 24.103
10.2427 24.482
10.2578 24.399
10.2730 24.176
10.2882 23.523
10.3034 23.194
10.3185 23.120
10.3337 23.203
10.3489 23.168
10.3641 23.170
10.3792 23.061
10.3944 22.909
10.4096 22.769
10.4248 22.932
10.4399 22.918
10.4551 23.073
10.4703 23.249
10.4855 22.900
10.5006 22.525
10.5158 23.106
10.5310 23.058
10.5462 22.736
10.5613 22.584
10.5765 22.652
10.5917 22.714
10.6069 22.666
10.6220 22.657
10.6372 22.765
10.6524 22.666
10.6676 22.876
10.6827 22.800
10.6979 22.568
10.7131 22.426
10.7283 23.047
10.7434 22.854
10.7586 22.402
10.7738 22.468
10.7890 22.095
10.8041 21.897
10.8193 22.276
10.8345 22.380
10.8497 22.321
10.8648 22.414
10.8800 22.321
10.8952 22.445
10.9104 22.524
10.9255 22.172
10.9407 22.294
10.9559 22.169
10.9711 21.988
10.9862 21.822
11.0014 21.978
11.0166 22.495
11.0318 22.600
11.0469 22.071
11.0621 22.003
11.0773 21.975
11.0925 22.108
11.1076 21.910
11.1228 22.199
11.1380 22.236
11.1532 22.076
11.1683 22.092
11.1835 22.149
11.1987 21.956
11.2139 21.938
11.2290 21.723
11.2442 21.935
11.2594 22.119
11.2746 21.969
11.2897 21.981
11.3049 21.720
11.3201 21.833
11.3353 21.772
11.3504 21.401
11.3656 21.751
11.3808 21.652
11.3960 21.642
11.4111 21.357
11.4263 21.222
11.4415 21.165
11.4567 21.099
11.4718 20.863
11.4870 20.834
11.5022 20.910
11.5174 21.176
11.5325 21.235
11.5477 21.092
11.5629 20.641
11.5781 20.813
11.5932 21.055
11.6084 20.656
11.6236 20.751
11.6388 20.658
11.6539 20.787
11.6691 20.906
11.6843 20.515
11.6995 20.274
11.7146 20.551
11.7298 20.555
11.7450 20.625
11.7602 20.785
11.7753 20.362
11.7905 20.199
11.8057 20.476
11.8209 20.148
11.8360 19.808
11.8512 19.850
11.8664 19.796
11.8816 19.611
11.8967 19.870
11.9119 19.529
11.9271 19.373
11.9423 19.426
11.9574 19.398
11.9726 19.480
11.9878 19.269
12.0030 18.764
12.0181 19.046
12.0333 19.148
12.0485 18.966
12.0637 18.745
12.0788 18.572
12.0940 18.649
12.1092 18.689
12.1244 18.602
12.1395 18.401
12.1547 18.416
12.1699 18.371
12.1851 18.280
12.2002 18.168
12.2154 18.135
12.2306 18.008
12.2458 18.240
12.2609 18.044
12.2761 17.853
12.2913 17.853
12.3065 17.873
12.3216 17.746
12.3368 17.439
12.3520 17.535
12.3672 17.318
12.3823 17.371
12.3975 17.706
12.4127 17.614
12.4279 17.474
12.4430 17.242
12.4582 17.280
12.4734 17.116
12.4886 16.974
12.5037 16.918
12.5189 16.803
12.5341 16.952
12.5493 16.810
12.5644 16.784
12.5796 16.553
12.5948 16.095
12.6100 16.026
12.6251 16.213
12.6403 16.126
12.6555 15.967
12.6707 15.823
12.6858 15.746
12.7010 15.664
12.7162 15.665
12.7314 15.624
12.7465 15.354
12.7617 15.284
12.7769 15.370
12.7921 15.306
12.8072 15.150
12.8224 15.163
12.8376 15.350
12.8528 15.047
12.8679 14.779
12.8831 14.881
12.8983 14.944
12.9135 15.140
12.9286 14.875
12.9438 14.644
12.9590 14.564
12.9742 14.428
12.9893 14.469
13.0045 14.404
13.0197 14.246
13.0349 14.130
13.0500 14.175
13.0652 14.221
13.0804 14.066
13.0956 13.971
13.1107 13.840
13.1259 13.772
13.1411 13.563
13.1563 13.372
13.1714 13.471
13.1866 13.436
13.2018 13.549
13.2170 13.635
13.2321 13.317
13.2473 13.090
13.2625 13.103
13.2777 13.130
13.2928 13.100
13.3080 13.206
13.3232 13.185
13.3384 13.127
13.3535 13.349
13.3687 13.268
13.3839 13.201
13.3991 13.079
13.4142 12.913
13.4294 12.899
13.4446 13.018
13.4598 12.806
13.4749 12.615
13.4901 12.601
13.5053 12.667
13.5205 12.733
13.5356 12.552
13.5508 12.274
13.5660 12.288
13.5812 12.348
13.5963 12.117
13.6115 12.036
13.6267 12.215
13.6419 12.028
13.6570 12.026
13.6722 12.029
13.6874 12.110
13.7026 11.990
13.7177 11.957
13.7329 12.005
13.7481 11.882
13.7633 11.847
13.7784 11.891
13.7936 11.954
13.8088 11.923
13.8239 12.028
13.8391 12.334
13.8543 12.376
13.8695 12.290
13.8846 12.261
13.8998 12.155
13.9150 12.250
13.9302 12.245
13.9453 11.953
13.9605 11.834
13.9757 11.741
13.9909 11.283
14.0060 11.566
14.0212 11.838
14.0364 11.793
14.0516 11.519
14.0667 11.241
14.0819 11.156
14.0971 11.342
14.1123 11.392
14.1274 11.611
14.1426 11.492
14.1578 11.223
14.1730 11.428
14.1881 11.655
14.2033 11.807
14.2185 11.827
14.2337 12.221
14.2488 12.096
14.2640 12.014
14.2792 12.017
14.2944 12.110
14.3095 12.234
14.3247 12.534
14.3399 12.769
14.3551 12.985
14.3702 12.960
14.3854 13.127
14.4006 13.382
14.4158 13.276
14.4309 13.108
14.4461 12.823
14.4613 12.759
14.4765 12.694
14.4916 12.283
14.5068 12.516
14.5220 12.145
14.5372 12.176
14.5523 11.843
14.5675 11.765
14.5827 11.871
14.5979 11.291
14.6130 11.525
14.6282 11.525
14.6434 11.511
14.6586 11.271
14.6737 11.111
14.6889 11.062
14.7041 11.165
14.7193 10.850
14.7344 10.525
14.7496 10.758
14.7648 10.594
14.7800 10.781
14.7951 11.078
14.8103 10.990
14.8255 10.801
14.8407 10.803
14.8558 10.837
14.8710 10.516
14.8862 10.729
14.9014 10.931
14.9165 10.684
14.9317 11.096
14.9469 10.827
14.9621 10.607
14.9772 10.639
14.9924 10.405
15.0076 10.677
15.0228 10.565
15.0379 10.782
15.0531 10.158
15.0683 10.369
15.0835 10.430
15.0986 10.497
15.1138 10.512
15.1290 10.770
15.1442 10.359
15.1593 10.417
15.1745 10.654
15.1897 10.800
15.2049 10.449
15.2200 10.732
15.2352 10.578
15.2504 10.086
15.2656 10.320
15.2807 10.177
15.2959 10.328
15.3111 10.589
15.3263 10.274
15.3414 10.014
15.3566 10.672
15.3718 10.113
15.3870 10.327
15.4021 10.730
15.4173 10.729
15.4325 10.402
15.4477 10.767
15.4628 10.253
15.4780 10.524
15.4932 10.388
15.5084 10.448
15.5235 10.437
15.5387 10.501
15.5539 10.444
15.5691 10.105
15.5842 10.050
15.5994 9.958
15.6146 9.884
15.6298 9.902
15.6449 10.006
15.6601 10.065
15.6753 9.843
15.6905 9.922
15.7056 9.993
15.7208 10.089
15.7360 9.943
15.7512 10.080
15.7663 9.683
15.7815 9.945
15.7967 10.126
15.8119 9.831
15.8270 10.154
15.8422 9.958
15.8574 9.787
15.8726 9.540
15.8877 9.635
15.9029 9.756
15.9181 10.006
15.9333 9.864
15.9484 10.089
15.9636 10.097
15.9788 9.611
15.9940 9.558
16.0091 9.803
16.0243 9.862
16.0395 9.639
16.0547 9.541
16.0698 9.605
16.0850 9.542
16.1002 9.449
16.1154 9.549
16.1305 9.628
16.1457 9.487
16.1609 9.532
16.1761 9.861
16.1912 9.568
16.2064 9.438
16.2216 9.809
16.2368 9.714
16.2519 9.566
16.2671 9.905
16.2823 9.695
16.2975 9.905
16.3126 10.229
16.3278 9.997
16.3430 9.758
16.3582 9.835
16.3733 9.960
16.3885 10.003
16.4037 10.007
16.4189 10.144
16.4340 9.772
16.4492 9.725
16.4644 9.766
16.4796 9.911
16.4947 9.876
16.5099 9.941
16.5251 9.933
16.5403 9.747
16.5554 9.846
16.5706 9.704
16.5858 9.745
16.6010 9.619
16.6161 9.664
16.6313 9.693
16.6465 9.920
16.6617 10.014
16.6768 9.813
16.6920 9.970
16.7072 9.797
16.7224 10.045
16.7375 10.078
16.7527 10.071
16.7679 10.016
16.7831 9.782
16.7982 9.606
16.8134 9.898
16.8286 9.869
16.8438 9.885
16.8589 10.026
16.8741 9.865
16.8893 9.854
16.9045 9.776
16.9196 9.689
16.9348 10.050
16.9500 9.935
16.9652 9.945
16.9803 10.074
16.9955 9.927
17.0107 10.112
17.0259 10.095
17.0410 10.124
17.0562 10.024
17.0714 10.155
17.0866 10.486
17.1017 10.530
17.1169 10.664
17.1321 10.947
17.1473 11.460
17.1624 11.927
17.1776 12.348
17.1928 12.924
17.2080 13.775
17.2231 14.976
17.2383 16.203
17.2535 17.509
17.2687 18.371
17.2838 18.570
17.2990 17.948
17.3142 16.807
17.3294 16.026
17.3445 15.844
17.3597 16.120
17.3749 16.187
17.3901 15.242
17.4052 14.076
17.4204 13.376
17.4356 12.675
17.4508 12.153
17.4659 11.917
17.4811 11.651
17.4963 11.246
17.5115 11.202
17.5266 11.375
17.5418 11.336
17.5570 11.034
17.5722 11.175
17.5873 11.611
17.6025 11.671
17.6177 11.634
17.6329 11.492
17.6480 11.334
17.6632 11.213
17.6784 11.136
17.6936 10.930
17.7087 10.890
17.7239 10.887
17.7391 10.826
17.7543 10.747
17.7694 10.558
17.7846 10.602
17.7998 10.688
17.8150 10.683
17.8301 10.749
17.8453 10.740
17.8605 10.936
17.8757 10.822
17.8908 10.695
17.9060 10.890
17.9212 10.802
17.9364 10.686
17.9515 10.631
17.9667 10.618
17.9819 10.591
17.9971 10.534
18.0122 10.561
18.0274 10.416
18.0426 10.382
18.0578 10.237
18.0729 10.118
18.0881 9.992
18.1033 9.951
18.1185 9.919
18.1336 9.988
18.1488 9.972
18.1640 10.083
18.1792 9.884
18.1943 9.832
18.2095 10.012
18.2247 9.905
18.2399 9.805
18.2550 9.807
18.2702 10.056
18.2854 10.141
18.3006 9.879
18.3157 9.764
18.3309 9.724
18.3461 9.663
18.3613 9.723
18.3764 9.584
18.3916 9.638
18.4068 9.812
18.4220 9.798
18.4371 9.864
18.4523 9.808
18.4675 9.569
18.4827 9.687
18.4978 9.685
18.5130 9.659
18.5282 9.643
18.5434 9.697
18.5585 9.780
18.5737 9.722
18.5889 9.709
18.6041 9.610
18.6192 9.767
18.6344 9.809
18.6496 9.691
18.6648 9.687
18.6799 9.626
18.6951 9.682
18.7103 9.987
18.7255 9.922
18.7406 9.890
18.7558 9.730
18.7710 9.853
18.7862 9.947
18.8013 9.729
18.8165 9.644
18.8317 9.612
18.8469 9.836
18.8620 10.033
18.8772 9.956
18.8924 9.822
18.9076 9.872
18.9227 9.871
18.9379 9.930
18.9531 10.171
18.9683 10.194
18.9834 10.062
18.9986 10.096
19.0138 10.098
19.0290 10.070
19.0441 10.262
19.0593 10.134
19.0745 10.107
19.0897 10.205
19.1048 10.319
19.1200 10.223
19.1352 10.191
19.1504 10.341
19.1655 10.349
19.1807 10.474
19.1959 10.551
19.2111 10.589
19.2262 10.701
19.2414 10.874
19.2566 10.663
19.2718 10.679
19.2869 10.807
19.3021 11.133
19.3173 10.892
19.3325 10.786
19.3476 11.103
19.3628 11.045
19.3780 11.079
19.3932 11.240
19.4083 11.323
19.4235 11.261
19.4387 11.133
19.4539 11.160
19.4690 11.270
19.4842 11.402
19.4994 11.352
19.5146 11.296
19.5297 11.473
19.5449 11.570
19.5601 11.374
19.5753 11.383
19.5904 11.411
19.6056 11.534
19.6208 11.724
19.6360 11.628
19.6511 11.612
19.6663 11.566
19.6815 11.650
19.6967 11.589
19.7118 11.462
19.7270 11.733
19.7422 11.844
19.7574 11.748
19.7725 11.696
19.7877 11.688
19.8029 11.843
19.8180 12.036
19.8332 12.203
19.8484 12.307
19.8636 12.551
19.8787 12.630
19.8939 12.567
19.9091 12.679
19.9243 13.183
19.9394 13.532
19.9546 13.717
19.9698 14.161
19.9850 14.394
20.0001 14.319
20.0153 14.031
20.0305 13.714
20.0457 13.539
20.0608 13.682
20.0760 13.671
20.0912 13.632
20.1064 13.855
20.1215 13.512
20.1367 13.139
20.1519 13.241
20.1671 13.088
20.1822 12.775
20.1974 12.778
20.2126 12.992
20.2278 12.852
20.2429 12.622
20.2581 12.725
20.2733 12.359
20.2885 12.083
20.3036 12.013
20.3188 11.933
20.3340 11.895
20.3492 11.684
20.3643 11.548
20.3795 11.317
20.3947 11.435
20.4099 10.989
20.4250 11.059
20.4402 10.928
20.4554 10.898
20.4706 11.132
20.4857 11.022
20.5009 10.915
20.5161 10.920
20.5313 11.089
20.5464 10.875
20.5616 10.861
20.5768 10.813
20.5920 10.929
20.6071 10.785
20.6223 10.725
20.6375 10.791
20.6527 10.907
20.6678 10.811
20.6830 10.562
20.6982 10.570
20.7134 10.508
20.7285 10.736
20.7437 10.801
20.7589 10.611
20.7741 10.547
20.7892 10.468
20.8044 10.561
20.8196 10.359
20.8348 10.402
20.8499 10.533
20.8651 10.279
20.8803 10.104
20.8955 10.175
20.9106 10.378
20.9258 10.295
20.9410 10.201
20.9562 10.317
20.9713 10.017
20.9865 10.097
21.0017 9.939
21.0169 9.821
21.0320 10.168
21.0472 10.015
21.0624 10.191
21.0776 9.679
21.0927 9.771
21.1079 9.913
21.1231 9.765
21.1383 10.030
21.1534 9.597
21.1686 9.799
21.1838 9.872
21.1990 9.502
21.2141 9.679
21.2293 10.056
21.2445 9.668
21.2597 9.856
21.2748 9.279
21.2900 9.630
21.3052 9.329
21.3204 9.415
21.3355 9.379
21.3507 9.393
21.3659 9.614
21.3811 9.401
21.3962 9.439
21.4114 9.569
21.4266 9.464
21.4418 9.570
21.4569 9.698
21.4721 9.437
21.4873 9.339
21.5025 9.331
21.5176 9.043
21.5328 9.438
21.5480 9.079
21.5632 9.251
21.5783 9.304
21.5935 9.250
21.6087 9.337
21.6239 9.133
21.6390 9.089
21.6542 9.115
21.6694 9.131
21.6846 9.198
21.6997 9.278
21.7149 9.073
21.7301 9.111
21.7453 9.052
21.7604 9.150
21.7756 9.149
21.7908 8.947
21.8060 8.917
21.8211 8.953
21.8363 9.060
21.8515 9.379
21.8667 9.225
21.8818 9.135
21.8970 9.031
21.9122 8.834
21.9274 8.819
21.9425 9.089
21.9577 9.182
21.9729 8.988
21.9881 8.882
22.0032 8.960
22.0184 8.878
22.0336 8.677
22.0488 8.802
22.0639 9.018
22.0791 8.824
22.0943 8.619
22.1095 8.783
22.1246 8.814
22.1398 8.622
22.1550 8.589
22.1702 8.602
22.1853 8.701
22.2005 8.725
22.2157 8.678
22.2309 8.680
22.2460 8.775
22.2612 8.567
22.2764 8.481
22.2916 8.624
22.3067 8.762
22.3219 8.850
22.3371 8.621
22.3523 8.826
22.3674 8.419
22.3826 8.341
22.3978 8.601
22.4130 8.479
22.4281 8.287
22.4433 8.194
22.4585 8.334
22.4737 8.432
22.4888 8.205
22.5040 8.682
22.5192 8.480
22.5344 8.376
22.5495 8.434
22.5647 8.614
22.5799 8.597
22.5951 8.479
22.6102 8.631
22.6254 8.380
22.6406 8.624
22.6558 8.585
22.6709 8.477
22.6861 8.374
22.7013 8.298
22.7165 8.013
22.7316 6.377
