'Id: "" Comment: "" Operator: "Lab Manager" Anode: "Mo" Scantype: "Still (Eiger2R_500K (1D mode))" TimePerStep: "300" X: "11.8" Y: "9.4" Z: "11.284" 
7.2532 18.517
7.2684 18.636
7.2836 18.739
7.2987 18.796
7.3139 19.287
7.3291 18.921
7.3443 18.938
7.3594 19.249
7.3746 19.018
7.3898 19.294
7.4050 19.398
7.4201 19.432
7.4353 19.456
7.4505 19.271
7.4657 19.178
7.4808 19.376
7.4960 20.047
7.5112 19.689
7.5264 19.419
7.5415 19.793
7.5567 19.992
7.5719 19.886
7.5871 19.737
7.6022 19.718
7.6174 19.880
7.6326 20.301
7.6478 20.038
7.6629 19.867
7.6781 20.193
7.6933 20.597
7.7085 20.377
7.7236 20.104
7.7388 20.206
7.7540 20.248
7.7692 20.157
7.7843 20.368
7.7995 20.343
7.8147 19.970
7.8299 20.259
7.8450 20.648
7.8602 20.513
7.8754 20.276
7.8905 20.397
7.9057 20.689
7.9209 20.597
7.9361 20.533
7.9512 20.551
7.9664 20.584
7.9816 20.674
7.9968 20.850
8.0119 20.817
8.0271 20.836
8.0423 21.031
8.0575 20.991
8.0726 20.842
8.0878 21.093
8.1030 20.988
8.1182 20.877
8.1333 21.038
8.1485 21.285
8.1637 21.332
8.1789 21.462
8.1940 21.452
8.2092 21.388
8.2244 21.010
8.2396 21.512
8.2547 21.650
8.2699 21.346
8.2851 21.281
8.3003 21.234
8.3154 21.593
8.3306 21.409
8.3458 21.748
8.3610 21.380
8.3761 21.877
8.3913 21.142
8.4065 21.795
8.4217 21.139
8.4368 21.828
8.4520 21.655
8.4672 21.563
8.4824 21.975
8.4975 21.716
8.5127 21.820
8.5279 22.135
8.5431 22.357
8.5582 21.729
8.5734 21.928
8.5886 21.830
8.6038 22.309
8.6189 22.266
8.6341 22.517
8.6493 21.926
8.6645 22.506
8.6796 22.240
8.6948 22.176
8.7100 22.442
8.7252 22.423
8.7403 21.994
8.7555 22.160
8.7707 22.339
8.7859 22.272
8.8010 22.343
8.8162 21.876
8.8314 22.362
8.8466 22.262
8.8617 22.505
8.8769 22.432
8.8921 22.418
8.9073 22.430
8.9224 22.510
8.9376 22.489
8.9528 22.331
8.9680 22.472
8.9831 22.733
8.9983 22.131
9.0135 22.892
9.0287 22.659
9.0438 22.424
9.0590 22.571
9.0742 22.777
9.0894 22.434
9.1045 22.661
9.1197 22.578
9.1349 22.742
9.1501 22.753
9.1652 22.101
9.1804 22.267
9.1956 22.461
9.2108 22.525
9.2259 22.472
9.2411 22.592
9.2563 22.450
9.2715 23.027
9.2866 23.014
9.3018 22.838
9.3170 22.771
9.3322 22.953
9.3473 22.757
9.3625 22.838
9.3777 23.049
9.3929 23.604
9.4080 23.205
9.4232 22.763
9.4384 22.933
9.4536 22.871
9.4687 22.871
9.4839 22.847
9.4991 22.945
9.5143 23.081
9.5294 23.297
9.5446 23.379
9.5598 23.086
9.5750 22.753
9.5901 22.742
9.6053 23.224
9.6205 23.436
9.6357 23.384
9.6508 23.161
9.6660 23.527
9.6812 23.744
9.6964 23.763
9.7115 23.949
9.7267 23.972
9.7419 24.062
9.7571 24.423
9.7722 24.268
9.7874 24.056
9.8026 23.761
9.8178 23.368
9.8329 23.459
9.8481 23.572
9.8633 23.513
9.8785 23.130
9.8936 23.037
9.9088 23.409
9.9240 23.139
9.9392 22.712
9.9543 23.026
9.9695 23.498
9.9847 23.151
9.9999 22.862
10.0150 22.807
10.0302 22.985
10.0454 23.185
10.0606 22.888
10.0757 22.793
10.0909 22.937
10.1061 23.310
10.1213 23.497
10.1364 23.678
10.1516 23.590
10.1668 23.365
10.1820 23.282
10.1971 23.095
10.2123 23.471
10.2275 23.386
10.2427 22.818
10.2578 22.781
10.2730 22.964
10.2882 22.837
10.3034 22.887
10.3185 22.892
10.3337 22.863
10.3489 22.837
10.3641 22.456
10.3792 22.369
10.3944 22.514
10.4096 22.636
10.4248 22.494
10.4399 22.462
10.4551 22.156
10.4703 22.315
10.4855 22.541
10.5006 22.185
10.5158 22.076
10.5310 22.319
10.5462 22.754
10.5613 22.692
10.5765 22.467
10.5917 22.564
10.6069 22.665
10.6220 22.796
10.6372 22.855
10.6524 22.627
10.6676 22.538
10.6827 22.591
10.6979 22.270
10.7131 22.602
10.7283 22.747
10.7434 22.534
10.7586 22.232
10.7738 21.854
10.7890 22.023
10.8041 22.282
10.8193 22.555
10.8345 22.516
10.8497 21.890
10.8648 22.164
10.8800 22.225
10.8952 22.124
10.9104 22.250
10.9255 22.058
10.9407 21.943
10.9559 21.635
10.9711 21.646
10.9862 21.849
11.0014 22.041
11.0166 22.144
11.0318 21.913
11.0469 21.929
11.0621 21.967
11.0773 21.768
11.0925 21.531
11.1076 21.743
11.1228 21.877
11.1380 21.717
11.1532 21.904
11.1683 21.733
11.1835 21.625
11.1987 21.718
11.2139 21.727
11.2290 21.788
11.2442 21.554
11.2594 21.462
11.2746 21.519
11.2897 21.917
11.3049 21.842
11.3201 21.545
11.3353 21.495
11.3504 21.147
11.3656 21.162
11.3808 21.237
11.3960 21.168
11.4111 21.203
11.4263 21.426
11.4415 21.279
11.4567 21.213
11.4718 21.154
11.4870 21.120
11.5022 21.451
11.5174 21.139
11.5325 20.730
11.5477 20.698
11.5629 20.693
11.5781 20.824
11.5932 20.857
11.6084 21.153
11.6236 21.031
11.6388 21.203
11.6539 20.892
11.6691 20.676
11.6843 20.324
11.6995 20.260
11.7146 20.755
11.7298 20.829
11.7450 20.329
11.7602 20.250
11.7753 20.187
11.7905 19.706
11.8057 19.671
11.8209 19.898
11.8360 19.802
11.8512 19.938
11.8664 19.919
11.8816 19.605
11.8967 19.517
11.9119 19.857
11.9271 19.682
11.9423 19.406
11.9574 19.295
11.9726 19.057
11.9878 19.229
12.0030 19.052
12.0181 19.405
12.0333 19.531
12.0485 19.505
12.0637 19.266
12.0788 18.843
12.0940 18.762
12.1092 18.859
12.1244 19.060
12.1395 18.879
12.1547 18.215
12.1699 18.183
12.1851 18.423
12.2002 18.634
12.2154 18.428
12.2306 18.197
12.2458 18.307
12.2609 18.207
12.2761 17.794
12.2913 17.786
12.3065 17.858
12.3216 17.486
12.3368 17.231
12.3520 17.291
12.3672 16.964
12.3823 17.052
12.3975 17.026
12.4127 17.048
12.4279 16.927
12.4430 16.907
12.4582 17.041
12.4734 16.633
12.4886 16.582
12.5037 16.715
12.5189 16.766
12.5341 16.536
12.5493 16.433
12.5644 16.237
12.5796 16.195
12.5948 16.138
12.6100 15.958
12.6251 15.934
12.6403 16.011
12.6555 15.888
12.6707 15.772
12.6858 15.767
12.7010 15.518
12.7162 15.446
12.7314 15.415
12.7465 15.175
12.7617 15.162
12.7769 15.176
12.7921 15.051
12.8072 14.986
12.8224 15.174
12.8376 15.013
12.8528 14.670
12.8679 14.630
12.8831 14.582
12.8983 14.770
12.9135 14.731
12.9286 14.565
12.9438 14.385
12.9590 14.102
12.9742 14.069
12.9893 14.221
13.0045 14.328
13.0197 14.420
13.0349 14.206
13.0500 14.020
13.0652 14.095
13.0804 13.816
13.0956 13.767
13.1107 13.746
13.1259 13.541
13.1411 13.278
13.1563 13.176
13.1714 13.504
13.1866 13.586
13.2018 13.355
13.2170 13.148
13.2321 13.295
13.2473 13.683
13.2625 13.450
13.2777 12.926
13.2928 12.992
13.3080 12.863
13.3232 12.743
13.3384 12.896
13.3535 12.912
13.3687 12.937
13.3839 12.849
13.3991 13.063
13.4142 13.270
13.4294 13.195
13.4446 12.968
13.4598 12.694
13.4749 12.687
13.4901 12.442
13.5053 12.314
13.5205 12.369
13.5356 12.469
13.5508 12.558
13.5660 12.485
13.5812 12.363
13.5963 12.192
13.6115 12.198
13.6267 12.186
13.6419 12.138
13.6570 12.155
13.6722 12.250
13.6874 12.075
13.7026 12.085
13.7177 12.053
13.7329 12.099
13.7481 11.986
13.7633 12.187
13.7784 12.371
13.7936 12.185
13.8088 12.138
13.8239 12.013
13.8391 12.198
13.8543 12.262
13.8695 12.047
13.8846 12.138
13.8998 11.855
13.9150 11.975
13.9302 11.956
13.9453 11.868
13.9605 11.679
13.9757 11.599
13.9909 11.762
14.0060 11.556
14.0212 11.637
14.0364 11.581
14.0516 11.791
14.0667 11.715
14.0819 11.532
14.0971 11.514
14.1123 11.190
14.1274 11.499
14.1426 11.644
14.1578 11.518
14.1730 11.753
14.1881 11.472
14.2033 11.180
14.2185 11.520
14.2337 11.317
14.2488 11.538
14.2640 11.606
14.2792 11.543
14.2944 11.898
14.3095 11.922
14.3247 12.136
14.3399 12.276
14.3551 12.266
14.3702 12.452
14.3854 12.737
14.4006 13.339
14.4158 13.370
14.4309 13.293
14.4461 13.264
14.4613 12.634
14.4765 12.417
14.4916 12.388
14.5068 12.302
14.5220 11.984
14.5372 11.540
14.5523 11.445
14.5675 11.503
14.5827 11.204
14.5979 10.972
14.6130 10.995
14.6282 10.888
14.6434 10.866
14.6586 10.834
14.6737 10.738
14.6889 10.578
14.7041 10.715
14.7193 10.530
14.7344 10.737
14.7496 10.697
14.7648 10.377
14.7800 10.581
14.7951 10.554
14.8103 10.481
14.8255 10.293
14.8407 10.480
14.8558 10.322
14.8710 10.172
14.8862 10.453
14.9014 10.264
14.9165 10.686
14.9317 10.700
14.9469 10.098
14.9621 10.327
14.9772 10.043
14.9924 10.517
15.0076 10.531
15.0228 10.221
15.0379 10.316
15.0531 10.526
15.0683 10.101
15.0835 10.222
15.0986 10.222
15.1138 10.476
15.1290 10.016
15.1442 10.305
15.1593 10.364
15.1745 10.293
15.1897 10.187
15.2049 10.065
15.2200 9.929
15.2352 10.257
15.2504 10.264
15.2656 9.894
15.2807 9.850
15.2959 9.636
15.3111 10.252
15.3263 10.049
15.3414 9.821
15.3566 10.142
15.3718 10.109
15.3870 10.170
15.4021 9.724
15.4173 9.963
15.4325 9.953
15.4477 10.100
15.4628 10.253
15.4780 10.176
15.4932 10.155
15.5084 10.046
15.5235 10.159
15.5387 10.083
15.5539 9.896
15.5691 9.924
15.5842 9.842
15.5994 9.802
15.6146 9.944
15.6298 9.952
15.6449 9.635
15.6601 9.784
15.6753 9.699
15.6905 9.557
15.7056 9.534
15.7208 9.824
15.7360 9.537
15.7512 9.773
15.7663 9.741
15.7815 9.534
15.7967 9.516
15.8119 9.811
15.8270 9.846
15.8422 9.921
15.8574 9.821
15.8726 9.688
15.8877 9.574
15.9029 9.595
15.9181 9.570
15.9333 9.430
15.9484 9.565
15.9636 9.315
15.9788 9.705
15.9940 9.454
16.0091 9.616
16.0243 9.481
16.0395 9.750
16.0547 9.550
16.0698 9.496
16.0850 9.462
16.1002 9.705
16.1154 9.456
16.1305 9.572
16.1457 9.426
16.1609 9.466
16.1761 9.560
16.1912 9.616
16.2064 9.832
16.2216 9.729
16.2368 9.687
16.2519 9.708
16.2671 9.934
16.2823 9.808
16.2975 9.627
16.3126 9.937
16.3278 9.971
16.3430 9.890
16.3582 9.881
16.3733 9.760
16.3885 9.842
16.4037 10.044
16.4189 9.917
16.4340 9.824
16.4492 9.668
16.4644 9.622
16.4796 9.509
16.4947 9.516
16.5099 9.727
16.5251 9.652
16.5403 9.570
16.5554 9.338
16.5706 9.477
16.5858 9.430
16.6010 9.501
16.6161 9.637
16.6313 9.647
16.6465 9.725
16.6617 9.680
16.6768 9.732
16.6920 9.632
16.7072 9.742
16.7224 9.793
16.7375 9.807
16.7527 9.923
16.7679 9.776
16.7831 9.763
16.7982 9.794
16.8134 9.842
16.8286 9.938
16.8438 9.911
16.8589 10.009
16.8741 9.971
16.8893 9.859
16.9045 9.672
16.9196 9.686
16.9348 9.869
16.9500 9.866
16.9652 9.794
16.9803 9.889
16.9955 10.212
17.0107 9.938
17.0259 9.736
17.0410 9.803
17.0562 9.738
17.0714 9.844
17.0866 10.014
17.1017 10.134
17.1169 10.511
17.1321 11.060
17.1473 11.269
17.1624 11.594
17.1776 12.039
17.1928 12.984
17.2080 14.176
17.2231 15.089
17.2383 16.290
17.2535 17.560
17.2687 18.191
17.2838 18.306
17.2990 17.882
17.3142 16.843
17.3294 15.916
17.3445 15.592
17.3597 15.816
17.3749 15.941
17.3901 15.399
17.4052 14.115
17.4204 13.010
17.4356 12.390
17.4508 11.876
17.4659 11.556
17.4811 11.382
17.4963 11.312
17.5115 11.195
17.5266 11.020
17.5418 10.907
17.5570 10.812
17.5722 10.801
17.5873 10.878
17.6025 10.898
17.6177 11.153
17.6329 11.207
17.6480 11.108
17.6632 11.316
17.6784 11.862
17.6936 12.201
17.7087 12.229
17.7239 11.898
17.7391 11.426
17.7543 11.437
17.7694 11.346
17.7846 11.414
17.7998 11.161
17.8150 11.014
17.8301 10.913
17.8453 10.558
17.8605 10.313
17.8757 10.224
17.8908 10.478
17.9060 10.572
17.9212 10.399
17.9364 10.288
17.9515 10.308
17.9667 10.343
17.9819 10.458
17.9971 10.233
18.0122 10.177
18.0274 10.099
18.0426 10.126
18.0578 10.121
18.0729 10.132
18.0881 10.195
18.1033 10.225
18.1185 10.338
18.1336 10.157
18.1488 9.930
18.1640 10.029
18.1792 10.067
18.1943 9.851
18.2095 9.698
18.2247 9.978
18.2399 9.763
18.2550 9.737
18.2702 9.815
18.2854 9.763
18.3006 9.837
18.3157 9.822
18.3309 9.673
18.3461 9.611
18.3613 9.709
18.3764 9.817
18.3916 9.962
18.4068 9.882
18.4220 9.778
18.4371 9.772
18.4523 9.924
18.4675 9.786
18.4827 9.686
18.4978 9.869
18.5130 9.912
18.5282 9.940
18.5434 9.824
18.5585 9.715
18.5737 9.735
18.5889 9.651
18.6041 9.639
18.6192 9.675
18.6344 9.684
18.6496 9.732
18.6648 9.561
18.6799 9.836
18.6951 9.920
18.7103 9.821
18.7255 9.654
18.7406 9.706
18.7558 9.775
18.7710 9.899
18.7862 9.846
18.8013 9.780
18.8165 9.612
18.8317 9.611
18.8469 9.659
18.8620 9.789
18.8772 9.949
18.8924 9.902
18.9076 9.828
18.9227 9.901
18.9379 9.941
18.9531 9.873
18.9683 9.943
18.9834 10.086
18.9986 10.199
19.0138 9.945
19.0290 10.110
19.0441 10.309
19.0593 10.248
19.0745 10.123
19.0897 10.341
19.1048 10.214
19.1200 9.966
19.1352 10.327
19.1504 10.329
19.1655 10.427
19.1807 10.611
19.1959 10.561
19.2111 10.551
19.2262 10.582
19.2414 10.619
19.2566 10.698
19.2718 10.855
19.2869 11.024
19.3021 10.983
19.3173 10.989
19.3325 11.079
19.3476 11.163
19.3628 11.106
19.3780 10.914
19.3932 11.214
19.4083 11.432
19.4235 11.328
19.4387 11.302
19.4539 11.162
19.4690 11.190
19.4842 11.255
19.4994 11.349
19.5146 11.401
19.5297 11.348
19.5449 11.283
19.5601 11.303
19.5753 11.536
19.5904 11.693
19.6056 11.566
19.6208 11.592
19.6360 11.546
19.6511 11.441
19.6663 11.566
19.6815 11.557
19.6967 11.612
19.7118 11.791
19.7270 11.696
19.7422 11.526
19.7574 11.633
19.7725 11.888
19.7877 11.917
19.8029 11.919
19.8180 12.253
19.8332 12.383
19.8484 12.064
19.8636 12.220
19.8787 12.615
19.8939 12.727
19.9091 12.910
19.9243 13.308
19.9394 13.552
19.9546 13.987
19.9698 14.332
19.9850 14.307
20.0001 14.260
20.0153 14.287
20.0305 14.103
20.0457 13.691
20.0608 13.689
20.0760 13.933
20.0912 13.928
20.1064 13.755
20.1215 13.533
20.1367 13.028
20.1519 12.644
20.1671 12.643
20.1822 12.760
20.1974 12.867
20.2126 12.892
20.2278 12.799
20.2429 12.584
20.2581 12.342
20.2733 12.246
20.2885 12.105
20.3036 11.923
20.3188 11.796
20.3340 11.813
20.3492 12.242
20.3643 11.985
20.3795 11.755
20.3947 11.830
20.4099 11.778
20.4250 12.031
20.4402 12.019
20.4554 12.221
20.4706 12.111
20.4857 11.955
20.5009 11.767
20.5161 11.955
20.5313 11.757
20.5464 11.390
20.5616 11.579
20.5768 11.637
20.5920 11.200
20.6071 11.277
20.6223 11.154
20.6375 10.937
20.6527 10.727
20.6678 10.764
20.6830 11.048
20.6982 10.768
20.7134 10.290
20.7285 10.399
20.7437 10.456
20.7589 10.533
20.7741 10.483
20.7892 10.350
20.8044 10.239
20.8196 10.488
20.8348 10.395
20.8499 10.302
20.8651 10.368
20.8803 10.389
20.8955 10.443
20.9106 10.071
20.9258 10.010
20.9410 10.046
20.9562 9.871
20.9713 9.849
20.9865 10.099
21.0017 9.904
21.0169 9.899
21.0320 10.290
21.0472 9.621
21.0624 9.833
21.0776 10.225
21.0927 9.807
21.1079 9.847
21.1231 9.909
21.1383 9.776
21.1534 9.587
21.1686 9.547
21.1838 9.776
21.1990 9.771
21.2141 9.849
21.2293 9.571
21.2445 9.665
21.2597 9.830
21.2748 9.420
21.2900 9.778
21.3052 9.762
21.3204 9.778
21.3355 9.698
21.3507 9.092
21.3659 9.554
21.3811 9.530
21.3962 9.360
21.4114 9.545
21.4266 9.307
21.4418 9.506
21.4569 9.293
21.4721 9.361
21.4873 9.438
21.5025 9.268
21.5176 9.084
21.5328 9.240
21.5480 8.975
21.5632 9.267
21.5783 8.952
21.5935 9.263
21.6087 9.380
21.6239 9.076
21.6390 9.020
21.6542 9.044
21.6694 9.086
21.6846 9.477
21.6997 9.336
21.7149 9.193
21.7301 9.261
21.7453 8.939
21.7604 8.949
21.7756 9.107
21.7908 9.221
21.8060 9.242
21.8211 9.002
21.8363 8.978
21.8515 9.174
21.8667 9.093
21.8818 9.074
21.8970 8.943
21.9122 9.065
21.9274 9.096
21.9425 8.941
21.9577 8.719
21.9729 8.719
21.9881 9.032
22.0032 8.986
22.0184 8.753
22.0336 8.768
22.0488 8.740
22.0639 8.799
22.0791 8.747
22.0943 8.680
22.1095 8.507
22.1246 8.582
22.1398 8.669
22.1550 8.660
22.1702 8.646
22.1853 8.683
22.2005 8.866
22.2157 8.819
22.2309 8.551
22.2460 8.274
22.2612 8.384
22.2764 8.537
22.2916 8.476
22.3067 8.492
22.3219 8.542
22.3371 8.564
22.3523 8.569
22.3674 8.333
22.3826 8.387
22.3978 8.449
22.4130 8.599
22.4281 8.545
22.4433 8.236
22.4585 8.429
22.4737 8.759
22.4888 8.240
22.5040 8.262
22.5192 8.318
22.5344 8.229
22.5495 8.386
22.5647 8.381
22.5799 8.740
22.5951 8.464
22.6102 8.031
22.6254 8.423
22.6406 8.539
22.6558 8.416
22.6709 8.238
22.6861 8.272
22.7013 7.950
22.7165 8.084
22.7316 6.550
