'Id: "" Comment: "" Operator: "Lab Manager" Anode: "Mo" Scantype: "Still (Eiger2R_500K (1D mode))" TimePerStep: "300" X: "11.8" Y: "9.4" Z: "11.284" 
7.2532 18.588
7.2684 19.003
7.2836 19.051
7.2987 19.384
7.3139 19.241
7.3291 19.030
7.3443 19.357
7.3594 19.501
7.3746 19.136
7.3898 19.314
7.4050 19.168
7.4201 19.376
7.4353 19.419
7.4505 19.241
7.4657 19.357
7.4808 19.176
7.4960 19.363
7.5112 19.838
7.5264 19.792
7.5415 19.618
7.5567 19.655
7.5719 19.747
7.5871 20.052
7.6022 20.172
7.6174 20.042
7.6326 20.034
7.6478 20.060
7.6629 20.413
7.6781 20.058
7.6933 20.098
7.7085 20.402
7.7236 20.330
7.7388 20.475
7.7540 20.311
7.7692 20.405
7.7843 20.547
7.7995 20.449
7.8147 20.718
7.8299 20.648
7.8450 20.378
7.8602 20.685
7.8754 20.844
7.8905 20.902
7.9057 20.865
7.9209 20.813
7.9361 20.809
7.9512 20.659
7.9664 20.582
7.9816 20.697
7.9968 20.540
8.0119 20.443
8.0271 20.885
8.0423 21.116
8.0575 21.009
8.0726 20.968
8.0878 21.037
8.1030 21.140
8.1182 21.090
8.1333 20.903
8.1485 21.293
8.1637 21.182
8.1789 21.045
8.1940 21.437
8.2092 21.500
8.2244 21.706
8.2396 21.311
8.2547 21.373
8.2699 21.741
8.2851 21.435
8.3003 21.418
8.3154 21.787
8.3306 21.278
8.3458 21.737
8.3610 22.017
8.3761 22.214
8.3913 21.378
8.4065 21.290
8.4217 21.241
8.4368 21.800
8.4520 21.669
8.4672 21.727
8.4824 21.732
8.4975 21.863
8.5127 21.653
8.5279 21.948
8.5431 22.304
8.5582 21.863
8.5734 21.584
8.5886 21.946
8.6038 21.650
8.6189 21.857
8.6341 22.171
8.6493 22.056
8.6645 22.275
8.6796 21.643
8.6948 21.982
8.7100 22.160
8.7252 22.354
8.7403 21.856
8.7555 22.206
8.7707 22.517
8.7859 22.771
8.8010 22.526
8.8162 22.240
8.8314 22.960
8.8466 22.859
8.8617 22.491
8.8769 22.356
8.8921 23.053
8.9073 22.599
8.9224 22.691
8.9376 22.652
8.9528 22.770
8.9680 22.691
8.9831 22.964
8.9983 22.537
9.0135 22.546
9.0287 22.706
9.0438 22.721
9.0590 22.302
9.0742 22.356
9.0894 22.273
9.1045 22.621
9.1197 22.844
9.1349 22.393
9.1501 22.937
9.1652 23.179
9.1804 22.549
9.1956 22.680
9.2108 22.710
9.2259 22.454
9.2411 23.048
9.2563 23.004
9.2715 22.871
9.2866 22.475
9.3018 22.529
9.3170 22.865
9.3322 22.664
9.3473 22.596
9.3625 23.134
9.3777 23.134
9.3929 23.212
9.4080 23.200
9.4232 22.670
9.4384 22.681
9.4536 22.850
9.4687 22.726
9.4839 22.862
9.4991 22.956
9.5143 23.226
9.5294 23.121
9.5446 22.629
9.5598 22.709
9.5750 22.879
9.5901 22.828
9.6053 22.926
9.6205 23.415
9.6357 23.785
9.6508 23.655
9.6660 23.982
9.6812 24.036
9.6964 23.649
9.7115 23.480
9.7267 23.515
9.7419 23.917
9.7571 24.106
9.7722 23.776
9.7874 23.452
9.8026 23.569
9.8178 23.455
9.8329 23.393
9.8481 23.538
9.8633 23.211
9.8785 23.072
9.8936 22.826
9.9088 22.926
9.9240 23.171
9.9392 22.999
9.9543 22.673
9.9695 22.844
9.9847 23.249
9.9999 23.284
10.0150 22.864
10.0302 22.927
10.0454 23.014
10.0606 22.927
10.0757 23.151
10.0909 23.247
10.1061 23.451
10.1213 23.439
10.1364 23.057
10.1516 23.138
10.1668 23.267
10.1820 23.131
10.1971 23.166
10.2123 23.349
10.2275 23.173
10.2427 22.919
10.2578 22.885
10.2730 22.647
10.2882 22.694
10.3034 22.662
10.3185 22.489
10.3337 22.537
10.3489 22.356
10.3641 22.544
10.3792 22.524
10.3944 22.510
10.4096 22.551
10.4248 22.518
10.4399 22.560
10.4551 22.482
10.4703 22.256
10.4855 22.468
10.5006 22.498
10.5158 22.710
10.5310 22.439
10.5462 22.167
10.5613 22.185
10.5765 22.438
10.5917 22.484
10.6069 22.659
10.6220 22.665
10.6372 22.483
10.6524 22.467
10.6676 22.399
10.6827 22.135
10.6979 22.238
10.7131 22.541
10.7283 22.430
10.7434 22.265
10.7586 22.668
10.7738 22.543
10.7890 22.347
10.8041 22.185
10.8193 22.476
10.8345 22.240
10.8497 22.121
10.8648 21.985
10.8800 21.917
10.8952 22.035
10.9104 22.299
10.9255 21.995
10.9407 21.943
10.9559 22.076
10.9711 21.803
10.9862 21.944
11.0014 21.782
11.0166 21.665
11.0318 22.223
11.0469 22.060
11.0621 21.887
11.0773 21.755
11.0925 21.828
11.1076 21.668
11.1228 21.247
11.1380 21.610
11.1532 21.583
11.1683 21.676
11.1835 21.688
11.1987 21.716
11.2139 21.936
11.2290 21.581
11.2442 21.832
11.2594 21.559
11.2746 21.754
11.2897 21.164
11.3049 21.190
11.3201 21.541
11.3353 21.249
11.3504 21.617
11.3656 21.389
11.3808 21.007
11.3960 21.214
11.4111 21.112
11.4263 21.176
11.4415 20.822
11.4567 20.940
11.4718 20.595
11.4870 21.123
11.5022 21.451
11.5174 20.788
11.5325 20.794
11.5477 20.638
11.5629 20.670
11.5781 20.847
11.5932 20.949
11.6084 20.865
11.6236 20.470
11.6388 20.537
11.6539 20.706
11.6691 20.620
11.6843 20.618
11.6995 20.599
11.7146 20.049
11.7298 20.561
11.7450 20.476
11.7602 20.376
11.7753 20.156
11.7905 20.050
11.8057 20.179
11.8209 19.909
11.8360 19.668
11.8512 19.751
11.8664 19.889
11.8816 19.659
11.8967 19.822
11.9119 19.768
11.9271 19.655
11.9423 19.580
11.9574 19.546
11.9726 19.340
11.9878 19.526
12.0030 19.417
12.0181 19.088
12.0333 19.132
12.0485 19.019
12.0637 18.747
12.0788 18.823
12.0940 18.528
12.1092 18.777
12.1244 19.197
12.1395 18.755
12.1547 18.277
12.1699 18.456
12.1851 18.231
12.2002 17.979
12.2154 18.017
12.2306 17.923
12.2458 17.991
12.2609 17.939
12.2761 17.567
12.2913 17.500
12.3065 17.438
12.3216 17.447
12.3368 17.257
12.3520 17.268
12.3672 17.294
12.3823 17.445
12.3975 17.320
12.4127 17.108
12.4279 16.970
12.4430 17.007
12.4582 17.232
12.4734 17.026
12.4886 16.763
12.5037 16.501
12.5189 16.473
12.5341 16.324
12.5493 16.286
12.5644 16.314
12.5796 16.327
12.5948 16.216
12.6100 16.102
12.6251 16.090
12.6403 15.990
12.6555 16.192
12.6707 15.932
12.6858 15.648
12.7010 15.622
12.7162 15.643
12.7314 15.596
12.7465 15.514
12.7617 15.374
12.7769 15.104
12.7921 14.893
12.8072 15.066
12.8224 15.109
12.8376 14.928
12.8528 14.864
12.8679 14.745
12.8831 14.815
12.8983 15.046
12.9135 14.833
12.9286 14.296
12.9438 14.370
12.9590 14.535
12.9742 14.511
12.9893 14.330
13.0045 14.147
13.0197 14.098
13.0349 13.999
13.0500 14.135
13.0652 14.025
13.0804 13.791
13.0956 13.863
13.1107 13.929
13.1259 13.749
13.1411 13.567
13.1563 13.629
13.1714 13.484
13.1866 13.330
13.2018 13.352
13.2170 13.331
13.2321 13.508
13.2473 13.372
13.2625 13.163
13.2777 13.374
13.2928 13.462
13.3080 13.366
13.3232 13.270
13.3384 13.057
13.3535 12.796
13.3687 12.979
13.3839 13.016
13.3991 12.813
13.4142 12.817
13.4294 12.981
13.4446 12.984
13.4598 12.744
13.4749 12.757
13.4901 12.589
13.5053 12.303
13.5205 12.353
13.5356 12.494
13.5508 12.445
13.5660 12.322
13.5812 12.219
13.5963 12.225
13.6115 12.390
13.6267 12.285
13.6419 12.423
13.6570 12.162
13.6722 11.938
13.6874 11.853
13.7026 11.992
13.7177 12.250
13.7329 11.986
13.7481 11.943
13.7633 12.086
13.7784 12.065
13.7936 12.194
13.8088 12.473
13.8239 12.389
13.8391 12.506
13.8543 12.493
13.8695 12.589
13.8846 12.383
13.8998 12.228
13.9150 12.445
13.9302 12.606
13.9453 12.707
13.9605 12.316
13.9757 12.066
13.9909 11.483
14.0060 11.810
14.0212 11.683
14.0364 11.643
14.0516 11.549
14.0667 11.290
14.0819 11.500
14.0971 11.445
14.1123 11.819
14.1274 11.643
14.1426 12.022
14.1578 11.785
14.1730 11.562
14.1881 11.756
14.2033 11.883
14.2185 11.673
14.2337 11.615
14.2488 11.878
14.2640 11.595
14.2792 11.650
14.2944 11.801
14.3095 12.004
14.3247 12.234
14.3399 12.442
14.3551 12.431
14.3702 12.516
14.3854 12.863
14.4006 13.013
14.4158 12.903
14.4309 12.535
14.4461 12.546
14.4613 12.482
14.4765 12.521
14.4916 12.306
14.5068 11.934
14.5220 11.436
14.5372 11.407
14.5523 11.322
14.5675 11.042
14.5827 10.972
14.5979 10.996
14.6130 10.998
14.6282 10.778
14.6434 10.705
14.6586 10.982
14.6737 10.599
14.6889 10.905
14.7041 10.601
14.7193 10.838
14.7344 10.639
14.7496 10.558
14.7648 10.578
14.7800 10.700
14.7951 10.365
14.8103 10.398
14.8255 10.732
14.8407 10.535
14.8558 10.579
14.8710 10.460
14.8862 10.538
14.9014 10.436
14.9165 10.634
14.9317 10.564
14.9469 10.356
14.9621 10.552
14.9772 10.262
14.9924 10.148
15.0076 10.323
15.0228 10.403
15.0379 10.212
15.0531 10.409
15.0683 10.067
15.0835 10.185
15.0986 10.293
15.1138 10.459
15.1290 10.643
15.1442 10.269
15.1593 10.239
15.1745 10.234
15.1897 10.221
15.2049 10.069
15.2200 10.260
15.2352 10.291
15.2504 9.974
15.2656 10.226
15.2807 10.016
15.2959 10.222
15.3111 10.154
15.3263 9.972
15.3414 10.336
15.3566 10.202
15.3718 10.101
15.3870 9.729
15.4021 10.097
15.4173 10.236
15.4325 9.999
15.4477 9.752
15.4628 10.208
15.4780 10.293
15.4932 10.221
15.5084 10.070
15.5235 9.940
15.5387 9.889
15.5539 10.019
15.5691 9.670
15.5842 9.699
15.5994 9.967
15.6146 9.929
15.6298 9.957
15.6449 9.818
15.6601 9.718
15.6753 9.815
15.6905 9.448
15.7056 9.519
15.7208 9.530
15.7360 9.503
15.7512 9.591
15.7663 9.438
15.7815 9.612
15.7967 9.752
15.8119 9.567
15.8270 9.743
15.8422 9.722
15.8574 9.610
15.8726 9.546
15.8877 9.724
15.9029 9.621
15.9181 9.365
15.9333 9.477
15.9484 9.701
15.9636 9.669
15.9788 9.591
15.9940 9.749
16.0091 9.496
16.0243 9.642
16.0395 9.548
16.0547 9.421
16.0698 9.524
16.0850 9.363
16.1002 9.485
16.1154 9.265
16.1305 9.374
16.1457 9.512
16.1609 9.405
16.1761 9.638
16.1912 9.411
16.2064 9.764
16.2216 9.678
16.2368 9.708
16.2519 9.775
16.2671 9.875
16.2823 9.751
16.2975 9.664
16.3126 9.697
16.3278 9.517
16.3430 9.481
16.3582 9.834
16.3733 9.833
16.3885 9.611
16.4037 9.691
16.4189 9.702
16.4340 9.564
16.4492 9.677
16.4644 9.778
16.4796 9.543
16.4947 9.479
16.5099 9.672
16.5251 9.481
16.5403 9.422
16.5554 9.457
16.5706 9.530
16.5858 9.480
16.6010 9.401
16.6161 9.536
16.6313 9.542
16.6465 9.500
16.6617 9.736
16.6768 9.828
16.6920 9.790
16.7072 9.925
16.7224 9.929
16.7375 9.947
16.7527 9.792
16.7679 9.812
16.7831 9.812
16.7982 9.707
16.8134 9.834
16.8286 9.589
16.8438 9.688
16.8589 9.848
16.8741 9.847
16.8893 9.898
16.9045 9.737
16.9196 9.734
16.9348 9.707
16.9500 9.570
16.9652 9.635
16.9803 9.823
16.9955 9.744
17.0107 9.497
17.0259 9.686
17.0410 10.021
17.0562 10.080
17.0714 9.892
17.0866 10.165
17.1017 10.530
17.1169 10.455
17.1321 10.594
17.1473 11.143
17.1624 11.600
17.1776 12.284
17.1928 13.095
17.2080 13.956
17.2231 15.024
17.2383 16.318
17.2535 17.675
17.2687 18.580
17.2838 18.667
17.2990 17.955
17.3142 16.933
17.3294 16.403
17.3445 16.264
17.3597 16.235
17.3749 15.972
17.3901 15.205
17.4052 14.218
17.4204 13.077
17.4356 12.379
17.4508 12.014
17.4659 11.793
17.4811 11.752
17.4963 11.449
17.5115 11.270
17.5266 11.117
17.5418 11.025
17.5570 10.863
17.5722 10.662
17.5873 11.024
17.6025 11.107
17.6177 10.998
17.6329 11.111
17.6480 11.300
17.6632 11.416
17.6784 11.411
17.6936 11.436
17.7087 11.439
17.7239 11.358
17.7391 11.372
17.7543 11.300
17.7694 11.028
17.7846 10.839
17.7998 10.735
17.8150 10.717
17.8301 10.512
17.8453 10.364
17.8605 10.351
17.8757 10.214
17.8908 10.392
17.9060 10.414
17.9212 10.235
17.9364 10.104
17.9515 9.983
17.9667 9.998
17.9819 10.226
17.9971 10.223
18.0122 10.265
18.0274 10.300
18.0426 10.082
18.0578 10.167
18.0729 10.161
18.0881 10.071
18.1033 10.169
18.1185 10.083
18.1336 9.993
18.1488 9.824
18.1640 9.903
18.1792 10.122
18.1943 10.047
18.2095 9.800
18.2247 10.048
18.2399 10.095
18.2550 9.963
18.2702 9.803
18.2854 9.792
18.3006 9.823
18.3157 9.759
18.3309 9.872
18.3461 9.904
18.3613 9.673
18.3764 9.699
18.3916 9.671
18.4068 9.769
18.4220 9.827
18.4371 9.788
18.4523 9.889
18.4675 9.855
18.4827 9.618
18.4978 9.749
18.5130 9.910
18.5282 9.813
18.5434 9.593
18.5585 9.819
18.5737 9.934
18.5889 9.677
18.6041 9.635
18.6192 9.756
18.6344 9.901
18.6496 10.009
18.6648 9.805
18.6799 9.755
18.6951 9.726
18.7103 9.797
18.7255 9.718
18.7406 9.746
18.7558 9.796
18.7710 9.634
18.7862 9.634
18.8013 9.878
18.8165 9.999
18.8317 9.909
18.8469 9.705
18.8620 9.895
18.8772 10.174
18.8924 10.162
18.9076 9.957
18.9227 10.004
18.9379 10.027
18.9531 10.026
18.9683 10.057
18.9834 9.849
18.9986 10.083
19.0138 10.202
19.0290 10.135
19.0441 10.239
19.0593 10.165
19.0745 10.261
19.0897 10.347
19.1048 10.400
19.1200 10.363
19.1352 10.448
19.1504 10.591
19.1655 10.705
19.1807 10.687
19.1959 10.509
19.2111 10.628
19.2262 10.677
19.2414 10.771
19.2566 10.786
19.2718 10.778
19.2869 10.821
19.3021 10.862
19.3173 10.886
19.3325 11.055
19.3476 11.252
19.3628 11.293
19.3780 11.356
19.3932 11.330
19.4083 11.333
19.4235 11.354
19.4387 11.130
19.4539 11.218
19.4690 11.392
19.4842 11.427
19.4994 11.461
19.5146 11.617
19.5297 11.616
19.5449 11.471
19.5601 11.586
19.5753 11.406
19.5904 11.520
19.6056 11.825
19.6208 11.779
19.6360 11.627
19.6511 11.620
19.6663 11.724
19.6815 11.679
19.6967 11.557
19.7118 11.645
19.7270 11.833
19.7422 11.742
19.7574 11.564
19.7725 11.606
19.7877 11.763
19.8029 12.095
19.8180 12.259
19.8332 12.162
19.8484 12.123
19.8636 12.378
19.8787 12.634
19.8939 12.812
19.9091 13.156
19.9243 13.544
19.9394 14.016
19.9546 14.338
19.9698 14.574
19.9850 14.816
20.0001 14.762
20.0153 14.478
20.0305 14.289
20.0457 14.158
20.0608 13.832
20.0760 13.835
20.0912 13.966
20.1064 14.003
20.1215 13.837
20.1367 13.570
20.1519 13.348
20.1671 13.324
20.1822 13.185
20.1974 12.748
20.2126 12.891
20.2278 12.867
20.2429 12.668
20.2581 12.531
20.2733 12.281
20.2885 12.169
20.3036 11.915
20.3188 12.053
20.3340 12.240
20.3492 12.202
20.3643 12.136
20.3795 11.982
20.3947 11.856
20.4099 11.936
20.4250 11.787
20.4402 11.830
20.4554 11.739
20.4706 11.576
20.4857 11.501
20.5009 11.787
20.5161 11.459
20.5313 11.421
20.5464 11.720
20.5616 11.487
20.5768 11.547
20.5920 11.444
20.6071 11.238
20.6223 11.021
20.6375 11.038
20.6527 11.001
20.6678 11.026
20.6830 10.864
20.6982 10.767
20.7134 10.317
20.7285 10.711
20.7437 10.712
20.7589 10.573
20.7741 10.459
20.7892 10.621
20.8044 10.669
20.8196 10.410
20.8348 10.317
20.8499 10.277
20.8651 10.436
20.8803 10.234
20.8955 10.242
20.9106 10.208
20.9258 10.528
20.9410 10.327
20.9562 10.299
20.9713 10.301
20.9865 9.930
21.0017 10.383
21.0169 10.066
21.0320 9.776
21.0472 9.825
21.0624 9.826
21.0776 10.127
21.0927 10.010
21.1079 9.735
21.1231 9.911
21.1383 9.693
21.1534 9.932
21.1686 10.113
21.1838 10.000
21.1990 9.697
21.2141 9.845
21.2293 9.635
21.2445 9.815
21.2597 9.758
21.2748 9.771
21.2900 9.584
21.3052 9.827
21.3204 9.732
21.3355 9.677
21.3507 9.363
21.3659 9.472
21.3811 9.413
21.3962 9.345
21.4114 9.555
21.4266 9.576
21.4418 9.419
21.4569 9.240
21.4721 9.623
21.4873 9.631
21.5025 9.479
21.5176 9.312
21.5328 9.235
21.5480 9.356
21.5632 9.393
21.5783 9.510
21.5935 9.389
21.6087 9.091
21.6239 9.086
21.6390 9.473
21.6542 9.186
21.6694 9.360
21.6846 9.182
21.6997 9.226
21.7149 9.203
21.7301 9.261
21.7453 9.573
21.7604 9.278
21.7756 9.108
21.7908 8.960
21.8060 9.139
21.8211 9.294
21.8363 9.227
21.8515 9.146
21.8667 9.249
21.8818 9.265
21.8970 9.046
21.9122 8.959
21.9274 8.973
21.9425 9.035
21.9577 8.945
21.9729 8.832
21.9881 8.785
22.0032 9.035
22.0184 9.141
22.0336 8.949
22.0488 8.816
22.0639 8.770
22.0791 8.725
22.0943 8.770
22.1095 8.763
22.1246 8.614
22.1398 8.694
22.1550 8.690
22.1702 8.789
22.1853 8.788
22.2005 8.783
22.2157 8.729
22.2309 8.838
22.2460 8.764
22.2612 8.607
22.2764 8.299
22.2916 8.445
22.3067 8.673
22.3219 8.445
22.3371 8.447
22.3523 8.387
22.3674 8.414
22.3826 8.381
22.3978 8.576
22.4130 8.432
22.4281 8.394
22.4433 8.627
22.4585 8.522
22.4737 8.743
22.4888 8.493
22.5040 8.559
22.5192 8.620
22.5344 8.325
22.5495 8.422
22.5647 8.654
22.5799 8.483
22.5951 8.530
22.6102 8.271
22.6254 8.370
22.6406 8.356
22.6558 8.261
22.6709 8.105
22.6861 7.934
22.7013 8.096
22.7165 8.002
22.7316 6.428
