'Id: "" Comment: "" Operator: "Lab Manager" Anode: "Mo" Scantype: "Still (Eiger2R_500K (1D mode))" TimePerStep: "300" X: "11.8" Y: "9.4" Z: "11.284" 
7.2532 19.249
7.2684 19.080
7.2836 18.926
7.2987 19.402
7.3139 19.289
7.3291 19.390
7.3443 19.631
7.3594 20.048
7.3746 20.037
7.3898 19.812
7.4050 19.605
7.4201 19.548
7.4353 19.562
7.4505 19.282
7.4657 19.757
7.4808 19.480
7.4960 19.697
7.5112 19.623
7.5264 19.520
7.5415 19.557
7.5567 19.682
7.5719 19.646
7.5871 19.822
7.6022 20.282
7.6174 20.025
7.6326 19.992
7.6478 20.321
7.6629 20.293
7.6781 20.665
7.6933 20.781
7.7085 20.808
7.7236 20.718
7.7388 20.517
7.7540 20.635
7.7692 20.611
7.7843 20.386
7.7995 20.570
7.8147 20.818
7.8299 20.971
7.8450 20.803
7.8602 20.887
7.8754 21.042
7.8905 21.074
7.9057 21.100
7.9209 21.014
7.9361 21.135
7.9512 21.183
7.9664 21.032
7.9816 21.040
7.9968 21.205
8.0119 21.405
8.0271 21.286
8.0423 21.338
8.0575 21.481
8.0726 21.623
8.0878 21.269
8.1030 21.259
8.1182 21.453
8.1333 21.745
8.1485 21.676
8.1637 21.568
8.1789 21.806
8.1940 22.015
8.2092 21.649
8.2244 21.704
8.2396 21.665
8.2547 21.599
8.2699 21.903
8.2851 21.552
8.3003 21.715
8.3154 21.861
8.3306 21.972
8.3458 21.542
8.3610 22.111
8.3761 22.511
8.3913 22.293
8.4065 22.183
8.4217 21.881
8.4368 21.769
8.4520 21.737
8.4672 22.288
8.4824 21.881
8.4975 21.803
8.5127 22.338
8.5279 22.212
8.5431 22.421
8.5582 22.050
8.5734 22.063
8.5886 22.525
8.6038 22.744
8.6189 22.611
8.6341 22.287
8.6493 22.300
8.6645 22.240
8.6796 22.426
8.6948 22.117
8.7100 22.759
8.7252 22.842
8.7403 22.529
8.7555 22.151
8.7707 22.461
8.7859 22.570
8.8010 22.622
8.8162 22.913
8.8314 22.811
8.8466 22.824
8.8617 22.497
8.8769 23.156
8.8921 23.160
8.9073 22.650
8.9224 22.337
8.9376 22.798
8.9528 22.255
8.9680 22.739
8.9831 22.803
8.9983 22.823
9.0135 22.879
9.0287 22.769
9.0438 22.502
9.0590 22.154
9.0742 22.420
9.0894 22.865
9.1045 22.853
9.1197 22.990
9.1349 23.189
9.1501 22.752
9.1652 22.947
9.1804 22.780
9.1956 23.184
9.2108 23.011
9.2259 22.772
9.2411 22.937
9.2563 23.087
9.2715 23.069
9.2866 23.118
9.3018 23.016
9.3170 22.886
9.3322 23.420
9.3473 23.398
9.3625 22.909
9.3777 23.231
9.3929 23.222
9.4080 22.595
9.4232 22.790
9.4384 22.913
9.4536 22.886
9.4687 23.451
9.4839 23.144
9.4991 23.179
9.5143 23.469
9.5294 23.142
9.5446 23.209
9.5598 23.511
9.5750 23.478
9.5901 23.582
9.6053 23.368
9.6205 23.280
9.6357 23.693
9.6508 23.788
9.6660 23.550
9.6812 23.784
9.6964 23.886
9.7115 24.014
9.7267 24.169
9.7419 24.269
9.7571 24.383
9.7722 24.400
9.7874 24.267
9.8026 23.983
9.8178 23.778
9.8329 23.833
9.8481 23.753
9.8633 23.627
9.8785 23.769
9.8936 23.981
9.9088 23.856
9.9240 23.810
9.9392 23.982
9.9543 23.825
9.9695 24.070
9.9847 23.664
9.9999 23.521
10.0150 23.788
10.0302 23.486
10.0454 23.461
10.0606 23.640
10.0757 23.698
10.0909 23.840
10.1061 23.876
10.1213 23.887
10.1364 23.980
10.1516 24.078
10.1668 24.060
10.1820 24.152
10.1971 24.244
10.2123 24.082
10.2275 23.816
10.2427 23.882
10.2578 23.950
10.2730 23.862
10.2882 23.767
10.3034 23.615
10.3185 23.359
10.3337 23.293
10.3489 23.006
10.3641 23.002
10.3792 23.169
10.3944 23.228
10.4096 23.400
10.4248 23.104
10.4399 22.887
10.4551 23.261
10.4703 23.092
10.4855 23.015
10.5006 22.960
10.5158 22.971
10.5310 22.726
10.5462 22.564
10.5613 22.385
10.5765 22.738
10.5917 23.024
10.6069 22.783
10.6220 22.651
10.6372 22.562
10.6524 22.597
10.6676 22.657
10.6827 22.457
10.6979 22.459
10.7131 22.650
10.7283 22.276
10.7434 22.560
10.7586 22.603
10.7738 22.342
10.7890 22.169
10.8041 22.632
10.8193 22.440
10.8345 22.747
10.8497 22.296
10.8648 22.342
10.8800 22.117
10.8952 22.169
10.9104 22.120
10.9255 22.136
10.9407 22.135
10.9559 22.153
10.9711 21.869
10.9862 22.088
11.0014 22.248
11.0166 22.310
11.0318 22.263
11.0469 22.179
11.0621 21.849
11.0773 21.896
11.0925 21.906
11.1076 21.624
11.1228 21.812
11.1380 21.880
11.1532 21.961
11.1683 21.835
11.1835 21.426
11.1987 21.908
11.2139 21.745
11.2290 21.731
11.2442 21.705
11.2594 21.385
11.2746 21.531
11.2897 21.815
11.3049 21.606
11.3201 21.280
11.3353 21.174
11.3504 21.515
11.3656 21.590
11.3808 21.588
11.3960 21.483
11.4111 21.418
11.4263 21.300
11.4415 21.246
11.4567 21.411
11.4718 21.161
11.4870 21.230
11.5022 21.333
11.5174 21.429
11.5325 21.311
11.5477 20.965
11.5629 20.548
11.5781 21.034
11.5932 21.103
11.6084 20.721
11.6236 20.309
11.6388 20.580
11.6539 20.533
11.6691 20.544
11.6843 20.633
11.6995 20.380
11.7146 20.346
11.7298 20.365
11.7450 20.214
11.7602 20.345
11.7753 20.121
11.7905 20.132
11.8057 20.233
11.8209 20.121
11.8360 20.038
11.8512 20.124
11.8664 20.115
11.8816 19.895
11.8967 19.571
11.9119 19.629
11.9271 19.789
11.9423 19.608
11.9574 19.440
11.9726 19.215
11.9878 18.978
12.0030 19.082
12.0181 19.253
12.0333 18.985
12.0485 19.257
12.0637 19.157
12.0788 18.692
12.0940 18.530
12.1092 18.648
12.1244 18.387
12.1395 18.319
12.1547 18.275
12.1699 18.018
12.1851 18.002
12.2002 18.301
12.2154 18.149
12.2306 17.996
12.2458 17.947
12.2609 17.862
12.2761 17.948
12.2913 17.837
12.3065 17.837
12.3216 17.921
12.3368 17.640
12.3520 17.400
12.3672 17.423
12.3823 17.413
12.3975 17.016
12.4127 16.870
12.4279 16.995
12.4430 17.083
12.4582 16.932
12.4734 16.716
12.4886 16.917
12.5037 16.705
12.5189 16.644
12.5341 16.690
12.5493 16.426
12.5644 16.216
12.5796 16.419
12.5948 16.419
12.6100 16.041
12.6251 15.970
12.6403 16.077
12.6555 15.890
12.6707 15.484
12.6858 15.420
12.7010 15.816
12.7162 15.686
12.7314 15.384
12.7465 15.283
12.7617 15.070
12.7769 15.245
12.7921 15.163
12.8072 15.098
12.8224 15.102
12.8376 14.865
12.8528 14.952
12.8679 14.870
12.8831 14.610
12.8983 14.586
12.9135 14.611
12.9286 14.627
12.9438 14.548
12.9590 14.324
12.9742 14.421
12.9893 14.474
13.0045 14.333
13.0197 14.049
13.0349 14.006
13.0500 14.306
13.0652 14.229
13.0804 13.900
13.0956 13.863
13.1107 13.949
13.1259 13.951
13.1411 13.778
13.1563 13.424
13.1714 13.199
13.1866 13.343
13.2018 13.412
13.2170 13.245
13.2321 13.366
13.2473 13.346
13.2625 13.121
13.2777 13.186
13.2928 13.223
13.3080 12.987
13.3232 12.881
13.3384 12.933
13.3535 13.071
13.3687 13.069
13.3839 12.895
13.3991 12.941
13.4142 12.996
13.4294 12.852
13.4446 12.592
13.4598 12.596
13.4749 12.665
13.4901 12.601
13.5053 12.417
13.5205 12.284
13.5356 12.346
13.5508 12.296
13.5660 12.419
13.5812 12.353
13.5963 12.112
13.6115 12.202
13.6267 12.336
13.6419 12.223
13.6570 12.151
13.6722 11.950
13.6874 11.831
13.7026 12.025
13.7177 12.314
13.7329 12.073
13.7481 11.766
13.7633 11.849
13.7784 11.920
13.7936 11.820
13.8088 12.010
13.8239 12.311
13.8391 12.315
13.8543 12.171
13.8695 12.111
13.8846 12.071
13.8998 12.173
13.9150 11.858
13.9302 11.629
13.9453 11.684
13.9605 11.765
13.9757 11.739
13.9909 11.680
14.0060 11.766
14.0212 11.584
14.0364 11.520
14.0516 11.261
14.0667 11.414
14.0819 11.362
14.0971 11.530
14.1123 11.602
14.1274 11.237
14.1426 11.214
14.1578 11.152
14.1730 11.392
14.1881 11.304
14.2033 11.433
14.2185 11.323
14.2337 11.183
14.2488 11.417
14.2640 11.441
14.2792 11.635
14.2944 11.329
14.3095 11.819
14.3247 12.191
14.3399 12.207
14.3551 12.343
14.3702 12.433
14.3854 12.812
14.4006 12.732
14.4158 13.475
14.4309 13.371
14.4461 13.114
14.4613 13.052
14.4765 13.492
14.4916 13.033
14.5068 12.874
14.5220 13.052
14.5372 13.275
14.5523 13.162
14.5675 12.477
14.5827 12.627
14.5979 12.426
14.6130 12.144
14.6282 12.018
14.6434 11.873
14.6586 12.038
14.6737 11.847
14.6889 11.427
14.7041 11.333
14.7193 11.494
14.7344 11.539
14.7496 11.110
14.7648 11.256
14.7800 11.195
14.7951 11.074
14.8103 10.786
14.8255 11.115
14.8407 11.201
14.8558 10.898
14.8710 10.867
14.8862 10.836
14.9014 10.979
14.9165 11.282
14.9317 10.940
14.9469 10.473
14.9621 10.817
14.9772 10.417
14.9924 11.022
15.0076 10.820
15.0228 10.260
15.0379 10.654
15.0531 10.547
15.0683 10.209
15.0835 10.506
15.0986 10.629
15.1138 10.322
15.1290 10.256
15.1442 10.364
15.1593 10.657
15.1745 10.599
15.1897 10.620
15.2049 10.721
15.2200 10.540
15.2352 10.352
15.2504 10.688
15.2656 10.109
15.2807 10.501
15.2959 10.365
15.3111 10.450
15.3263 10.563
15.3414 10.238
15.3566 10.306
15.3718 10.370
15.3870 10.168
15.4021 10.767
15.4173 10.253
15.4325 10.389
15.4477 10.603
15.4628 10.386
15.4780 10.466
15.4932 10.414
15.5084 10.465
15.5235 10.270
15.5387 10.462
15.5539 10.436
15.5691 9.881
15.5842 9.944
15.5994 10.132
15.6146 10.147
15.6298 10.378
15.6449 10.385
15.6601 10.105
15.6753 10.232
15.6905 9.792
15.7056 10.050
15.7208 9.752
15.7360 9.991
15.7512 10.378
15.7663 10.170
15.7815 10.006
15.7967 10.060
15.8119 10.051
15.8270 9.901
15.8422 9.752
15.8574 10.180
15.8726 10.033
15.8877 9.708
15.9029 9.686
15.9181 9.653
15.9333 10.199
15.9484 9.944
15.9636 9.999
15.9788 9.836
15.9940 9.884
16.0091 9.949
16.0243 9.855
16.0395 9.613
16.0547 9.602
16.0698 9.758
16.0850 9.410
16.1002 9.384
16.1154 9.346
16.1305 9.549
16.1457 9.840
16.1609 9.871
16.1761 9.871
16.1912 9.725
16.2064 9.735
16.2216 10.022
16.2368 10.059
16.2519 10.071
16.2671 9.885
16.2823 10.082
16.2975 10.178
16.3126 10.339
16.3278 10.038
16.3430 10.054
16.3582 10.215
16.3733 10.218
16.3885 10.331
16.4037 10.369
16.4189 10.378
16.4340 10.220
16.4492 10.179
16.4644 9.984
16.4796 9.846
16.4947 9.944
16.5099 9.942
16.5251 9.970
16.5403 10.102
16.5554 10.010
16.5706 9.687
16.5858 9.778
16.6010 9.668
16.6161 9.797
16.6313 9.831
16.6465 9.861
16.6617 9.931
16.6768 9.932
16.6920 9.722
16.7072 9.607
16.7224 9.885
16.7375 10.138
16.7527 10.062
16.7679 10.119
16.7831 10.211
16.7982 9.909
16.8134 9.860
16.8286 10.160
16.8438 10.049
16.8589 9.637
16.8741 9.733
16.8893 9.757
16.9045 9.858
16.9196 9.959
16.9348 9.884
16.9500 9.851
16.9652 10.021
16.9803 10.004
16.9955 9.910
17.0107 9.874
17.0259 9.968
17.0410 10.029
17.0562 9.997
17.0714 10.252
17.0866 10.456
17.1017 10.455
17.1169 10.634
17.1321 10.945
17.1473 11.208
17.1624 11.571
17.1776 12.165
17.1928 12.960
17.2080 13.825
17.2231 14.811
17.2383 15.870
17.2535 17.207
17.2687 18.387
17.2838 18.590
17.2990 18.011
17.3142 17.201
17.3294 16.255
17.3445 15.808
17.3597 15.743
17.3749 15.422
17.3901 14.834
17.4052 14.017
17.4204 13.267
17.4356 12.638
17.4508 12.060
17.4659 11.558
17.4811 11.365
17.4963 11.283
17.5115 10.922
17.5266 10.720
17.5418 10.837
17.5570 10.895
17.5722 10.937
17.5873 10.880
17.6025 10.841
17.6177 10.690
17.6329 10.578
17.6480 10.704
17.6632 10.815
17.6784 10.656
17.6936 10.467
17.7087 10.580
17.7239 10.682
17.7391 10.927
17.7543 10.862
17.7694 10.812
17.7846 10.970
17.7998 11.146
17.8150 11.433
17.8301 11.779
17.8453 11.928
17.8605 11.933
17.8757 11.813
17.8908 12.094
17.9060 11.987
17.9212 11.654
17.9364 11.652
17.9515 11.596
17.9667 11.550
17.9819 11.644
17.9971 11.444
18.0122 11.182
18.0274 10.821
18.0426 10.660
18.0578 10.476
18.0729 10.429
18.0881 10.447
18.1033 10.159
18.1185 10.046
18.1336 10.122
18.1488 10.116
18.1640 9.976
18.1792 9.984
18.1943 10.099
18.2095 10.117
18.2247 9.960
18.2399 9.749
18.2550 9.848
18.2702 9.851
18.2854 9.825
18.3006 9.863
18.3157 9.949
18.3309 10.090
18.3461 9.989
18.3613 9.982
18.3764 9.983
18.3916 10.005
18.4068 9.791
18.4220 9.682
18.4371 9.702
18.4523 9.957
18.4675 9.965
18.4827 10.130
18.4978 9.994
18.5130 9.903
18.5282 9.886
18.5434 9.851
18.5585 9.963
18.5737 9.968
18.5889 9.793
18.6041 9.815
18.6192 9.744
18.6344 9.713
18.6496 9.941
18.6648 9.801
18.6799 9.615
18.6951 9.635
18.7103 9.707
18.7255 10.084
18.7406 9.890
18.7558 9.653
18.7710 9.857
18.7862 9.812
18.8013 9.386
18.8165 9.396
18.8317 9.756
18.8469 9.731
18.8620 9.780
18.8772 9.941
18.8924 9.920
18.9076 9.865
18.9227 9.951
18.9379 9.827
18.9531 9.892
18.9683 9.978
18.9834 9.916
18.9986 9.953
19.0138 10.012
19.0290 10.171
19.0441 10.288
19.0593 10.305
19.0745 10.154
19.0897 10.304
19.1048 10.379
19.1200 10.247
19.1352 10.360
19.1504 10.416
19.1655 10.367
19.1807 10.346
19.1959 10.651
19.2111 10.965
19.2262 10.863
19.2414 10.844
19.2566 10.968
19.2718 11.009
19.2869 10.956
19.3021 10.936
19.3173 10.938
19.3325 11.089
19.3476 11.177
19.3628 11.167
19.3780 11.212
19.3932 11.373
19.4083 11.152
19.4235 11.068
19.4387 11.242
19.4539 11.469
19.4690 11.395
19.4842 11.339
19.4994 11.490
19.5146 11.448
19.5297 11.512
19.5449 11.571
19.5601 11.377
19.5753 11.576
19.5904 11.612
19.6056 11.642
19.6208 11.884
19.6360 11.738
19.6511 11.633
19.6663 11.668
19.6815 11.694
19.6967 11.848
19.7118 11.818
19.7270 11.707
19.7422 11.675
19.7574 11.676
19.7725 11.454
19.7877 11.435
19.8029 11.645
19.8180 11.738
19.8332 11.851
19.8484 12.079
19.8636 12.348
19.8787 12.641
19.8939 12.865
19.9091 12.987
19.9243 13.325
19.9394 13.622
19.9546 13.803
19.9698 14.135
19.9850 14.334
20.0001 14.480
20.0153 14.059
20.0305 13.976
20.0457 14.187
20.0608 13.708
20.0760 13.313
20.0912 13.448
20.1064 13.697
20.1215 13.459
20.1367 13.029
20.1519 13.123
20.1671 12.879
20.1822 12.800
20.1974 12.838
20.2126 12.844
20.2278 12.892
20.2429 12.754
20.2581 12.398
20.2733 12.065
20.2885 11.913
20.3036 11.628
20.3188 11.451
20.3340 11.662
20.3492 11.758
20.3643 11.496
20.3795 11.292
20.3947 11.079
20.4099 10.825
20.4250 10.986
20.4402 10.655
20.4554 10.838
20.4706 11.063
20.4857 11.082
20.5009 11.055
20.5161 11.157
20.5313 11.010
20.5464 10.924
20.5616 10.713
20.5768 10.670
20.5920 10.799
20.6071 10.624
20.6223 10.869
20.6375 10.926
20.6527 10.865
20.6678 10.694
20.6830 10.545
20.6982 10.767
20.7134 10.504
20.7285 10.473
20.7437 10.532
20.7589 10.699
20.7741 10.978
20.7892 10.618
20.8044 10.665
20.8196 10.722
20.8348 10.464
20.8499 10.348
20.8651 10.364
20.8803 10.577
20.8955 10.565
20.9106 10.529
20.9258 10.302
20.9410 10.370
20.9562 10.315
20.9713 10.425
20.9865 10.839
21.0017 10.314
21.0169 10.525
21.0320 10.333
21.0472 10.368
21.0624 10.394
21.0776 10.683
21.0927 9.969
21.1079 9.948
21.1231 10.355
21.1383 10.105
21.1534 10.128
21.1686 10.084
21.1838 9.712
21.1990 9.839
21.2141 9.596
21.2293 10.119
21.2445 9.486
21.2597 9.718
21.2748 9.618
21.2900 9.662
21.3052 9.585
21.3204 9.379
21.3355 9.425
21.3507 9.685
21.3659 9.747
21.3811 9.478
21.3962 9.606
21.4114 9.285
21.4266 9.538
21.4418 9.052
21.4569 9.512
21.4721 9.489
21.4873 9.387
21.5025 9.206
21.5176 9.203
21.5328 9.261
21.5480 9.382
21.5632 9.203
21.5783 9.314
21.5935 9.228
21.6087 9.109
21.6239 9.265
21.6390 9.183
21.6542 9.146
21.6694 9.147
21.6846 9.087
21.6997 9.163
21.7149 9.183
21.7301 9.058
21.7453 8.996
21.7604 9.007
21.7756 8.905
21.7908 9.022
21.8060 8.983
21.8211 8.901
21.8363 8.910
21.8515 8.946
21.8667 8.996
21.8818 9.006
21.8970 8.829
21.9122 8.883
21.9274 8.950
21.9425 9.121
21.9577 8.906
21.9729 8.821
21.9881 8.804
22.0032 8.725
22.0184 8.892
22.0336 8.938
22.0488 8.858
22.0639 8.690
22.0791 8.668
22.0943 8.666
22.1095 8.671
22.1246 8.921
22.1398 8.637
22.1550 8.406
22.1702 8.799
22.1853 8.758
22.2005 8.592
22.2157 8.544
22.2309 8.623
22.2460 8.619
22.2612 8.499
22.2764 8.388
22.2916 8.238
22.3067 8.475
22.3219 8.568
22.3371 8.601
22.3523 8.614
22.3674 8.801
22.3826 8.938
22.3978 8.387
22.4130 8.624
22.4281 8.624
22.4433 8.705
22.4585 8.582
22.4737 8.583
22.4888 8.394
22.5040 8.658
22.5192 8.566
22.5344 8.572
22.5495 8.403
22.5647 8.657
22.5799 8.366
22.5951 8.598
22.6102 8.262
22.6254 8.860
22.6406 8.428
22.6558 8.394
22.6709 8.445
22.6861 7.794
22.7013 8.186
22.7165 8.076
22.7316 6.366
