'Id: "" Comment: "" Operator: "Lab Manager" Anode: "Mo" Scantype: "Still (Eiger2R_500K (1D mode))" TimePerStep: "300" X: "11.8" Y: "9.4" Z: "11.284" 
7.2532 20.135
7.2684 18.989
7.2836 19.485
7.2987 19.758
7.3139 19.528
7.3291 19.748
7.3443 19.687
7.3594 19.925
7.3746 19.733
7.3898 20.176
7.4050 20.046
7.4201 19.636
7.4353 20.290
7.4505 20.290
7.4657 20.133
7.4808 20.131
7.4960 20.351
7.5112 19.940
7.5264 20.211
7.5415 20.479
7.5567 20.089
7.5719 20.185
7.5871 20.560
7.6022 20.426
7.6174 20.584
7.6326 20.715
7.6478 20.577
7.6629 20.672
7.6781 20.370
7.6933 20.381
7.7085 21.259
7.7236 21.067
7.7388 20.895
7.7540 20.897
7.7692 20.712
7.7843 20.998
7.7995 21.137
7.8147 21.063
7.8299 21.403
7.8450 21.236
7.8602 21.145
7.8754 21.093
7.8905 21.420
7.9057 21.242
7.9209 21.172
7.9361 21.336
7.9512 21.668
7.9664 21.548
7.9816 21.317
7.9968 21.753
8.0119 21.841
8.0271 21.682
8.0423 21.405
8.0575 21.724
8.0726 22.154
8.0878 22.103
8.1030 22.213
8.1182 22.472
8.1333 22.506
8.1485 22.031
8.1637 22.440
8.1789 22.390
8.1940 22.159
8.2092 22.690
8.2244 22.627
8.2396 22.473
8.2547 22.747
8.2699 22.762
8.2851 22.557
8.3003 22.470
8.3154 22.421
8.3306 22.711
8.3458 22.532
8.3610 22.607
8.3761 22.560
8.3913 22.340
8.4065 22.662
8.4217 22.350
8.4368 22.500
8.4520 22.970
8.4672 22.708
8.4824 22.256
8.4975 22.665
8.5127 22.517
8.5279 22.559
8.5431 22.569
8.5582 23.094
8.5734 23.170
8.5886 22.753
8.6038 22.405
8.6189 22.687
8.6341 22.549
8.6493 22.928
8.6645 22.578
8.6796 22.910
8.6948 22.708
8.7100 22.738
8.7252 23.166
8.7403 22.716
8.7555 22.985
8.7707 23.087
8.7859 23.004
8.8010 22.914
8.8162 23.116
8.8314 23.214
8.8466 23.341
8.8617 23.410
8.8769 23.106
8.8921 22.876
8.9073 23.332
8.9224 23.294
8.9376 23.270
8.9528 23.577
8.9680 23.414
8.9831 23.563
8.9983 23.184
9.0135 23.567
9.0287 23.151
9.0438 23.507
9.0590 23.420
9.0742 23.333
9.0894 23.447
9.1045 23.496
9.1197 23.626
9.1349 23.694
9.1501 23.378
9.1652 23.109
9.1804 23.486
9.1956 23.635
9.2108 23.597
9.2259 23.548
9.2411 23.705
9.2563 23.917
9.2715 23.688
9.2866 23.873
9.3018 23.745
9.3170 23.653
9.3322 23.697
9.3473 23.645
9.3625 23.581
9.3777 23.992
9.3929 23.966
9.4080 23.824
9.4232 23.633
9.4384 24.017
9.4536 23.874
9.4687 23.932
9.4839 24.072
9.4991 23.716
9.5143 23.681
9.5294 23.884
9.5446 23.814
9.5598 23.896
9.5750 24.063
9.5901 23.822
9.6053 24.140
9.6205 24.581
9.6357 24.226
9.6508 24.303
9.6660 24.570
9.6812 24.408
9.6964 24.430
9.7115 24.444
9.7267 24.722
9.7419 25.319
9.7571 25.142
9.7722 24.685
9.7874 24.768
9.8026 24.817
9.8178 24.623
9.8329 24.242
9.8481 24.264
9.8633 24.799
9.8785 24.711
9.8936 24.638
9.9088 24.942
9.9240 25.233
9.9392 25.356
9.9543 25.125
9.9695 24.927
9.9847 24.695
9.9999 24.308
10.0150 24.404
10.0302 24.622
10.0454 24.183
10.0606 23.914
10.0757 24.042
10.0909 24.206
10.1061 24.660
10.1213 24.896
10.1364 24.732
10.1516 24.783
10.1668 24.644
10.1820 24.539
10.1971 24.319
10.2123 24.339
10.2275 24.316
10.2427 24.076
10.2578 23.913
10.2730 23.959
10.2882 24.081
10.3034 24.352
10.3185 23.957
10.3337 23.864
10.3489 24.032
10.3641 23.856
10.3792 23.376
10.3944 23.681
10.4096 23.997
10.4248 23.761
10.4399 23.606
10.4551 23.671
10.4703 23.932
10.4855 23.644
10.5006 23.471
10.5158 23.266
10.5310 23.436
10.5462 23.533
10.5613 23.631
10.5765 23.238
10.5917 22.917
10.6069 23.336
10.6220 23.182
10.6372 23.179
10.6524 23.393
10.6676 23.123
10.6827 23.104
10.6979 22.965
10.7131 23.388
10.7283 23.329
10.7434 23.036
10.7586 23.231
10.7738 22.890
10.7890 22.912
10.8041 22.689
10.8193 22.789
10.8345 22.823
10.8497 22.867
10.8648 22.924
10.8800 22.784
10.8952 22.735
10.9104 22.587
10.9255 22.594
10.9407 22.755
10.9559 22.616
10.9711 22.482
10.9862 22.520
11.0014 22.374
11.0166 22.867
11.0318 22.916
11.0469 22.605
11.0621 22.522
11.0773 22.335
11.0925 22.194
11.1076 22.837
11.1228 22.220
11.1380 21.894
11.1532 22.359
11.1683 22.370
11.1835 22.154
11.1987 22.118
11.2139 22.712
11.2290 22.389
11.2442 22.333
11.2594 22.474
11.2746 22.520
11.2897 22.325
11.3049 21.964
11.3201 21.848
11.3353 21.953
11.3504 21.895
11.3656 21.900
11.3808 21.817
11.3960 21.376
11.4111 21.931
11.4263 21.976
11.4415 21.764
11.4567 21.557
11.4718 21.641
11.4870 21.843
11.5022 21.641
11.5174 21.642
11.5325 21.703
11.5477 21.767
11.5629 21.667
11.5781 21.287
11.5932 21.203
11.6084 21.341
11.6236 21.384
11.6388 21.478
11.6539 21.147
11.6691 21.039
11.6843 20.990
11.6995 20.795
11.7146 20.933
11.7298 20.673
11.7450 20.621
11.7602 20.860
11.7753 20.871
11.7905 20.508
11.8057 20.725
11.8209 20.395
11.8360 20.333
11.8512 20.756
11.8664 20.240
11.8816 20.307
11.8967 20.503
11.9119 20.260
11.9271 20.028
11.9423 20.208
11.9574 19.923
11.9726 19.942
11.9878 19.427
12.0030 19.646
12.0181 19.693
12.0333 19.590
12.0485 19.408
12.0637 19.337
12.0788 19.053
12.0940 19.325
12.1092 19.429
12.1244 19.361
12.1395 19.124
12.1547 18.766
12.1699 18.647
12.1851 18.936
12.2002 18.488
12.2154 18.163
12.2306 18.221
12.2458 18.408
12.2609 18.351
12.2761 18.156
12.2913 18.215
12.3065 18.176
12.3216 18.048
12.3368 17.753
12.3520 17.575
12.3672 17.423
12.3823 17.621
12.3975 17.899
12.4127 17.340
12.4279 17.027
12.4430 17.210
12.4582 17.370
12.4734 17.002
12.4886 16.983
12.5037 17.003
12.5189 17.035
12.5341 16.671
12.5493 16.583
12.5644 16.787
12.5796 16.645
12.5948 16.578
12.6100 16.500
12.6251 16.465
12.6403 16.173
12.6555 16.034
12.6707 16.081
12.6858 16.054
12.7010 16.090
12.7162 15.733
12.7314 15.591
12.7465 15.653
12.7617 15.530
12.7769 15.478
12.7921 15.561
12.8072 15.588
12.8224 15.295
12.8376 15.152
12.8528 15.083
12.8679 15.064
12.8831 14.851
12.8983 14.705
12.9135 14.692
12.9286 14.902
12.9438 15.007
12.9590 14.981
12.9742 14.786
12.9893 14.625
13.0045 14.710
13.0197 14.551
13.0349 14.387
13.0500 14.283
13.0652 14.277
13.0804 14.240
13.0956 14.025
13.1107 13.955
13.1259 13.891
13.1411 13.916
13.1563 14.040
13.1714 14.074
13.1866 13.883
13.2018 13.615
13.2170 13.600
13.2321 13.495
13.2473 13.432
13.2625 13.533
13.2777 13.399
13.2928 13.310
13.3080 13.386
13.3232 13.331
13.3384 13.253
13.3535 13.093
13.3687 13.091
13.3839 13.297
13.3991 13.269
13.4142 13.274
13.4294 13.111
13.4446 12.866
13.4598 12.921
13.4749 12.950
13.4901 12.955
13.5053 12.837
13.5205 12.822
13.5356 12.843
13.5508 12.767
13.5660 12.758
13.5812 12.617
13.5963 12.474
13.6115 12.341
13.6267 12.379
13.6419 12.379
13.6570 12.299
13.6722 12.188
13.6874 12.102
13.7026 12.082
13.7177 12.171
13.7329 12.277
13.7481 12.070
13.7633 12.146
13.7784 12.088
13.7936 12.104
13.8088 12.517
13.8239 12.494
13.8391 12.348
13.8543 12.617
13.8695 12.284
13.8846 12.408
13.8998 12.412
13.9150 12.084
13.9302 12.161
13.9453 11.887
13.9605 11.738
13.9757 11.966
13.9909 11.689
14.0060 11.835
14.0212 11.749
14.0364 11.534
14.0516 11.749
14.0667 11.658
14.0819 11.485
14.0971 11.589
14.1123 11.788
14.1274 12.094
14.1426 11.703
14.1578 11.594
14.1730 11.575
14.1881 11.392
14.2033 11.342
14.2185 11.491
14.2337 11.769
14.2488 11.684
14.2640 11.607
14.2792 11.807
14.2944 12.214
14.3095 12.122
14.3247 12.291
14.3399 12.442
14.3551 12.794
14.3702 13.411
14.3854 13.738
14.4006 14.604
14.4158 15.287
14.4309 15.404
14.4461 14.898
14.4613 14.314
14.4765 14.195
14.4916 14.058
14.5068 14.027
14.5220 13.706
14.5372 12.869
14.5523 12.292
14.5675 11.808
14.5827 11.563
14.5979 11.242
14.6130 11.217
14.6282 11.003
14.6434 11.038
14.6586 11.219
14.6737 10.981
14.6889 11.063
14.7041 10.787
14.7193 11.085
14.7344 11.366
14.7496 11.063
14.7648 11.600
14.7800 11.489
14.7951 11.175
14.8103 11.273
14.8255 11.317
14.8407 10.966
14.8558 11.526
14.8710 11.155
14.8862 11.231
14.9014 11.213
14.9165 10.960
14.9317 11.257
14.9469 10.974
14.9621 11.213
14.9772 10.875
14.9924 11.217
15.0076 10.736
15.0228 10.975
15.0379 10.896
15.0531 11.366
15.0683 11.018
15.0835 10.571
15.0986 10.528
15.1138 10.887
15.1290 10.537
15.1442 10.750
15.1593 10.576
15.1745 10.778
15.1897 10.846
15.2049 10.448
15.2200 10.803
15.2352 10.419
15.2504 10.383
15.2656 10.610
15.2807 10.663
15.2959 10.413
15.3111 10.409
15.3263 10.421
15.3414 10.450
15.3566 10.839
15.3718 10.311
15.3870 10.260
15.4021 10.451
15.4173 10.543
15.4325 10.592
15.4477 10.612
15.4628 10.781
15.4780 10.497
15.4932 10.352
15.5084 10.278
15.5235 10.510
15.5387 10.812
15.5539 10.444
15.5691 10.488
15.5842 10.657
15.5994 10.585
15.6146 10.313
15.6298 10.447
15.6449 10.376
15.6601 10.380
15.6753 10.555
15.6905 10.068
15.7056 10.228
15.7208 10.014
15.7360 10.175
15.7512 10.036
15.7663 9.980
15.7815 9.798
15.7967 9.923
15.8119 9.916
15.8270 10.191
15.8422 10.105
15.8574 9.854
15.8726 9.825
15.8877 9.787
15.9029 9.869
15.9181 9.693
15.9333 9.907
15.9484 9.794
15.9636 9.913
15.9788 10.171
15.9940 10.298
16.0091 10.046
16.0243 10.142
16.0395 9.954
16.0547 9.812
16.0698 9.964
16.0850 10.061
16.1002 9.803
16.1154 9.806
16.1305 9.856
16.1457 9.922
16.1609 9.850
16.1761 10.073
16.1912 10.241
16.2064 9.854
16.2216 9.883
16.2368 10.060
16.2519 10.063
16.2671 10.217
16.2823 10.379
16.2975 10.284
16.3126 10.198
16.3278 9.924
16.3430 10.067
16.3582 10.346
16.3733 10.525
16.3885 10.211
16.4037 10.018
16.4189 10.194
16.4340 10.118
16.4492 10.002
16.4644 10.092
16.4796 9.972
16.4947 10.032
16.5099 10.161
16.5251 10.400
16.5403 10.193
16.5554 10.081
16.5706 10.155
16.5858 10.116
16.6010 9.959
16.6161 9.967
16.6313 10.038
16.6465 10.105
16.6617 10.079
16.6768 9.681
16.6920 10.150
16.7072 10.249
16.7224 10.089
16.7375 10.205
16.7527 10.205
16.7679 10.101
16.7831 10.249
16.7982 10.260
16.8134 10.365
16.8286 10.367
16.8438 10.177
16.8589 10.362
16.8741 10.122
16.8893 9.910
16.9045 10.170
16.9196 10.453
16.9348 10.285
16.9500 10.005
16.9652 9.948
16.9803 10.017
16.9955 10.165
17.0107 10.283
17.0259 10.450
17.0410 10.511
17.0562 10.461
17.0714 10.635
17.0866 10.765
17.1017 10.738
17.1169 10.977
17.1321 11.044
17.1473 11.532
17.1624 12.195
17.1776 12.565
17.1928 13.052
17.2080 13.947
17.2231 15.088
17.2383 16.454
17.2535 17.616
17.2687 18.577
17.2838 18.812
17.2990 17.962
17.3142 17.146
17.3294 16.663
17.3445 16.136
17.3597 15.804
17.3749 15.824
17.3901 15.130
17.4052 13.952
17.4204 13.263
17.4356 12.738
17.4508 12.069
17.4659 11.721
17.4811 11.604
17.4963 11.551
17.5115 11.452
17.5266 11.048
17.5418 10.845
17.5570 10.906
17.5722 10.965
17.5873 10.936
17.6025 10.923
17.6177 11.165
17.6329 11.622
17.6480 12.132
17.6632 12.387
17.6784 12.603
17.6936 13.351
17.7087 13.782
17.7239 13.306
17.7391 12.392
17.7543 12.041
17.7694 12.270
17.7846 12.434
17.7998 12.680
17.8150 12.817
17.8301 12.548
17.8453 12.174
17.8605 11.939
17.8757 11.693
17.8908 11.797
17.9060 11.795
17.9212 11.595
17.9364 11.244
17.9515 10.843
17.9667 11.214
17.9819 11.380
17.9971 11.192
18.0122 10.834
18.0274 10.758
18.0426 10.708
18.0578 10.681
18.0729 10.635
18.0881 10.485
18.1033 10.463
18.1185 10.438
18.1336 10.435
18.1488 10.193
18.1640 9.986
18.1792 10.225
18.1943 10.342
18.2095 10.382
18.2247 10.427
18.2399 10.259
18.2550 10.168
18.2702 10.124
18.2854 9.897
18.3006 10.024
18.3157 10.068
18.3309 10.022
18.3461 10.090
18.3613 10.039
18.3764 9.981
18.3916 10.043
18.4068 10.215
18.4220 10.062
18.4371 9.881
18.4523 10.089
18.4675 10.107
18.4827 10.064
18.4978 9.948
18.5130 9.976
18.5282 10.005
18.5434 9.985
18.5585 9.999
18.5737 10.144
18.5889 10.300
18.6041 10.247
18.6192 10.209
18.6344 10.087
18.6496 9.930
18.6648 9.803
18.6799 9.738
18.6951 9.938
18.7103 9.906
18.7255 9.712
18.7406 9.869
18.7558 10.093
18.7710 10.029
18.7862 10.129
18.8013 10.073
18.8165 9.862
18.8317 9.931
18.8469 10.118
18.8620 10.220
18.8772 10.179
18.8924 10.185
18.9076 10.228
18.9227 10.242
18.9379 10.394
18.9531 10.518
18.9683 10.375
18.9834 10.278
18.9986 10.229
19.0138 10.286
19.0290 10.341
19.0441 10.425
19.0593 10.545
19.0745 10.474
19.0897 10.371
19.1048 10.654
19.1200 10.492
19.1352 10.541
19.1504 10.806
19.1655 10.836
19.1807 10.857
19.1959 10.756
19.2111 10.751
19.2262 10.970
19.2414 11.012
19.2566 11.023
19.2718 11.081
19.2869 11.325
19.3021 11.577
19.3173 11.317
19.3325 11.236
19.3476 11.248
19.3628 11.358
19.3780 11.509
19.3932 11.707
19.4083 11.627
19.4235 11.281
19.4387 11.344
19.4539 11.525
19.4690 11.600
19.4842 11.631
19.4994 11.616
19.5146 11.606
19.5297 11.531
19.5449 11.490
19.5601 11.502
19.5753 11.474
19.5904 11.581
19.6056 11.855
19.6208 11.714
19.6360 11.665
19.6511 11.968
19.6663 12.024
19.6815 11.906
19.6967 11.935
19.7118 11.903
19.7270 11.821
19.7422 11.887
19.7574 12.209
19.7725 11.959
19.7877 11.728
19.8029 11.949
19.8180 12.173
19.8332 12.408
19.8484 12.656
19.8636 12.750
19.8787 12.755
19.8939 12.993
19.9091 13.516
19.9243 13.642
19.9394 13.905
19.9546 14.386
19.9698 14.627
19.9850 14.870
20.0001 14.747
20.0153 14.491
20.0305 14.446
20.0457 14.255
20.0608 14.231
20.0760 14.014
20.0912 13.971
20.1064 14.107
20.1215 14.026
20.1367 13.494
20.1519 13.337
20.1671 13.126
20.1822 12.685
20.1974 12.569
20.2126 12.596
20.2278 12.522
20.2429 12.371
20.2581 12.380
20.2733 11.935
20.2885 11.792
20.3036 11.802
20.3188 12.016
20.3340 11.902
20.3492 11.623
20.3643 11.525
20.3795 11.582
20.3947 11.730
20.4099 11.882
20.4250 12.138
20.4402 12.176
20.4554 12.593
20.4706 13.465
20.4857 13.261
20.5009 12.587
20.5161 12.332
20.5313 11.883
20.5464 11.938
20.5616 11.901
20.5768 11.861
20.5920 12.384
20.6071 12.131
20.6223 11.649
20.6375 11.366
20.6527 11.054
20.6678 10.823
20.6830 10.707
20.6982 10.406
20.7134 10.770
20.7285 10.693
20.7437 10.590
20.7589 10.304
20.7741 10.415
20.7892 10.549
20.8044 10.591
20.8196 10.604
20.8348 10.512
20.8499 10.364
20.8651 10.231
20.8803 10.465
20.8955 10.648
20.9106 10.580
20.9258 10.629
20.9410 10.692
20.9562 10.898
20.9713 10.715
20.9865 10.848
21.0017 10.606
21.0169 10.701
21.0320 10.917
21.0472 10.603
21.0624 10.464
21.0776 10.463
21.0927 10.601
21.1079 10.300
21.1231 10.662
21.1383 10.507
21.1534 10.315
21.1686 10.162
21.1838 10.001
21.1990 10.175
21.2141 10.002
21.2293 10.012
21.2445 9.884
21.2597 9.728
21.2748 9.888
21.2900 9.813
21.3052 9.876
21.3204 9.632
21.3355 9.786
21.3507 9.629
21.3659 10.007
21.3811 9.614
21.3962 9.678
21.4114 9.616
21.4266 9.442
21.4418 9.633
21.4569 9.736
21.4721 9.539
21.4873 9.613
21.5025 9.600
21.5176 9.473
21.5328 9.395
21.5480 9.292
21.5632 9.472
21.5783 9.412
21.5935 9.870
21.6087 9.712
21.6239 9.359
21.6390 9.228
21.6542 9.597
21.6694 9.480
21.6846 9.445
21.6997 9.502
21.7149 9.327
21.7301 9.544
21.7453 9.333
21.7604 9.169
21.7756 9.102
21.7908 9.130
21.8060 9.224
21.8211 9.306
21.8363 9.260
21.8515 9.300
21.8667 9.199
21.8818 9.208
21.8970 9.243
21.9122 9.221
21.9274 9.100
21.9425 9.084
21.9577 9.098
21.9729 9.011
21.9881 9.120
22.0032 9.178
22.0184 8.870
22.0336 8.882
22.0488 9.065
22.0639 8.964
22.0791 8.942
22.0943 9.008
22.1095 8.853
22.1246 8.752
22.1398 8.923
22.1550 8.803
22.1702 8.560
22.1853 8.706
22.2005 8.760
22.2157 8.706
22.2309 8.774
22.2460 8.959
22.2612 8.557
22.2764 8.513
22.2916 8.516
22.3067 8.543
22.3219 8.774
22.3371 8.574
22.3523 8.754
22.3674 8.759
22.3826 8.707
22.3978 8.722
22.4130 8.643
22.4281 8.571
22.4433 8.630
22.4585 8.614
22.4737 8.605
22.4888 8.452
22.5040 8.577
22.5192 8.546
22.5344 8.409
22.5495 8.515
22.5647 8.487
22.5799 8.711
22.5951 8.720
22.6102 8.506
22.6254 8.423
22.6406 8.505
22.6558 8.322
22.6709 8.369
22.6861 8.615
22.7013 8.303
22.7165 8.270
22.7316 6.488
