'Id: "" Comment: "" Operator: "Lab Manager" Anode: "Mo" Scantype: "Still (Eiger2R_500K (1D mode))" TimePerStep: "300" X: "11.8" Y: "9.4" Z: "11.284" 
7.2532 19.194
7.2684 18.845
7.2836 18.650
7.2987 19.067
7.3139 19.103
7.3291 18.861
7.3443 19.244
7.3594 19.064
7.3746 19.138
7.3898 19.073
7.4050 19.009
7.4201 19.380
7.4353 19.164
7.4505 19.657
7.4657 19.422
7.4808 19.610
7.4960 19.239
7.5112 19.629
7.5264 19.483
7.5415 19.992
7.5567 19.600
7.5719 19.384
7.5871 19.549
7.6022 19.942
7.6174 19.854
7.6326 19.858
7.6478 19.732
7.6629 20.210
7.6781 20.113
7.6933 20.009
7.7085 20.354
7.7236 20.313
7.7388 20.136
7.7540 20.093
7.7692 20.213
7.7843 20.316
7.7995 20.263
7.8147 20.327
7.8299 20.266
7.8450 20.273
7.8602 20.393
7.8754 20.689
7.8905 20.790
7.9057 20.685
7.9209 20.530
7.9361 20.391
7.9512 20.725
7.9664 21.104
7.9816 21.028
7.9968 21.172
8.0119 21.169
8.0271 21.096
8.0423 20.653
8.0575 20.447
8.0726 20.701
8.0878 21.242
8.1030 21.159
8.1182 21.185
8.1333 21.411
8.1485 21.365
8.1637 21.415
8.1789 21.454
8.1940 21.361
8.2092 21.160
8.2244 21.128
8.2396 21.360
8.2547 21.293
8.2699 21.252
8.2851 21.549
8.3003 21.798
8.3154 21.672
8.3306 21.404
8.3458 21.255
8.3610 21.385
8.3761 21.909
8.3913 21.576
8.4065 22.115
8.4217 21.589
8.4368 21.634
8.4520 21.332
8.4672 21.590
8.4824 22.097
8.4975 22.052
8.5127 22.272
8.5279 22.066
8.5431 22.299
8.5582 21.951
8.5734 22.041
8.5886 22.433
8.6038 22.184
8.6189 21.827
8.6341 21.736
8.6493 22.489
8.6645 22.171
8.6796 22.076
8.6948 22.680
8.7100 22.283
8.7252 21.800
8.7403 22.162
8.7555 22.407
8.7707 22.384
8.7859 22.366
8.8010 22.377
8.8162 22.304
8.8314 22.061
8.8466 22.655
8.8617 22.632
8.8769 22.317
8.8921 22.488
8.9073 22.893
8.9224 21.981
8.9376 22.597
8.9528 22.585
8.9680 22.487
8.9831 22.574
8.9983 22.701
9.0135 22.455
9.0287 22.356
9.0438 22.483
9.0590 22.612
9.0742 22.503
9.0894 22.011
9.1045 22.707
9.1197 22.811
9.1349 22.568
9.1501 22.731
9.1652 22.641
9.1804 22.945
9.1956 22.843
9.2108 22.375
9.2259 22.497
9.2411 22.701
9.2563 22.929
9.2715 22.939
9.2866 22.451
9.3018 22.450
9.3170 22.801
9.3322 22.931
9.3473 22.977
9.3625 23.124
9.3777 22.748
9.3929 22.694
9.4080 23.044
9.4232 23.136
9.4384 22.957
9.4536 23.014
9.4687 22.820
9.4839 22.837
9.4991 23.171
9.5143 22.876
9.5294 22.609
9.5446 22.900
9.5598 23.098
9.5750 22.941
9.5901 23.019
9.6053 23.420
9.6205 23.234
9.6357 23.199
9.6508 23.378
9.6660 23.354
9.6812 23.779
9.6964 24.057
9.7115 23.907
9.7267 23.970
9.7419 24.095
9.7571 24.301
9.7722 24.119
9.7874 23.716
9.8026 23.730
9.8178 23.949
9.8329 23.701
9.8481 23.442
9.8633 23.461
9.8785 23.008
9.8936 22.965
9.9088 23.228
9.9240 23.107
9.9392 22.912
9.9543 23.173
9.9695 23.440
9.9847 23.391
9.9999 23.377
10.0150 22.888
10.0302 22.998
10.0454 23.438
10.0606 22.887
10.0757 22.862
10.0909 23.098
10.1061 23.109
10.1213 23.480
10.1364 23.331
10.1516 23.303
10.1668 23.530
10.1820 23.516
10.1971 23.303
10.2123 23.130
10.2275 23.296
10.2427 23.226
10.2578 23.156
10.2730 22.778
10.2882 23.062
10.3034 23.216
10.3185 22.940
10.3337 22.916
10.3489 23.094
10.3641 22.750
10.3792 22.636
10.3944 22.929
10.4096 22.556
10.4248 22.485
10.4399 22.545
10.4551 22.490
10.4703 22.501
10.4855 22.585
10.5006 22.728
10.5158 22.830
10.5310 22.620
10.5462 22.434
10.5613 22.410
10.5765 22.441
10.5917 22.496
10.6069 22.444
10.6220 22.552
10.6372 22.594
10.6524 22.469
10.6676 22.474
10.6827 22.666
10.6979 22.493
10.7131 22.442
10.7283 22.380
10.7434 22.252
10.7586 22.352
10.7738 22.111
10.7890 22.382
10.8041 22.407
10.8193 22.542
10.8345 22.166
10.8497 21.894
10.8648 22.452
10.8800 22.301
10.8952 22.487
10.9104 22.314
10.9255 21.795
10.9407 22.211
10.9559 22.347
10.9711 22.135
10.9862 22.066
11.0014 22.073
11.0166 21.798
11.0318 21.568
11.0469 21.653
11.0621 21.800
11.0773 21.796
11.0925 21.650
11.1076 21.504
11.1228 21.818
11.1380 21.763
11.1532 21.550
11.1683 21.891
11.1835 21.673
11.1987 21.487
11.2139 21.826
11.2290 21.450
11.2442 21.635
11.2594 21.562
11.2746 21.394
11.2897 21.566
11.3049 21.653
11.3201 21.192
11.3353 21.615
11.3504 21.322
11.3656 21.418
11.3808 21.256
11.3960 20.691
11.4111 21.149
11.4263 21.214
11.4415 21.599
11.4567 21.129
11.4718 21.277
11.4870 21.622
11.5022 21.200
11.5174 20.933
11.5325 20.913
11.5477 20.808
11.5629 20.636
11.5781 20.619
11.5932 20.686
11.6084 21.085
11.6236 20.604
11.6388 20.418
11.6539 20.823
11.6691 20.747
11.6843 20.559
11.6995 20.500
11.7146 20.725
11.7298 20.637
11.7450 20.431
11.7602 20.517
11.7753 20.381
11.7905 20.261
11.8057 20.222
11.8209 19.909
11.8360 20.026
11.8512 19.612
11.8664 19.657
11.8816 19.749
11.8967 19.687
11.9119 19.292
11.9271 19.458
11.9423 19.435
11.9574 19.736
11.9726 19.460
11.9878 18.834
12.0030 19.217
12.0181 19.521
12.0333 19.393
12.0485 19.163
12.0637 18.662
12.0788 18.489
12.0940 18.788
12.1092 18.647
12.1244 18.707
12.1395 18.669
12.1547 18.451
12.1699 18.215
12.1851 18.126
12.2002 18.305
12.2154 18.083
12.2306 18.174
12.2458 18.151
12.2609 17.904
12.2761 17.746
12.2913 17.590
12.3065 17.698
12.3216 17.375
12.3368 17.598
12.3520 17.537
12.3672 17.351
12.3823 17.219
12.3975 17.008
12.4127 16.892
12.4279 17.180
12.4430 17.281
12.4582 16.828
12.4734 16.659
12.4886 16.876
12.5037 16.761
12.5189 16.479
12.5341 16.322
12.5493 16.236
12.5644 16.213
12.5796 16.136
12.5948 16.340
12.6100 16.384
12.6251 15.910
12.6403 15.787
12.6555 15.916
12.6707 15.620
12.6858 15.594
12.7010 15.611
12.7162 15.421
12.7314 15.246
12.7465 15.142
12.7617 15.349
12.7769 15.299
12.7921 14.937
12.8072 15.013
12.8224 14.964
12.8376 14.823
12.8528 14.985
12.8679 14.889
12.8831 14.849
12.8983 14.650
12.9135 14.455
12.9286 14.549
12.9438 14.341
12.9590 14.260
12.9742 14.228
12.9893 14.314
13.0045 14.301
13.0197 14.204
13.0349 14.084
13.0500 13.977
13.0652 13.638
13.0804 13.665
13.0956 13.808
13.1107 13.779
13.1259 13.726
13.1411 13.574
13.1563 13.603
13.1714 13.441
13.1866 13.411
13.2018 13.578
13.2170 13.636
13.2321 13.623
13.2473 13.456
13.2625 13.238
13.2777 13.072
13.2928 13.063
13.3080 13.065
13.3232 13.103
13.3384 13.248
13.3535 12.889
13.3687 12.765
13.3839 13.004
13.3991 13.065
13.4142 12.898
13.4294 12.915
13.4446 12.717
13.4598 12.794
13.4749 12.961
13.4901 12.654
13.5053 12.391
13.5205 12.370
13.5356 12.414
13.5508 12.443
13.5660 12.408
13.5812 12.330
13.5963 12.262
13.6115 12.062
13.6267 12.080
13.6419 12.269
13.6570 12.293
13.6722 12.071
13.6874 12.266
13.7026 12.113
13.7177 12.290
13.7329 12.420
13.7481 12.223
13.7633 12.210
13.7784 12.167
13.7936 12.220
13.8088 12.342
13.8239 12.509
13.8391 12.473
13.8543 12.199
13.8695 12.264
13.8846 12.297
13.8998 11.928
13.9150 11.844
13.9302 11.970
13.9453 11.983
13.9605 11.979
13.9757 11.769
13.9909 11.719
14.0060 11.705
14.0212 11.546
14.0364 11.413
14.0516 11.531
14.0667 11.565
14.0819 11.880
14.0971 11.484
14.1123 11.604
14.1274 11.685
14.1426 11.488
14.1578 11.631
14.1730 11.796
14.1881 11.647
14.2033 11.760
14.2185 11.855
14.2337 11.513
14.2488 11.522
14.2640 11.645
14.2792 11.607
14.2944 12.051
14.3095 12.258
14.3247 12.380
14.3399 12.221
14.3551 12.145
14.3702 12.530
14.3854 12.646
14.4006 13.093
14.4158 13.273
14.4309 13.077
14.4461 12.897
14.4613 12.371
14.4765 12.140
14.4916 12.095
14.5068 11.719
14.5220 11.830
14.5372 11.384
14.5523 11.526
14.5675 11.215
14.5827 10.923
14.5979 11.285
14.6130 10.796
14.6282 10.889
14.6434 11.087
14.6586 10.917
14.6737 10.657
14.6889 10.740
14.7041 10.547
14.7193 10.832
14.7344 10.590
14.7496 10.581
14.7648 10.636
14.7800 10.285
14.7951 10.501
14.8103 10.685
14.8255 10.610
14.8407 10.349
14.8558 10.273
14.8710 10.497
14.8862 10.597
14.9014 10.471
14.9165 10.630
14.9317 10.546
14.9469 10.263
14.9621 10.230
14.9772 10.331
14.9924 10.187
15.0076 10.062
15.0228 10.323
15.0379 10.469
15.0531 10.121
15.0683 10.269
15.0835 10.389
15.0986 10.387
15.1138 10.284
15.1290 10.054
15.1442 10.336
15.1593 10.337
15.1745 10.078
15.1897 10.418
15.2049 10.207
15.2200 9.987
15.2352 9.986
15.2504 10.088
15.2656 9.902
15.2807 10.330
15.2959 10.279
15.3111 9.995
15.3263 10.064
15.3414 9.677
15.3566 10.038
15.3718 9.928
15.3870 10.394
15.4021 10.452
15.4173 9.872
15.4325 10.026
15.4477 9.914
15.4628 10.126
15.4780 10.484
15.4932 10.113
15.5084 10.204
15.5235 10.313
15.5387 10.142
15.5539 10.406
15.5691 9.936
15.5842 9.768
15.5994 9.748
15.6146 9.660
15.6298 10.115
15.6449 9.874
15.6601 9.817
15.6753 9.707
15.6905 10.019
15.7056 9.633
15.7208 9.359
15.7360 9.564
15.7512 9.650
15.7663 9.346
15.7815 9.574
15.7967 9.772
15.8119 9.798
15.8270 9.895
15.8422 9.775
15.8574 9.331
15.8726 9.529
15.8877 9.660
15.9029 9.431
15.9181 9.493
15.9333 9.633
15.9484 9.546
15.9636 9.435
15.9788 9.498
15.9940 9.641
16.0091 9.522
16.0243 9.587
16.0395 9.710
16.0547 9.627
16.0698 9.503
16.0850 9.508
16.1002 9.686
16.1154 9.569
16.1305 9.822
16.1457 9.590
16.1609 9.450
16.1761 9.427
16.1912 9.369
16.2064 9.467
16.2216 9.737
16.2368 9.717
16.2519 9.655
16.2671 9.796
16.2823 9.916
16.2975 9.716
16.3126 9.730
16.3278 9.590
16.3430 9.857
16.3582 9.843
16.3733 9.978
16.3885 10.123
16.4037 9.738
16.4189 9.704
16.4340 9.899
16.4492 9.701
16.4644 9.779
16.4796 9.663
16.4947 9.719
16.5099 9.694
16.5251 9.451
16.5403 9.449
16.5554 9.519
16.5706 9.592
16.5858 9.730
16.6010 9.571
16.6161 9.681
16.6313 9.667
16.6465 9.703
16.6617 9.742
16.6768 9.632
16.6920 9.736
16.7072 9.735
16.7224 9.645
16.7375 9.766
16.7527 10.060
16.7679 9.962
16.7831 9.791
16.7982 9.760
16.8134 9.929
16.8286 10.040
16.8438 9.869
16.8589 9.766
16.8741 9.607
16.8893 9.579
16.9045 9.737
16.9196 9.558
16.9348 9.385
16.9500 9.556
16.9652 9.661
16.9803 9.751
16.9955 9.789
17.0107 10.035
17.0259 10.159
17.0410 9.998
17.0562 10.099
17.0714 10.242
17.0866 10.148
17.1017 10.367
17.1169 10.884
17.1321 11.193
17.1473 11.438
17.1624 11.602
17.1776 12.224
17.1928 13.014
17.2080 13.747
17.2231 14.942
17.2383 16.253
17.2535 17.310
17.2687 18.119
17.2838 18.388
17.2990 17.766
17.3142 16.984
17.3294 16.498
17.3445 16.018
17.3597 15.978
17.3749 16.023
17.3901 15.565
17.4052 14.563
17.4204 13.415
17.4356 12.674
17.4508 12.154
17.4659 11.870
17.4811 11.632
17.4963 11.427
17.5115 11.319
17.5266 11.072
17.5418 10.885
17.5570 10.994
17.5722 10.958
17.5873 10.913
17.6025 11.006
17.6177 10.913
17.6329 11.032
17.6480 11.373
17.6632 11.442
17.6784 11.412
17.6936 11.577
17.7087 11.441
17.7239 11.253
17.7391 11.189
17.7543 11.249
17.7694 11.177
17.7846 11.054
17.7998 11.118
17.8150 10.979
17.8301 10.448
17.8453 10.283
17.8605 10.204
17.8757 10.250
17.8908 10.308
17.9060 10.335
17.9212 10.454
17.9364 10.201
17.9515 9.938
17.9667 10.125
17.9819 10.267
17.9971 10.195
18.0122 10.020
18.0274 10.061
18.0426 10.205
18.0578 10.082
18.0729 10.252
18.0881 10.133
18.1033 10.120
18.1185 10.152
18.1336 9.906
18.1488 9.848
18.1640 9.745
18.1792 9.739
18.1943 9.952
18.2095 9.802
18.2247 10.038
18.2399 9.908
18.2550 9.818
18.2702 9.837
18.2854 9.893
18.3006 9.821
18.3157 9.764
18.3309 9.645
18.3461 9.661
18.3613 9.806
18.3764 9.881
18.3916 9.874
18.4068 9.739
18.4220 9.613
18.4371 9.587
18.4523 9.610
18.4675 9.554
18.4827 9.683
18.4978 9.844
18.5130 9.627
18.5282 9.619
18.5434 9.702
18.5585 9.720
18.5737 9.787
18.5889 9.686
18.6041 9.678
18.6192 9.722
18.6344 9.759
18.6496 9.668
18.6648 9.651
18.6799 9.719
18.6951 9.981
18.7103 9.878
18.7255 9.720
18.7406 9.798
18.7558 9.796
18.7710 9.766
18.7862 9.818
18.8013 9.745
18.8165 9.635
18.8317 9.811
18.8469 9.899
18.8620 10.074
18.8772 10.022
18.8924 9.869
18.9076 9.841
18.9227 9.834
18.9379 9.843
18.9531 9.737
18.9683 9.684
18.9834 9.884
18.9986 10.059
19.0138 9.902
19.0290 10.085
19.0441 10.361
19.0593 10.305
19.0745 10.193
19.0897 10.474
19.1048 10.523
19.1200 10.427
19.1352 10.456
19.1504 10.503
19.1655 10.656
19.1807 10.673
19.1959 10.773
19.2111 10.654
19.2262 10.580
19.2414 10.723
19.2566 10.848
19.2718 10.806
19.2869 10.751
19.3021 10.823
19.3173 10.887
19.3325 11.096
19.3476 11.089
19.3628 11.057
19.3780 11.127
19.3932 11.108
19.4083 11.152
19.4235 11.070
19.4387 10.810
19.4539 10.760
19.4690 11.167
19.4842 11.342
19.4994 11.245
19.5146 11.326
19.5297 11.659
19.5449 11.753
19.5601 11.778
19.5753 11.711
19.5904 11.546
19.6056 11.634
19.6208 11.787
19.6360 11.430
19.6511 11.565
19.6663 11.852
19.6815 11.596
19.6967 11.777
19.7118 11.902
19.7270 11.838
19.7422 11.889
19.7574 12.018
19.7725 11.710
19.7877 11.723
19.8029 12.076
19.8180 12.258
19.8332 12.168
19.8484 12.220
19.8636 12.535
19.8787 12.596
19.8939 12.692
19.9091 12.990
19.9243 13.440
19.9394 13.964
19.9546 14.271
19.9698 14.282
19.9850 14.396
20.0001 14.442
20.0153 14.279
20.0305 14.022
20.0457 13.926
20.0608 13.735
20.0760 13.787
20.0912 14.027
20.1064 13.711
20.1215 13.326
20.1367 13.231
20.1519 12.984
20.1671 13.095
20.1822 13.022
20.1974 12.890
20.2126 12.730
20.2278 12.484
20.2429 12.503
20.2581 12.616
20.2733 12.396
20.2885 11.995
20.3036 12.121
20.3188 12.106
20.3340 11.883
20.3492 11.856
20.3643 12.004
20.3795 12.029
20.3947 11.950
20.4099 11.644
20.4250 11.585
20.4402 11.736
20.4554 11.601
20.4706 11.543
20.4857 11.531
20.5009 11.637
20.5161 11.770
20.5313 11.583
20.5464 11.559
20.5616 11.468
20.5768 11.449
20.5920 11.212
20.6071 11.497
20.6223 11.095
20.6375 10.902
20.6527 10.795
20.6678 10.712
20.6830 10.602
20.6982 10.656
20.7134 10.787
20.7285 10.656
20.7437 10.716
20.7589 10.308
20.7741 10.283
20.7892 10.396
20.8044 10.270
20.8196 10.277
20.8348 10.291
20.8499 10.353
20.8651 10.351
20.8803 10.328
20.8955 10.144
20.9106 10.152
20.9258 10.063
20.9410 10.312
20.9562 10.185
20.9713 10.213
20.9865 10.093
21.0017 9.672
21.0169 9.808
21.0320 9.941
21.0472 10.019
21.0624 9.730
21.0776 10.222
21.0927 9.998
21.1079 9.629
21.1231 9.728
21.1383 10.206
21.1534 9.667
21.1686 9.808
21.1838 9.732
21.1990 9.528
21.2141 9.944
21.2293 9.600
21.2445 9.502
21.2597 9.592
21.2748 9.633
21.2900 9.849
21.3052 9.545
21.3204 9.740
21.3355 9.452
21.3507 9.476
21.3659 9.551
21.3811 9.665
21.3962 9.474
21.4114 9.749
21.4266 9.649
21.4418 9.806
21.4569 9.692
21.4721 9.167
21.4873 9.318
21.5025 9.408
21.5176 9.362
21.5328 9.305
21.5480 9.317
21.5632 9.325
21.5783 9.136
21.5935 8.983
21.6087 9.433
21.6239 9.354
21.6390 9.157
21.6542 9.347
21.6694 9.218
21.6846 9.137
21.6997 8.978
21.7149 9.233
21.7301 9.100
21.7453 9.129
21.7604 9.267
21.7756 8.916
21.7908 9.090
21.8060 9.051
21.8211 9.141
21.8363 8.966
21.8515 8.829
21.8667 8.983
21.8818 8.891
21.8970 8.984
21.9122 9.052
21.9274 9.091
21.9425 8.984
21.9577 8.989
21.9729 9.044
21.9881 8.985
22.0032 9.040
22.0184 8.862
22.0336 8.690
22.0488 8.835
22.0639 8.912
22.0791 8.738
22.0943 8.472
22.1095 8.542
22.1246 8.579
22.1398 8.505
22.1550 8.504
22.1702 8.555
22.1853 8.429
22.2005 8.458
22.2157 8.549
22.2309 8.593
22.2460 8.422
22.2612 8.470
22.2764 8.297
22.2916 8.186
22.3067 8.577
22.3219 8.488
22.3371 8.465
22.3523 8.517
22.3674 8.673
22.3826 8.582
22.3978 8.546
22.4130 8.427
22.4281 8.364
22.4433 8.547
22.4585 8.543
22.4737 8.784
22.4888 8.681
22.5040 8.495
22.5192 8.305
22.5344 8.723
22.5495 8.469
22.5647 8.318
22.5799 8.608
22.5951 8.550
22.6102 8.246
22.6254 8.295
22.6406 8.541
22.6558 8.295
22.6709 7.945
22.6861 7.964
22.7013 7.916
22.7165 8.162
22.7316 6.554
