'Id: "" Comment: "" Operator: "Lab Manager" Anode: "Mo" Scantype: "Still (Eiger2R_500K (1D mode))" TimePerStep: "300" X: "11.8" Y: "9.4" Z: "11.284" 
7.2532 18.813
7.2684 18.912
7.2836 18.411
7.2987 18.935
7.3139 18.965
7.3291 19.221
7.3443 18.869
7.3594 18.957
7.3746 18.996
7.3898 18.974
7.4050 18.796
7.4201 19.056
7.4353 19.415
7.4505 19.051
7.4657 19.308
7.4808 19.870
7.4960 19.346
7.5112 19.670
7.5264 19.538
7.5415 19.599
7.5567 19.527
7.5719 19.943
7.5871 19.843
7.6022 19.951
7.6174 19.812
7.6326 19.930
7.6478 20.037
7.6629 19.962
7.6781 19.817
7.6933 20.111
7.7085 20.381
7.7236 20.471
7.7388 20.347
7.7540 20.411
7.7692 20.346
7.7843 20.291
7.7995 20.449
7.8147 20.631
7.8299 20.617
7.8450 20.431
7.8602 20.545
7.8754 20.829
7.8905 20.886
7.9057 20.759
7.9209 20.919
7.9361 20.690
7.9512 20.663
7.9664 20.854
7.9816 20.885
7.9968 20.735
8.0119 20.882
8.0271 21.312
8.0423 20.716
8.0575 20.545
8.0726 20.858
8.0878 21.089
8.1030 20.995
8.1182 20.573
8.1333 20.884
8.1485 21.481
8.1637 21.412
8.1789 21.141
8.1940 21.279
8.2092 21.516
8.2244 21.381
8.2396 21.120
8.2547 21.286
8.2699 21.029
8.2851 21.149
8.3003 21.584
8.3154 21.439
8.3306 21.642
8.3458 21.713
8.3610 22.184
8.3761 22.151
8.3913 22.278
8.4065 21.782
8.4217 21.769
8.4368 22.296
8.4520 21.783
8.4672 21.852
8.4824 21.304
8.4975 22.210
8.5127 21.718
8.5279 21.884
8.5431 21.659
8.5582 21.865
8.5734 22.301
8.5886 22.594
8.6038 22.371
8.6189 22.151
8.6341 21.789
8.6493 22.165
8.6645 22.081
8.6796 22.241
8.6948 22.144
8.7100 22.209
8.7252 22.113
8.7403 22.369
8.7555 22.425
8.7707 22.799
8.7859 22.480
8.8010 22.265
8.8162 22.173
8.8314 22.596
8.8466 22.393
8.8617 22.385
8.8769 22.650
8.8921 22.221
8.9073 22.598
8.9224 22.154
8.9376 22.457
8.9528 22.070
8.9680 22.585
8.9831 22.619
8.9983 22.626
9.0135 22.245
9.0287 22.638
9.0438 22.063
9.0590 22.580
9.0742 23.006
9.0894 22.522
9.1045 23.042
9.1197 22.717
9.1349 22.457
9.1501 22.618
9.1652 22.539
9.1804 22.434
9.1956 22.614
9.2108 23.056
9.2259 22.973
9.2411 22.760
9.2563 22.680
9.2715 22.745
9.2866 22.977
9.3018 22.980
9.3170 22.962
9.3322 22.769
9.3473 23.025
9.3625 22.919
9.3777 22.947
9.3929 22.807
9.4080 22.806
9.4232 23.160
9.4384 23.030
9.4536 22.973
9.4687 23.163
9.4839 22.922
9.4991 22.888
9.5143 23.190
9.5294 23.000
9.5446 22.844
9.5598 22.933
9.5750 22.955
9.5901 23.145
9.6053 23.430
9.6205 23.544
9.6357 23.411
9.6508 23.486
9.6660 23.553
9.6812 23.534
9.6964 23.665
9.7115 23.859
9.7267 23.885
9.7419 24.091
9.7571 23.986
9.7722 23.758
9.7874 23.800
9.8026 23.899
9.8178 23.595
9.8329 23.327
9.8481 23.269
9.8633 22.964
9.8785 22.937
9.8936 22.938
9.9088 22.977
9.9240 22.807
9.9392 23.063
9.9543 23.299
9.9695 23.081
9.9847 22.792
9.9999 23.051
10.0150 23.316
10.0302 23.118
10.0454 23.120
10.0606 22.926
10.0757 23.031
10.0909 22.971
10.1061 23.091
10.1213 23.130
10.1364 23.138
10.1516 23.247
10.1668 23.422
10.1820 23.078
10.1971 22.775
10.2123 22.890
10.2275 23.100
10.2427 23.048
10.2578 22.912
10.2730 23.019
10.2882 23.094
10.3034 22.820
10.3185 22.692
10.3337 22.767
10.3489 22.523
10.3641 22.801
10.3792 22.903
10.3944 22.778
10.4096 22.440
10.4248 22.504
10.4399 22.739
10.4551 22.806
10.4703 22.608
10.4855 22.474
10.5006 22.915
10.5158 23.061
10.5310 22.523
10.5462 22.453
10.5613 22.469
10.5765 22.589
10.5917 22.467
10.6069 22.268
10.6220 22.442
10.6372 22.562
10.6524 22.415
10.6676 22.623
10.6827 22.598
10.6979 22.595
10.7131 22.244
10.7283 22.314
10.7434 22.200
10.7586 22.441
10.7738 22.337
10.7890 22.378
10.8041 22.540
10.8193 22.399
10.8345 21.877
10.8497 21.676
10.8648 21.681
10.8800 21.697
10.8952 22.106
10.9104 21.983
10.9255 22.010
10.9407 22.211
10.9559 22.083
10.9711 22.019
10.9862 22.121
11.0014 22.001
11.0166 22.211
11.0318 22.051
11.0469 21.842
11.0621 21.616
11.0773 21.598
11.0925 21.375
11.1076 21.714
11.1228 21.734
11.1380 21.752
11.1532 21.985
11.1683 21.774
11.1835 21.618
11.1987 21.472
11.2139 21.411
11.2290 21.214
11.2442 21.376
11.2594 21.869
11.2746 21.632
11.2897 21.191
11.3049 21.191
11.3201 21.346
11.3353 21.734
11.3504 21.534
11.3656 21.262
11.3808 21.297
11.3960 21.230
11.4111 21.036
11.4263 21.495
11.4415 21.161
11.4567 20.850
11.4718 21.175
11.4870 21.184
11.5022 21.363
11.5174 21.250
11.5325 20.926
11.5477 20.782
11.5629 20.871
11.5781 20.735
11.5932 20.548
11.6084 20.680
11.6236 20.612
11.6388 20.479
11.6539 20.684
11.6691 20.566
11.6843 20.496
11.6995 20.597
11.7146 20.487
11.7298 20.222
11.7450 20.641
11.7602 20.467
11.7753 20.084
11.7905 19.773
11.8057 20.319
11.8209 20.016
11.8360 19.674
11.8512 19.906
11.8664 19.973
11.8816 19.743
11.8967 19.939
11.9119 20.099
11.9271 19.745
11.9423 19.316
11.9574 19.201
11.9726 19.414
11.9878 19.323
12.0030 19.004
12.0181 18.987
12.0333 19.209
12.0485 19.217
12.0637 18.974
12.0788 18.803
12.0940 18.407
12.1092 18.662
12.1244 18.497
12.1395 18.492
12.1547 18.617
12.1699 18.488
12.1851 18.391
12.2002 18.291
12.2154 18.087
12.2306 18.173
12.2458 18.005
12.2609 18.051
12.2761 18.042
12.2913 17.578
12.3065 17.919
12.3216 17.758
12.3368 17.737
12.3520 17.471
12.3672 17.117
12.3823 17.202
12.3975 17.404
12.4127 17.088
12.4279 16.717
12.4430 17.039
12.4582 17.247
12.4734 17.074
12.4886 16.649
12.5037 16.286
12.5189 16.754
12.5341 16.659
12.5493 16.207
12.5644 16.415
12.5796 16.466
12.5948 16.160
12.6100 16.275
12.6251 16.007
12.6403 16.079
12.6555 15.940
12.6707 15.671
12.6858 15.689
12.7010 15.489
12.7162 15.487
12.7314 15.665
12.7465 15.490
12.7617 15.139
12.7769 15.270
12.7921 15.148
12.8072 14.995
12.8224 15.143
12.8376 15.071
12.8528 15.175
12.8679 15.107
12.8831 14.663
12.8983 14.631
12.9135 14.914
12.9286 14.833
12.9438 14.438
12.9590 14.321
12.9742 14.595
12.9893 14.628
13.0045 14.325
13.0197 14.124
13.0349 13.944
13.0500 13.829
13.0652 13.895
13.0804 13.720
13.0956 13.599
13.1107 13.802
13.1259 13.739
13.1411 13.690
13.1563 13.787
13.1714 13.598
13.1866 13.490
13.2018 13.562
13.2170 13.568
13.2321 13.485
13.2473 13.552
13.2625 13.398
13.2777 13.031
13.2928 13.364
13.3080 13.390
13.3232 13.128
13.3384 13.087
13.3535 12.956
13.3687 13.197
13.3839 13.306
13.3991 13.059
13.4142 12.848
13.4294 12.769
13.4446 12.656
13.4598 12.850
13.4749 12.884
13.4901 12.849
13.5053 12.683
13.5205 12.731
13.5356 12.748
13.5508 12.587
13.5660 12.299
13.5812 12.317
13.5963 12.317
13.6115 12.152
13.6267 12.102
13.6419 12.259
13.6570 12.263
13.6722 12.114
13.6874 12.172
13.7026 12.047
13.7177 11.908
13.7329 12.133
13.7481 12.029
13.7633 11.774
13.7784 11.927
13.7936 12.124
13.8088 12.175
13.8239 12.265
13.8391 12.332
13.8543 12.572
13.8695 12.466
13.8846 12.066
13.8998 11.964
13.9150 12.200
13.9302 12.251
13.9453 12.052
13.9605 11.890
13.9757 11.795
13.9909 11.893
14.0060 11.696
14.0212 11.759
14.0364 11.775
14.0516 11.607
14.0667 11.693
14.0819 11.744
14.0971 11.763
14.1123 11.758
14.1274 11.794
14.1426 11.783
14.1578 11.599
14.1730 11.709
14.1881 11.591
14.2033 11.616
14.2185 11.451
14.2337 11.525
14.2488 11.759
14.2640 12.091
14.2792 11.937
14.2944 11.782
14.3095 11.873
14.3247 12.222
14.3399 12.074
14.3551 12.564
14.3702 12.704
14.3854 13.119
14.4006 13.286
14.4158 13.345
14.4309 13.088
14.4461 12.890
14.4613 12.790
14.4765 12.490
14.4916 12.046
14.5068 11.507
14.5220 11.697
14.5372 11.266
14.5523 11.555
14.5675 11.304
14.5827 10.883
14.5979 11.128
14.6130 11.028
14.6282 10.822
14.6434 10.909
14.6586 10.750
14.6737 10.684
14.6889 10.716
14.7041 10.650
14.7193 10.425
14.7344 10.586
14.7496 10.983
14.7648 10.801
14.7800 10.759
14.7951 10.773
14.8103 10.498
14.8255 10.510
14.8407 10.155
14.8558 10.591
14.8710 10.586
14.8862 10.335
14.9014 10.314
14.9165 10.227
14.9317 10.372
14.9469 10.515
14.9621 10.572
14.9772 10.652
14.9924 10.057
15.0076 10.609
15.0228 10.352
15.0379 9.841
15.0531 10.083
15.0683 10.117
15.0835 10.415
15.0986 10.355
15.1138 10.322
15.1290 10.133
15.1442 10.245
15.1593 10.050
15.1745 10.263
15.1897 9.758
15.2049 9.938
15.2200 10.242
15.2352 10.133
15.2504 10.133
15.2656 10.038
15.2807 10.067
15.2959 10.258
15.3111 9.911
15.3263 9.964
15.3414 9.889
15.3566 10.242
15.3718 10.290
15.3870 10.014
15.4021 10.228
15.4173 10.803
15.4325 10.214
15.4477 10.047
15.4628 9.991
15.4780 10.210
15.4932 9.773
15.5084 10.208
15.5235 10.036
15.5387 9.948
15.5539 10.146
15.5691 10.040
15.5842 10.291
15.5994 9.711
15.6146 9.806
15.6298 9.716
15.6449 9.635
15.6601 9.633
15.6753 9.673
15.6905 9.608
15.7056 9.804
15.7208 9.787
15.7360 9.886
15.7512 9.661
15.7663 9.866
15.7815 9.846
15.7967 9.793
15.8119 9.723
15.8270 9.583
15.8422 9.461
15.8574 9.620
15.8726 9.534
15.8877 9.522
15.9029 9.336
15.9181 9.621
15.9333 9.675
15.9484 9.509
15.9636 9.508
15.9788 9.854
15.9940 10.041
16.0091 9.565
16.0243 9.364
16.0395 9.480
16.0547 9.616
16.0698 9.437
16.0850 9.363
16.1002 9.437
16.1154 9.403
16.1305 9.554
16.1457 9.314
16.1609 9.615
16.1761 9.631
16.1912 9.505
16.2064 9.580
16.2216 9.609
16.2368 9.744
16.2519 9.461
16.2671 9.650
16.2823 9.757
16.2975 9.737
16.3126 9.724
16.3278 9.309
16.3430 9.540
16.3582 9.815
16.3733 9.816
16.3885 9.777
16.4037 9.782
16.4189 9.713
16.4340 9.597
16.4492 9.539
16.4644 9.590
16.4796 9.688
16.4947 9.468
16.5099 9.756
16.5251 9.751
16.5403 9.659
16.5554 9.382
16.5706 9.287
16.5858 9.639
16.6010 9.606
16.6161 9.636
16.6313 9.635
16.6465 9.574
16.6617 9.643
16.6768 10.021
16.6920 10.022
16.7072 9.951
16.7224 9.926
16.7375 10.027
16.7527 10.066
16.7679 10.020
16.7831 9.876
16.7982 9.737
16.8134 9.846
16.8286 9.765
16.8438 9.711
16.8589 9.720
16.8741 9.634
16.8893 9.476
16.9045 9.612
16.9196 9.895
16.9348 9.928
16.9500 9.842
16.9652 9.680
16.9803 9.815
16.9955 9.997
17.0107 9.898
17.0259 9.967
17.0410 10.084
17.0562 10.158
17.0714 10.178
17.0866 10.293
17.1017 10.446
17.1169 10.570
17.1321 10.868
17.1473 11.161
17.1624 11.533
17.1776 12.121
17.1928 12.869
17.2080 14.065
17.2231 15.148
17.2383 16.529
17.2535 17.795
17.2687 18.232
17.2838 18.428
17.2990 18.196
17.3142 17.209
17.3294 16.274
17.3445 15.967
17.3597 15.992
17.3749 16.117
17.3901 15.529
17.4052 14.395
17.4204 13.402
17.4356 12.499
17.4508 11.901
17.4659 11.778
17.4811 11.718
17.4963 11.546
17.5115 11.410
17.5266 11.198
17.5418 11.011
17.5570 10.985
17.5722 11.079
17.5873 11.097
17.6025 10.889
17.6177 10.961
17.6329 11.143
17.6480 11.356
17.6632 11.761
17.6784 11.589
17.6936 11.590
17.7087 11.696
17.7239 11.295
17.7391 11.167
17.7543 11.120
17.7694 10.932
17.7846 10.919
17.7998 10.761
17.8150 10.562
17.8301 10.459
17.8453 10.355
17.8605 10.296
17.8757 10.367
17.8908 10.468
17.9060 10.347
17.9212 10.214
17.9364 10.271
17.9515 10.122
17.9667 10.183
17.9819 10.335
17.9971 10.302
18.0122 10.375
18.0274 10.215
18.0426 10.215
18.0578 10.265
18.0729 10.135
18.0881 9.937
18.1033 9.983
18.1185 10.129
18.1336 10.039
18.1488 9.916
18.1640 9.843
18.1792 9.930
18.1943 10.226
18.2095 10.096
18.2247 9.921
18.2399 9.972
18.2550 9.900
18.2702 9.838
18.2854 9.972
18.3006 9.821
18.3157 9.830
18.3309 9.890
18.3461 10.142
18.3613 9.963
18.3764 9.855
18.3916 9.949
18.4068 9.716
18.4220 9.697
18.4371 9.691
18.4523 9.681
18.4675 9.673
18.4827 9.795
18.4978 9.791
18.5130 9.873
18.5282 9.871
18.5434 9.742
18.5585 9.634
18.5737 9.742
18.5889 9.633
18.6041 9.706
18.6192 9.728
18.6344 9.828
18.6496 9.948
18.6648 9.973
18.6799 9.818
18.6951 9.827
18.7103 9.695
18.7255 9.645
18.7406 9.828
18.7558 9.877
18.7710 9.810
18.7862 9.672
18.8013 9.677
18.8165 9.823
18.8317 9.833
18.8469 9.731
18.8620 9.845
18.8772 10.029
18.8924 10.246
18.9076 10.151
18.9227 9.999
18.9379 9.957
18.9531 9.989
18.9683 10.023
18.9834 10.031
18.9986 10.064
19.0138 10.158
19.0290 10.170
19.0441 10.278
19.0593 10.286
19.0745 10.017
19.0897 10.043
19.1048 10.279
19.1200 10.460
19.1352 10.381
19.1504 10.543
19.1655 10.737
19.1807 10.512
19.1959 10.376
19.2111 10.678
19.2262 10.749
19.2414 10.592
19.2566 10.609
19.2718 10.667
19.2869 10.826
19.3021 11.039
19.3173 11.123
19.3325 11.155
19.3476 10.905
19.3628 11.081
19.3780 11.272
19.3932 11.253
19.4083 11.301
19.4235 11.239
19.4387 11.002
19.4539 11.177
19.4690 11.507
19.4842 11.470
19.4994 11.284
19.5146 11.438
19.5297 11.612
19.5449 11.498
19.5601 11.576
19.5753 11.779
19.5904 11.942
19.6056 11.709
19.6208 11.522
19.6360 11.668
19.6511 11.516
19.6663 11.425
19.6815 11.387
19.6967 11.624
19.7118 11.918
19.7270 11.834
19.7422 11.860
19.7574 11.981
19.7725 11.888
19.7877 11.704
19.8029 11.625
19.8180 11.972
19.8332 12.261
19.8484 12.185
19.8636 12.411
19.8787 12.824
19.8939 13.014
19.9091 13.189
19.9243 13.511
19.9394 13.787
19.9546 14.149
19.9698 14.320
19.9850 14.357
20.0001 14.292
20.0153 14.305
20.0305 14.229
20.0457 13.976
20.0608 13.974
20.0760 13.706
20.0912 13.524
20.1064 13.624
20.1215 13.736
20.1367 13.433
20.1519 12.965
20.1671 12.786
20.1822 12.899
20.1974 12.898
20.2126 12.789
20.2278 12.827
20.2429 12.517
20.2581 12.006
20.2733 11.954
20.2885 12.052
20.3036 12.059
20.3188 12.101
20.3340 12.096
20.3492 12.084
20.3643 12.103
20.3795 11.706
20.3947 11.634
20.4099 11.946
20.4250 11.946
20.4402 11.835
20.4554 11.811
20.4706 11.745
20.4857 11.650
20.5009 11.720
20.5161 11.599
20.5313 11.500
20.5464 11.338
20.5616 11.233
20.5768 11.338
20.5920 11.537
20.6071 11.143
20.6223 10.796
20.6375 10.862
20.6527 10.730
20.6678 10.686
20.6830 10.591
20.6982 10.618
20.7134 10.533
20.7285 10.413
20.7437 10.307
20.7589 10.425
20.7741 10.418
20.7892 10.691
20.8044 10.336
20.8196 10.494
20.8348 10.579
20.8499 10.434
20.8651 10.488
20.8803 10.206
20.8955 10.228
20.9106 9.965
20.9258 10.174
20.9410 9.860
20.9562 10.158
20.9713 10.288
20.9865 10.062
21.0017 10.242
21.0169 10.000
21.0320 9.838
21.0472 9.597
21.0624 10.084
21.0776 9.618
21.0927 10.215
21.1079 9.737
21.1231 9.623
21.1383 10.105
21.1534 9.965
21.1686 9.825
21.1838 10.016
21.1990 9.732
21.2141 9.917
21.2293 9.744
21.2445 9.653
21.2597 9.871
21.2748 9.397
21.2900 9.506
21.3052 9.525
21.3204 9.336
21.3355 9.626
21.3507 9.792
21.3659 9.724
21.3811 9.372
21.3962 9.472
21.4114 9.216
21.4266 9.477
21.4418 9.302
21.4569 9.513
21.4721 9.206
21.4873 9.316
21.5025 9.652
21.5176 9.428
21.5328 9.242
21.5480 9.360
21.5632 9.293
21.5783 8.941
21.5935 9.333
21.6087 9.238
21.6239 9.111
21.6390 9.277
21.6542 9.009
21.6694 8.800
21.6846 9.217
21.6997 9.006
21.7149 9.088
21.7301 9.140
21.7453 9.306
21.7604 9.048
21.7756 8.933
21.7908 9.062
21.8060 9.173
21.8211 9.210
21.8363 9.141
21.8515 9.026
21.8667 9.002
21.8818 9.108
21.8970 8.908
21.9122 8.924
21.9274 8.841
21.9425 8.652
21.9577 8.792
21.9729 8.840
21.9881 8.862
22.0032 8.726
22.0184 8.612
22.0336 8.842
22.0488 8.868
22.0639 8.645
22.0791 8.795
22.0943 8.865
22.1095 8.918
22.1246 8.783
22.1398 8.539
22.1550 8.560
22.1702 8.553
22.1853 8.609
22.2005 8.739
22.2157 8.558
22.2309 8.609
22.2460 8.502
22.2612 8.575
22.2764 8.385
22.2916 8.628
22.3067 8.628
22.3219 8.608
22.3371 8.509
22.3523 8.439
22.3674 8.644
22.3826 8.654
22.3978 8.405
22.4130 8.288
22.4281 8.322
22.4433 8.456
22.4585 8.509
22.4737 8.405
22.4888 8.356
22.5040 8.401
22.5192 8.592
22.5344 8.436
22.5495 8.417
22.5647 8.497
22.5799 8.434
22.5951 8.441
22.6102 8.396
22.6254 8.623
22.6406 8.455
22.6558 8.336
22.6709 8.358
22.6861 8.332
22.7013 8.207
22.7165 7.911
22.7316 6.506
