'Id: "" Comment: "" Operator: "Lab Manager" Anode: "Mo" Scantype: "Still (Eiger2R_500K (1D mode))" TimePerStep: "300" X: "11.8" Y: "9.4" Z: "11.284" 
7.2532 19.031
7.2684 18.828
7.2836 19.050
7.2987 18.923
7.3139 19.240
7.3291 19.147
7.3443 18.837
7.3594 19.330
7.3746 18.955
7.3898 19.117
7.4050 19.397
7.4201 19.382
7.4353 19.044
7.4505 19.613
7.4657 19.654
7.4808 19.401
7.4960 19.446
7.5112 19.629
7.5264 20.024
7.5415 19.914
7.5567 19.961
7.5719 19.897
7.5871 20.086
7.6022 20.095
7.6174 20.134
7.6326 20.134
7.6478 19.978
7.6629 20.121
7.6781 20.266
7.6933 20.574
7.7085 20.615
7.7236 20.508
7.7388 20.632
7.7540 20.519
7.7692 20.584
7.7843 20.679
7.7995 20.873
7.8147 20.821
7.8299 20.589
7.8450 20.429
7.8602 20.404
7.8754 20.765
7.8905 20.775
7.9057 20.834
7.9209 21.039
7.9361 21.159
7.9512 20.878
7.9664 20.910
7.9816 21.219
7.9968 21.170
8.0119 21.019
8.0271 21.208
8.0423 21.420
8.0575 21.283
8.0726 21.327
8.0878 21.395
8.1030 21.406
8.1182 21.400
8.1333 21.545
8.1485 21.526
8.1637 21.636
8.1789 21.502
8.1940 21.110
8.2092 21.168
8.2244 21.511
8.2396 21.552
8.2547 21.451
8.2699 21.512
8.2851 22.238
8.3003 21.823
8.3154 21.690
8.3306 21.833
8.3458 22.329
8.3610 21.823
8.3761 22.072
8.3913 21.867
8.4065 21.825
8.4217 21.823
8.4368 22.076
8.4520 22.209
8.4672 22.159
8.4824 22.051
8.4975 21.851
8.5127 22.301
8.5279 22.169
8.5431 22.187
8.5582 22.382
8.5734 22.511
8.5886 22.381
8.6038 22.498
8.6189 22.485
8.6341 22.303
8.6493 22.438
8.6645 22.063
8.6796 22.727
8.6948 22.722
8.7100 22.378
8.7252 22.445
8.7403 23.265
8.7555 22.874
8.7707 22.981
8.7859 22.533
8.8010 22.554
8.8162 22.718
8.8314 22.693
8.8466 22.562
8.8617 22.364
8.8769 21.947
8.8921 23.077
8.9073 22.616
8.9224 22.473
8.9376 23.168
8.9528 23.058
8.9680 22.326
8.9831 22.610
8.9983 22.521
9.0135 22.735
9.0287 22.983
9.0438 23.032
9.0590 22.710
9.0742 22.843
9.0894 22.664
9.1045 22.723
9.1197 22.851
9.1349 22.846
9.1501 22.655
9.1652 22.925
9.1804 23.425
9.1956 23.188
9.2108 23.316
9.2259 22.890
9.2411 22.695
9.2563 22.669
9.2715 22.876
9.2866 22.866
9.3018 23.127
9.3170 23.081
9.3322 23.164
9.3473 23.064
9.3625 23.080
9.3777 23.472
9.3929 23.134
9.4080 23.322
9.4232 23.493
9.4384 23.434
9.4536 23.646
9.4687 23.429
9.4839 23.295
9.4991 23.647
9.5143 23.479
9.5294 23.352
9.5446 23.182
9.5598 23.295
9.5750 23.258
9.5901 23.159
9.6053 23.416
9.6205 23.407
9.6357 23.246
9.6508 23.512
9.6660 23.524
9.6812 23.466
9.6964 23.764
9.7115 24.056
9.7267 24.361
9.7419 24.244
9.7571 24.013
9.7722 24.094
9.7874 24.140
9.8026 23.880
9.8178 23.601
9.8329 23.438
9.8481 23.352
9.8633 23.623
9.8785 23.774
9.8936 23.851
9.9088 23.669
9.9240 23.486
9.9392 23.674
9.9543 23.603
9.9695 23.430
9.9847 23.286
9.9999 23.441
10.0150 23.705
10.0302 23.594
10.0454 23.500
10.0606 23.683
10.0757 23.671
10.0909 23.674
10.1061 23.738
10.1213 23.590
10.1364 23.430
10.1516 23.573
10.1668 23.872
10.1820 24.152
10.1971 24.439
10.2123 24.212
10.2275 23.964
10.2427 23.839
10.2578 23.941
10.2730 24.050
10.2882 23.848
10.3034 23.584
10.3185 23.273
10.3337 23.296
10.3489 23.193
10.3641 23.120
10.3792 23.006
10.3944 23.151
10.4096 23.164
10.4248 22.960
10.4399 23.091
10.4551 22.676
10.4703 22.605
10.4855 22.879
10.5006 22.616
10.5158 22.530
10.5310 22.795
10.5462 22.778
10.5613 22.979
10.5765 23.252
10.5917 22.735
10.6069 22.119
10.6220 22.488
10.6372 22.689
10.6524 22.710
10.6676 22.724
10.6827 22.650
10.6979 22.331
10.7131 21.857
10.7283 22.038
10.7434 22.470
10.7586 22.620
10.7738 22.391
10.7890 22.419
10.8041 22.680
10.8193 22.416
10.8345 22.335
10.8497 22.155
10.8648 22.389
10.8800 22.366
10.8952 22.103
10.9104 22.149
10.9255 22.297
10.9407 22.134
10.9559 21.974
10.9711 22.016
10.9862 22.249
11.0014 22.157
11.0166 22.358
11.0318 22.209
11.0469 21.756
11.0621 21.826
11.0773 21.678
11.0925 22.187
11.1076 22.178
11.1228 22.101
11.1380 21.984
11.1532 21.722
11.1683 21.891
11.1835 21.738
11.1987 22.063
11.2139 21.926
11.2290 21.874
11.2442 22.118
11.2594 22.231
11.2746 22.167
11.2897 21.954
11.3049 22.090
11.3201 21.886
11.3353 21.701
11.3504 21.854
11.3656 21.843
11.3808 21.450
11.3960 21.252
11.4111 21.488
11.4263 21.370
11.4415 21.278
11.4567 21.115
11.4718 21.369
11.4870 20.884
11.5022 20.693
11.5174 20.944
11.5325 20.986
11.5477 20.820
11.5629 20.886
11.5781 20.776
11.5932 20.474
11.6084 20.723
11.6236 20.979
11.6388 20.769
11.6539 20.511
11.6691 20.754
11.6843 20.986
11.6995 20.440
11.7146 20.655
11.7298 20.274
11.7450 20.015
11.7602 20.193
11.7753 20.320
11.7905 20.417
11.8057 20.444
11.8209 20.513
11.8360 19.612
11.8512 19.601
11.8664 20.235
11.8816 20.106
11.8967 19.734
11.9119 19.792
11.9271 19.441
11.9423 19.522
11.9574 19.766
11.9726 19.198
11.9878 18.861
12.0030 19.063
12.0181 19.536
12.0333 19.585
12.0485 18.944
12.0637 18.811
12.0788 18.778
12.0940 18.758
12.1092 19.001
12.1244 18.985
12.1395 18.719
12.1547 18.395
12.1699 18.209
12.1851 18.211
12.2002 18.338
12.2154 18.205
12.2306 18.198
12.2458 17.975
12.2609 17.943
12.2761 17.999
12.2913 18.024
12.3065 17.960
12.3216 17.673
12.3368 17.708
12.3520 17.666
12.3672 17.714
12.3823 17.693
12.3975 17.323
12.4127 17.284
12.4279 17.327
12.4430 17.075
12.4582 16.630
12.4734 16.809
12.4886 16.757
12.5037 16.846
12.5189 16.926
12.5341 16.817
12.5493 16.672
12.5644 16.550
12.5796 16.362
12.5948 16.205
12.6100 16.085
12.6251 16.082
12.6403 15.859
12.6555 15.942
12.6707 15.939
12.6858 15.696
12.7010 15.757
12.7162 15.475
12.7314 15.331
12.7465 15.558
12.7617 15.706
12.7769 15.419
12.7921 15.105
12.8072 15.066
12.8224 14.918
12.8376 14.979
12.8528 14.868
12.8679 14.727
12.8831 14.814
12.8983 14.791
12.9135 14.812
12.9286 14.998
12.9438 14.961
12.9590 14.710
12.9742 14.572
12.9893 14.623
13.0045 14.545
13.0197 14.405
13.0349 14.398
13.0500 14.259
13.0652 14.223
13.0804 14.058
13.0956 14.147
13.1107 14.155
13.1259 14.043
13.1411 13.906
13.1563 13.696
13.1714 13.849
13.1866 13.688
13.2018 13.457
13.2170 13.418
13.2321 13.398
13.2473 13.445
13.2625 13.396
13.2777 13.403
13.2928 13.443
13.3080 13.298
13.3232 13.229
13.3384 13.169
13.3535 12.961
13.3687 12.899
13.3839 13.161
13.3991 13.083
13.4142 12.760
13.4294 12.605
13.4446 12.638
13.4598 12.733
13.4749 12.721
13.4901 12.629
13.5053 12.703
13.5205 12.680
13.5356 12.394
13.5508 12.330
13.5660 12.382
13.5812 12.363
13.5963 12.253
13.6115 12.240
13.6267 12.278
13.6419 12.172
13.6570 12.079
13.6722 12.038
13.6874 12.039
13.7026 11.896
13.7177 12.014
13.7329 12.103
13.7481 11.852
13.7633 11.921
13.7784 12.149
13.7936 12.157
13.8088 11.923
13.8239 12.103
13.8391 12.322
13.8543 12.402
13.8695 12.386
13.8846 12.105
13.8998 12.314
13.9150 12.422
13.9302 11.978
13.9453 11.892
13.9605 11.965
13.9757 11.772
13.9909 11.513
14.0060 11.498
14.0212 11.462
14.0364 11.265
14.0516 11.227
14.0667 11.442
14.0819 11.458
14.0971 11.322
14.1123 11.433
14.1274 11.709
14.1426 11.539
14.1578 11.444
14.1730 11.682
14.1881 11.673
14.2033 11.757
14.2185 12.011
14.2337 12.054
14.2488 11.789
14.2640 11.832
14.2792 11.882
14.2944 12.347
14.3095 12.250
14.3247 12.321
14.3399 12.496
14.3551 12.846
14.3702 12.771
14.3854 12.963
14.4006 12.975
14.4158 13.160
14.4309 12.999
14.4461 12.898
14.4613 12.770
14.4765 12.692
14.4916 12.706
14.5068 12.289
14.5220 12.153
14.5372 11.843
14.5523 11.857
14.5675 11.759
14.5827 11.688
14.5979 11.343
14.6130 11.585
14.6282 11.023
14.6434 10.980
14.6586 11.120
14.6737 11.034
14.6889 10.865
14.7041 10.972
14.7193 10.911
14.7344 10.825
14.7496 10.981
14.7648 10.883
14.7800 11.278
14.7951 10.881
14.8103 10.733
14.8255 10.765
14.8407 10.649
14.8558 11.165
14.8710 10.685
14.8862 10.542
14.9014 10.823
14.9165 10.891
14.9317 10.564
14.9469 10.660
14.9621 10.791
14.9772 10.377
14.9924 10.428
15.0076 10.598
15.0228 10.490
15.0379 10.668
15.0531 10.611
15.0683 10.274
15.0835 10.471
15.0986 10.638
15.1138 10.579
15.1290 10.994
15.1442 10.591
15.1593 10.566
15.1745 10.397
15.1897 10.467
15.2049 10.333
15.2200 10.468
15.2352 10.261
15.2504 10.520
15.2656 10.390
15.2807 10.706
15.2959 10.110
15.3111 10.059
15.3263 10.585
15.3414 10.390
15.3566 10.445
15.3718 10.533
15.3870 10.284
15.4021 9.923
15.4173 10.608
15.4325 10.490
15.4477 10.467
15.4628 10.667
15.4780 10.705
15.4932 10.317
15.5084 10.321
15.5235 10.386
15.5387 10.483
15.5539 10.186
15.5691 10.380
15.5842 10.137
15.5994 10.252
15.6146 10.585
15.6298 10.180
15.6449 9.618
15.6601 9.930
15.6753 10.065
15.6905 9.996
15.7056 10.057
15.7208 9.996
15.7360 9.892
15.7512 9.861
15.7663 10.068
15.7815 9.784
15.7967 10.179
15.8119 9.852
15.8270 10.122
15.8422 9.866
15.8574 9.742
15.8726 9.670
15.8877 9.755
15.9029 9.523
15.9181 9.635
15.9333 9.818
15.9484 9.796
15.9636 9.906
15.9788 9.793
15.9940 9.809
16.0091 9.857
16.0243 9.840
16.0395 9.914
16.0547 9.914
16.0698 9.677
16.0850 9.676
16.1002 9.867
16.1154 9.897
16.1305 9.774
16.1457 9.612
16.1609 9.608
16.1761 9.697
16.1912 9.552
16.2064 9.657
16.2216 10.049
16.2368 9.900
16.2519 9.621
16.2671 9.728
16.2823 9.785
16.2975 10.100
16.3126 9.949
16.3278 9.814
16.3430 9.839
16.3582 10.199
16.3733 9.942
16.3885 9.870
16.4037 9.952
16.4189 9.932
16.4340 10.023
16.4492 9.839
16.4644 9.658
16.4796 9.700
16.4947 9.761
16.5099 9.703
16.5251 9.818
16.5403 9.848
16.5554 9.740
16.5706 9.883
16.5858 9.775
16.6010 9.797
16.6161 9.617
16.6313 9.466
16.6465 9.588
16.6617 9.734
16.6768 9.668
16.6920 9.736
16.7072 9.859
16.7224 10.031
16.7375 10.173
16.7527 9.969
16.7679 9.888
16.7831 9.980
16.7982 9.981
16.8134 9.795
16.8286 9.712
16.8438 9.820
16.8589 10.119
16.8741 10.011
16.8893 9.549
16.9045 9.544
16.9196 9.751
16.9348 9.718
16.9500 9.810
16.9652 9.957
16.9803 9.957
16.9955 9.939
17.0107 10.121
17.0259 10.078
17.0410 9.894
17.0562 10.080
17.0714 10.272
17.0866 10.310
17.1017 10.463
17.1169 10.639
17.1321 10.949
17.1473 11.252
17.1624 11.649
17.1776 12.196
17.1928 12.951
17.2080 13.755
17.2231 14.700
17.2383 16.279
17.2535 17.626
17.2687 18.385
17.2838 18.709
17.2990 17.908
17.3142 16.852
17.3294 16.314
17.3445 16.019
17.3597 16.016
17.3749 15.835
17.3901 15.315
17.4052 14.421
17.4204 13.277
17.4356 12.552
17.4508 11.986
17.4659 11.597
17.4811 11.648
17.4963 11.617
17.5115 11.550
17.5266 11.462
17.5418 11.403
17.5570 11.485
17.5722 11.483
17.5873 11.560
17.6025 11.654
17.6177 11.586
17.6329 11.215
17.6480 10.980
17.6632 11.196
17.6784 11.270
17.6936 11.138
17.7087 10.808
17.7239 10.783
17.7391 10.824
17.7543 10.591
17.7694 10.526
17.7846 10.358
17.7998 10.229
17.8150 10.367
17.8301 10.586
17.8453 10.621
17.8605 10.519
17.8757 10.542
17.8908 10.772
17.9060 10.803
17.9212 10.555
17.9364 10.412
17.9515 10.239
17.9667 10.411
17.9819 10.502
17.9971 10.291
18.0122 10.376
18.0274 10.544
18.0426 10.417
18.0578 10.355
18.0729 10.158
18.0881 10.069
18.1033 10.074
18.1185 9.986
18.1336 9.980
18.1488 9.842
18.1640 9.963
18.1792 10.037
18.1943 9.776
18.2095 9.872
18.2247 9.762
18.2399 9.683
18.2550 9.699
18.2702 10.006
18.2854 10.003
18.3006 9.906
18.3157 9.697
18.3309 9.753
18.3461 9.792
18.3613 9.546
18.3764 9.779
18.3916 9.903
18.4068 9.606
18.4220 9.640
18.4371 9.806
18.4523 9.797
18.4675 9.753
18.4827 9.500
18.4978 9.720
18.5130 9.890
18.5282 9.700
18.5434 9.684
18.5585 9.845
18.5737 9.781
18.5889 9.619
18.6041 9.754
18.6192 10.000
18.6344 10.167
18.6496 9.935
18.6648 9.756
18.6799 9.836
18.6951 9.764
18.7103 9.775
18.7255 10.074
18.7406 10.017
18.7558 9.851
18.7710 9.944
18.7862 9.554
18.8013 9.527
18.8165 9.485
18.8317 9.641
18.8469 9.916
18.8620 9.853
18.8772 9.948
18.8924 9.868
18.9076 9.760
18.9227 10.006
18.9379 10.061
18.9531 10.064
18.9683 10.059
18.9834 10.199
18.9986 10.181
19.0138 10.067
19.0290 10.152
19.0441 10.159
19.0593 10.083
19.0745 10.164
19.0897 10.247
19.1048 10.443
19.1200 10.387
19.1352 10.341
19.1504 10.382
19.1655 10.488
19.1807 10.401
19.1959 10.538
19.2111 10.716
19.2262 10.711
19.2414 10.882
19.2566 10.971
19.2718 10.957
19.2869 10.925
19.3021 10.887
19.3173 10.924
19.3325 10.827
19.3476 10.962
19.3628 11.268
19.3780 11.172
19.3932 11.108
19.4083 11.267
19.4235 11.351
19.4387 11.321
19.4539 11.153
19.4690 11.271
19.4842 11.464
19.4994 11.432
19.5146 11.380
19.5297 11.677
19.5449 11.840
19.5601 11.709
19.5753 11.520
19.5904 11.611
19.6056 11.636
19.6208 11.472
19.6360 11.399
19.6511 11.514
19.6663 11.737
19.6815 11.960
19.6967 11.827
19.7118 11.734
19.7270 11.824
19.7422 11.658
19.7574 11.618
19.7725 11.843
19.7877 11.913
19.8029 11.769
19.8180 11.896
19.8332 11.939
19.8484 11.925
19.8636 12.213
19.8787 12.459
19.8939 12.683
19.9091 13.012
19.9243 13.389
19.9394 13.459
19.9546 13.919
19.9698 14.165
19.9850 14.212
20.0001 14.372
20.0153 14.077
20.0305 13.771
20.0457 13.579
20.0608 13.620
20.0760 13.579
20.0912 13.529
20.1064 13.452
20.1215 13.456
20.1367 13.658
20.1519 13.462
20.1671 13.126
20.1822 12.940
20.1974 12.911
20.2126 12.773
20.2278 12.694
20.2429 12.696
20.2581 12.514
20.2733 12.169
20.2885 12.001
20.3036 11.952
20.3188 12.025
20.3340 11.823
20.3492 11.656
20.3643 11.470
20.3795 11.404
20.3947 11.132
20.4099 11.170
20.4250 11.053
20.4402 10.812
20.4554 10.824
20.4706 11.034
20.4857 11.043
20.5009 10.775
20.5161 10.790
20.5313 10.762
20.5464 10.857
20.5616 10.653
20.5768 10.860
20.5920 10.759
20.6071 10.808
20.6223 10.919
20.6375 10.859
20.6527 10.615
20.6678 10.508
20.6830 10.492
20.6982 10.755
20.7134 10.562
20.7285 10.522
20.7437 10.477
20.7589 10.504
20.7741 10.468
20.7892 10.577
20.8044 10.336
20.8196 10.339
20.8348 10.030
20.8499 10.558
20.8651 10.303
20.8803 10.305
20.8955 10.417
20.9106 10.122
20.9258 10.033
20.9410 10.241
20.9562 10.174
20.9713 10.048
20.9865 10.139
21.0017 10.092
21.0169 10.130
21.0320 10.252
21.0472 10.252
21.0624 10.058
21.0776 9.965
21.0927 9.808
21.1079 10.049
21.1231 9.623
21.1383 9.776
21.1534 9.886
21.1686 9.999
21.1838 9.779
21.1990 9.686
21.2141 9.656
21.2293 9.520
21.2445 9.558
21.2597 9.903
21.2748 9.208
21.2900 9.717
21.3052 9.532
21.3204 9.751
21.3355 9.363
21.3507 9.280
21.3659 9.342
21.3811 9.676
21.3962 9.681
21.4114 9.512
21.4266 9.601
21.4418 9.581
21.4569 9.760
21.4721 9.559
21.4873 9.658
21.5025 9.157
21.5176 9.503
21.5328 9.532
21.5480 9.180
21.5632 9.295
21.5783 8.817
21.5935 9.263
21.6087 9.451
21.6239 9.369
21.6390 9.191
21.6542 9.163
21.6694 9.143
21.6846 9.171
21.6997 9.081
21.7149 8.896
21.7301 9.056
21.7453 9.112
21.7604 9.312
21.7756 9.168
21.7908 8.946
21.8060 8.985
21.8211 8.973
21.8363 9.049
21.8515 9.149
21.8667 9.096
21.8818 9.111
21.8970 8.830
21.9122 8.849
21.9274 8.949
21.9425 9.042
21.9577 8.967
21.9729 8.804
21.9881 8.804
22.0032 8.871
22.0184 8.864
22.0336 9.018
22.0488 9.132
22.0639 8.927
22.0791 8.930
22.0943 8.910
22.1095 8.601
22.1246 8.570
22.1398 8.641
22.1550 8.701
22.1702 8.743
22.1853 8.657
22.2005 8.679
22.2157 8.844
22.2309 8.553
22.2460 8.583
22.2612 8.569
22.2764 8.591
22.2916 8.855
22.3067 8.772
22.3219 8.704
22.3371 8.797
22.3523 8.488
22.3674 8.421
22.3826 8.389
22.3978 8.488
22.4130 8.629
22.4281 8.458
22.4433 8.486
22.4585 8.433
22.4737 8.585
22.4888 8.374
22.5040 8.608
22.5192 8.803
22.5344 8.452
22.5495 8.218
22.5647 8.191
22.5799 8.517
22.5951 8.469
22.6102 8.268
22.6254 8.135
22.6406 8.428
22.6558 8.371
22.6709 8.472
22.6861 8.481
22.7013 8.085
22.7165 7.879
22.7316 6.402
