'Id: "" Comment: "" Operator: "Lab Manager" Anode: "Mo" Scantype: "Still (Eiger2R_500K (1D mode))" TimePerStep: "300" X: "11.8" Y: "9.4" Z: "11.284" 
7.2532 19.093
7.2684 19.186
7.2836 19.244
7.2987 18.636
7.3139 19.125
7.3291 19.343
7.3443 19.272
7.3594 19.384
7.3746 19.328
7.3898 19.587
7.4050 19.726
7.4201 19.711
7.4353 19.544
7.4505 19.483
7.4657 19.586
7.4808 19.735
7.4960 19.752
7.5112 19.726
7.5264 19.926
7.5415 20.026
7.5567 19.860
7.5719 19.935
7.5871 19.873
7.6022 19.865
7.6174 19.940
7.6326 20.016
7.6478 20.221
7.6629 20.601
7.6781 20.641
7.6933 20.515
7.7085 20.229
7.7236 20.229
7.7388 20.624
7.7540 20.728
7.7692 20.717
7.7843 20.696
7.7995 20.594
7.8147 20.756
7.8299 20.763
7.8450 20.573
7.8602 20.634
7.8754 21.159
7.8905 21.478
7.9057 21.127
7.9209 21.040
7.9361 21.280
7.9512 21.526
7.9664 21.470
7.9816 21.055
7.9968 20.871
8.0119 21.034
8.0271 21.448
8.0423 21.284
8.0575 21.270
8.0726 21.228
8.0878 21.260
8.1030 21.478
8.1182 21.311
8.1333 21.435
8.1485 21.587
8.1637 21.495
8.1789 21.666
8.1940 21.682
8.2092 21.430
8.2244 21.519
8.2396 21.429
8.2547 21.473
8.2699 21.523
8.2851 22.064
8.3003 22.090
8.3154 21.861
8.3306 21.648
8.3458 21.782
8.3610 22.243
8.3761 21.769
8.3913 22.368
8.4065 22.172
8.4217 22.116
8.4368 22.152
8.4520 21.631
8.4672 21.877
8.4824 22.130
8.4975 22.123
8.5127 22.229
8.5279 22.104
8.5431 22.238
8.5582 22.535
8.5734 22.225
8.5886 22.124
8.6038 21.832
8.6189 22.600
8.6341 22.165
8.6493 22.252
8.6645 22.812
8.6796 22.340
8.6948 22.683
8.7100 22.735
8.7252 22.414
8.7403 22.743
8.7555 23.067
8.7707 22.229
8.7859 22.207
8.8010 22.292
8.8162 22.622
8.8314 22.553
8.8466 23.025
8.8617 22.122
8.8769 22.633
8.8921 22.780
8.9073 22.766
8.9224 22.610
8.9376 22.246
8.9528 22.370
8.9680 22.464
8.9831 22.716
8.9983 22.423
9.0135 22.453
9.0287 22.818
9.0438 22.852
9.0590 23.035
9.0742 23.166
9.0894 23.079
9.1045 23.143
9.1197 22.765
9.1349 22.377
9.1501 22.691
9.1652 23.097
9.1804 23.230
9.1956 23.179
9.2108 23.083
9.2259 22.858
9.2411 23.185
9.2563 23.030
9.2715 23.454
9.2866 23.409
9.3018 23.362
9.3170 23.113
9.3322 23.099
9.3473 23.274
9.3625 23.211
9.3777 23.158
9.3929 23.214
9.4080 23.344
9.4232 23.292
9.4384 23.167
9.4536 23.370
9.4687 23.547
9.4839 23.637
9.4991 23.058
9.5143 22.702
9.5294 23.646
9.5446 23.623
9.5598 23.437
9.5750 23.409
9.5901 23.486
9.6053 23.709
9.6205 23.577
9.6357 23.590
9.6508 23.492
9.6660 23.660
9.6812 23.927
9.6964 24.176
9.7115 24.449
9.7267 24.266
9.7419 24.214
9.7571 24.077
9.7722 23.852
9.7874 23.859
9.8026 23.582
9.8178 23.234
9.8329 23.494
9.8481 23.793
9.8633 23.737
9.8785 23.654
9.8936 23.387
9.9088 23.460
9.9240 23.656
9.9392 23.514
9.9543 23.669
9.9695 24.073
9.9847 23.785
9.9999 23.490
10.0150 23.803
10.0302 23.813
10.0454 23.757
10.0606 23.567
10.0757 23.516
10.0909 23.698
10.1061 23.814
10.1213 23.827
10.1364 23.703
10.1516 23.871
10.1668 23.930
10.1820 24.150
10.1971 24.048
10.2123 23.841
10.2275 24.162
10.2427 24.197
10.2578 23.913
10.2730 23.948
10.2882 23.952
10.3034 23.773
10.3185 23.861
10.3337 23.578
10.3489 23.180
10.3641 22.992
10.3792 23.086
10.3944 23.089
10.4096 22.946
10.4248 22.673
10.4399 22.882
10.4551 22.697
10.4703 22.876
10.4855 23.017
10.5006 22.854
10.5158 22.583
10.5310 22.647
10.5462 23.218
10.5613 22.990
10.5765 22.916
10.5917 22.901
10.6069 22.984
10.6220 22.738
10.6372 22.552
10.6524 22.691
10.6676 22.858
10.6827 22.365
10.6979 22.419
10.7131 22.501
10.7283 22.373
10.7434 22.188
10.7586 22.571
10.7738 22.452
10.7890 22.420
10.8041 22.315
10.8193 22.264
10.8345 22.237
10.8497 22.218
10.8648 22.152
10.8800 22.559
10.8952 22.475
10.9104 22.321
10.9255 22.089
10.9407 21.993
10.9559 22.019
10.9711 21.806
10.9862 21.945
11.0014 22.277
11.0166 22.013
11.0318 21.886
11.0469 21.612
11.0621 21.864
11.0773 22.188
11.0925 21.822
11.1076 21.657
11.1228 21.926
11.1380 21.714
11.1532 21.949
11.1683 22.080
11.1835 22.125
11.1987 22.135
11.2139 21.736
11.2290 21.861
11.2442 22.182
11.2594 21.894
11.2746 21.492
11.2897 21.354
11.3049 21.558
11.3201 21.773
11.3353 21.819
11.3504 21.733
11.3656 21.337
11.3808 21.465
11.3960 21.692
11.4111 21.530
11.4263 21.448
11.4415 21.073
11.4567 21.188
11.4718 21.402
11.4870 21.392
11.5022 21.232
11.5174 21.082
11.5325 21.001
11.5477 21.081
11.5629 21.186
11.5781 21.041
11.5932 20.543
11.6084 20.630
11.6236 20.574
11.6388 20.629
11.6539 20.203
11.6691 20.381
11.6843 20.519
11.6995 20.729
11.7146 20.400
11.7298 20.304
11.7450 20.277
11.7602 20.650
11.7753 20.602
11.7905 20.171
11.8057 19.814
11.8209 19.909
11.8360 19.942
11.8512 19.937
11.8664 20.094
11.8816 19.697
11.8967 19.504
11.9119 19.596
11.9271 19.970
11.9423 19.564
11.9574 19.215
11.9726 19.263
11.9878 19.219
12.0030 19.286
12.0181 19.341
12.0333 19.357
12.0485 19.062
12.0637 19.096
12.0788 19.051
12.0940 18.813
12.1092 18.619
12.1244 18.322
12.1395 18.295
12.1547 18.376
12.1699 18.353
12.1851 18.288
12.2002 18.221
12.2154 18.061
12.2306 17.863
12.2458 17.722
12.2609 17.767
12.2761 17.540
12.2913 17.479
12.3065 17.313
12.3216 17.474
12.3368 17.600
12.3520 17.828
12.3672 17.461
12.3823 17.434
12.3975 17.476
12.4127 17.052
12.4279 16.994
12.4430 17.166
12.4582 17.121
12.4734 16.720
12.4886 16.908
12.5037 16.985
12.5189 16.738
12.5341 16.463
12.5493 16.473
12.5644 16.345
12.5796 15.885
12.5948 16.208
12.6100 16.294
12.6251 16.013
12.6403 15.993
12.6555 15.892
12.6707 16.056
12.6858 15.857
12.7010 15.337
12.7162 15.426
12.7314 15.607
12.7465 15.485
12.7617 15.391
12.7769 15.572
12.7921 15.443
12.8072 15.003
12.8224 14.827
12.8376 14.999
12.8528 15.071
12.8679 14.705
12.8831 14.582
12.8983 14.797
12.9135 14.793
12.9286 14.736
12.9438 14.609
12.9590 14.481
12.9742 14.439
12.9893 14.315
13.0045 14.241
13.0197 14.141
13.0349 13.925
13.0500 13.917
13.0652 14.046
13.0804 14.080
13.0956 14.022
13.1107 13.962
13.1259 13.957
13.1411 13.709
13.1563 13.574
13.1714 13.653
13.1866 13.569
13.2018 13.483
13.2170 13.363
13.2321 13.146
13.2473 13.118
13.2625 13.220
13.2777 13.461
13.2928 13.574
13.3080 13.228
13.3232 13.152
13.3384 13.145
13.3535 13.055
13.3687 13.081
13.3839 13.030
13.3991 13.006
13.4142 12.831
13.4294 12.670
13.4446 12.665
13.4598 12.672
13.4749 12.640
13.4901 12.546
13.5053 12.499
13.5205 12.487
13.5356 12.578
13.5508 12.344
13.5660 12.470
13.5812 12.384
13.5963 12.251
13.6115 12.171
13.6267 12.085
13.6419 11.838
13.6570 11.846
13.6722 11.881
13.6874 11.841
13.7026 11.996
13.7177 12.123
13.7329 12.036
13.7481 11.848
13.7633 11.774
13.7784 11.772
13.7936 11.948
13.8088 12.292
13.8239 12.319
13.8391 12.233
13.8543 12.201
13.8695 12.540
13.8846 12.263
13.8998 12.214
13.9150 12.403
13.9302 12.421
13.9453 11.861
13.9605 11.820
13.9757 11.761
13.9909 11.770
14.0060 11.727
14.0212 11.833
14.0364 11.849
14.0516 11.640
14.0667 11.479
14.0819 11.534
14.0971 11.446
14.1123 11.693
14.1274 11.761
14.1426 11.403
14.1578 11.527
14.1730 11.476
14.1881 11.585
14.2033 11.599
14.2185 11.807
14.2337 11.792
14.2488 11.822
14.2640 11.952
14.2792 11.835
14.2944 12.271
14.3095 11.921
14.3247 11.987
14.3399 12.151
14.3551 12.504
14.3702 12.636
14.3854 12.890
14.4006 13.125
14.4158 13.020
14.4309 12.644
14.4461 13.004
14.4613 13.282
14.4765 12.989
14.4916 13.045
14.5068 12.614
14.5220 12.837
14.5372 12.970
14.5523 13.048
14.5675 12.541
14.5827 12.455
14.5979 12.427
14.6130 11.860
14.6282 11.773
14.6434 11.913
14.6586 11.736
14.6737 11.491
14.6889 11.437
14.7041 11.209
14.7193 11.444
14.7344 11.226
14.7496 11.305
14.7648 11.050
14.7800 11.188
14.7951 11.230
14.8103 10.987
14.8255 10.569
14.8407 10.752
14.8558 10.722
14.8710 11.022
14.8862 10.679
14.9014 10.633
14.9165 11.094
14.9317 10.864
14.9469 11.033
14.9621 10.612
14.9772 10.354
14.9924 10.461
15.0076 10.270
15.0228 10.531
15.0379 10.624
15.0531 11.057
15.0683 10.494
15.0835 10.394
15.0986 10.641
15.1138 10.576
15.1290 10.542
15.1442 10.628
15.1593 10.652
15.1745 10.863
15.1897 10.335
15.2049 10.705
15.2200 10.518
15.2352 10.482
15.2504 10.459
15.2656 10.277
15.2807 10.424
15.2959 10.454
15.3111 10.396
15.3263 10.543
15.3414 10.286
15.3566 10.442
15.3718 10.275
15.3870 10.251
15.4021 10.232
15.4173 10.562
15.4325 10.336
15.4477 10.567
15.4628 10.502
15.4780 10.414
15.4932 10.181
15.5084 10.228
15.5235 10.579
15.5387 10.179
15.5539 10.355
15.5691 10.383
15.5842 10.035
15.5994 10.376
15.6146 10.093
15.6298 10.390
15.6449 10.180
15.6601 10.065
15.6753 9.940
15.6905 9.895
15.7056 9.922
15.7208 9.957
15.7360 10.011
15.7512 9.902
15.7663 9.679
15.7815 9.719
15.7967 9.777
15.8119 9.983
15.8270 10.001
15.8422 9.752
15.8574 9.892
15.8726 9.628
15.8877 9.413
15.9029 9.715
15.9181 9.930
15.9333 9.970
15.9484 9.872
15.9636 9.609
15.9788 9.876
15.9940 9.761
16.0091 9.629
16.0243 9.578
16.0395 9.804
16.0547 9.720
16.0698 9.641
16.0850 9.634
16.1002 9.626
16.1154 9.609
16.1305 9.777
16.1457 9.778
16.1609 9.522
16.1761 9.751
16.1912 9.812
16.2064 9.924
16.2216 9.700
16.2368 9.607
16.2519 10.017
16.2671 10.029
16.2823 9.846
16.2975 9.947
16.3126 10.274
16.3278 10.114
16.3430 10.186
16.3582 10.134
16.3733 10.142
16.3885 10.197
16.4037 10.232
16.4189 9.991
16.4340 10.066
16.4492 10.012
16.4644 9.853
16.4796 10.008
16.4947 9.889
16.5099 9.883
16.5251 9.974
16.5403 9.792
16.5554 9.643
16.5706 9.576
16.5858 9.552
16.6010 9.768
16.6161 9.726
16.6313 9.526
16.6465 9.594
16.6617 9.984
16.6768 9.910
16.6920 9.998
16.7072 9.949
16.7224 10.031
16.7375 9.810
16.7527 9.751
16.7679 9.906
16.7831 10.003
16.7982 9.916
16.8134 9.996
16.8286 9.884
16.8438 10.074
16.8589 10.010
16.8741 9.787
16.8893 9.784
16.9045 9.738
16.9196 9.564
16.9348 9.458
16.9500 9.637
16.9652 9.855
16.9803 10.060
16.9955 9.904
17.0107 9.917
17.0259 10.026
17.0410 10.064
17.0562 10.129
17.0714 10.288
17.0866 10.431
17.1017 10.539
17.1169 10.672
17.1321 10.819
17.1473 11.153
17.1624 11.717
17.1776 12.368
17.1928 12.952
17.2080 13.708
17.2231 14.850
17.2383 15.844
17.2535 17.150
17.2687 18.429
17.2838 18.507
17.2990 17.669
17.3142 16.874
17.3294 16.333
17.3445 16.098
17.3597 15.884
17.3749 15.797
17.3901 15.385
17.4052 14.242
17.4204 13.328
17.4356 12.610
17.4508 11.914
17.4659 11.489
17.4811 11.295
17.4963 11.204
17.5115 11.155
17.5266 11.034
17.5418 11.035
17.5570 11.135
17.5722 11.286
17.5873 11.367
17.6025 11.233
17.6177 11.045
17.6329 10.959
17.6480 10.805
17.6632 10.673
17.6784 10.794
17.6936 10.784
17.7087 10.739
17.7239 10.847
17.7391 10.678
17.7543 10.656
17.7694 10.945
17.7846 10.987
17.7998 11.149
17.8150 11.255
17.8301 11.268
17.8453 11.446
17.8605 11.675
17.8757 11.838
17.8908 11.866
17.9060 11.650
17.9212 11.621
17.9364 11.406
17.9515 11.137
17.9667 11.108
17.9819 10.900
17.9971 10.967
18.0122 10.789
18.0274 10.604
18.0426 10.608
18.0578 10.608
18.0729 10.482
18.0881 10.302
18.1033 10.146
18.1185 10.108
18.1336 9.945
18.1488 10.083
18.1640 10.098
18.1792 9.934
18.1943 9.802
18.2095 9.859
18.2247 9.819
18.2399 9.640
18.2550 9.776
18.2702 10.057
18.2854 9.920
18.3006 9.837
18.3157 9.927
18.3309 9.867
18.3461 9.801
18.3613 9.534
18.3764 9.481
18.3916 9.585
18.4068 9.804
18.4220 9.972
18.4371 9.851
18.4523 9.897
18.4675 10.108
18.4827 9.881
18.4978 9.844
18.5130 9.835
18.5282 9.833
18.5434 9.954
18.5585 10.227
18.5737 10.142
18.5889 9.801
18.6041 9.782
18.6192 9.863
18.6344 9.785
18.6496 9.758
18.6648 9.837
18.6799 9.984
18.6951 9.781
18.7103 9.650
18.7255 9.754
18.7406 9.877
18.7558 9.587
18.7710 9.502
18.7862 9.667
18.8013 9.505
18.8165 9.779
18.8317 10.047
18.8469 10.038
18.8620 9.685
18.8772 9.757
18.8924 9.962
18.9076 9.915
18.9227 10.266
18.9379 10.353
18.9531 10.251
18.9683 10.210
18.9834 10.170
18.9986 10.020
19.0138 9.862
19.0290 9.829
19.0441 10.033
19.0593 10.263
19.0745 10.229
19.0897 10.280
19.1048 10.324
19.1200 10.468
19.1352 10.632
19.1504 10.498
19.1655 10.332
19.1807 10.622
19.1959 10.760
19.2111 10.702
19.2262 10.652
19.2414 10.792
19.2566 10.862
19.2718 10.889
19.2869 10.949
19.3021 10.942
19.3173 11.023
19.3325 10.953
19.3476 10.938
19.3628 10.953
19.3780 11.188
19.3932 11.116
19.4083 11.096
19.4235 11.304
19.4387 11.258
19.4539 11.254
19.4690 11.337
19.4842 11.423
19.4994 11.349
19.5146 11.392
19.5297 11.326
19.5449 11.385
19.5601 11.636
19.5753 11.614
19.5904 11.836
19.6056 11.918
19.6208 11.692
19.6360 11.645
19.6511 11.729
19.6663 11.723
19.6815 11.697
19.6967 11.647
19.7118 11.674
19.7270 11.754
19.7422 11.845
19.7574 11.649
19.7725 11.526
19.7877 11.834
19.8029 12.030
19.8180 12.169
19.8332 12.214
19.8484 12.005
19.8636 12.151
19.8787 12.452
19.8939 12.676
19.9091 12.953
19.9243 12.952
19.9394 13.472
19.9546 14.156
19.9698 14.271
19.9850 14.387
20.0001 14.282
20.0153 14.053
20.0305 13.929
20.0457 13.913
20.0608 13.832
20.0760 13.628
20.0912 13.664
20.1064 13.605
20.1215 13.365
20.1367 13.385
20.1519 13.130
20.1671 12.864
20.1822 12.931
20.1974 12.781
20.2126 12.597
20.2278 12.679
20.2429 12.597
20.2581 12.303
20.2733 12.099
20.2885 11.986
20.3036 11.644
20.3188 11.719
20.3340 11.758
20.3492 11.961
20.3643 11.952
20.3795 11.700
20.3947 11.278
20.4099 11.134
20.4250 11.198
20.4402 10.913
20.4554 10.979
20.4706 10.989
20.4857 11.061
20.5009 10.900
20.5161 10.933
20.5313 10.812
20.5464 10.758
20.5616 11.019
20.5768 10.878
20.5920 11.050
20.6071 10.786
20.6223 10.812
20.6375 10.658
20.6527 10.713
20.6678 10.788
20.6830 10.733
20.6982 10.730
20.7134 11.186
20.7285 10.908
20.7437 10.905
20.7589 10.938
20.7741 10.501
20.7892 10.331
20.8044 10.641
20.8196 10.592
20.8348 10.561
20.8499 10.375
20.8651 10.323
20.8803 10.511
20.8955 10.622
20.9106 10.542
20.9258 10.308
20.9410 10.130
20.9562 10.214
20.9713 10.505
20.9865 10.332
21.0017 10.156
21.0169 10.579
21.0320 9.943
21.0472 9.679
21.0624 10.027
21.0776 10.223
21.0927 10.196
21.1079 9.919
21.1231 9.884
21.1383 9.756
21.1534 9.740
21.1686 10.038
21.1838 9.841
21.1990 9.773
21.2141 9.788
21.2293 9.450
21.2445 9.889
21.2597 9.381
21.2748 9.487
21.2900 9.302
21.3052 9.729
21.3204 9.704
21.3355 9.498
21.3507 9.243
21.3659 9.321
21.3811 9.500
21.3962 9.600
21.4114 9.381
21.4266 9.761
21.4418 9.599
21.4569 9.251
21.4721 9.224
21.4873 9.357
21.5025 9.296
21.5176 9.359
21.5328 9.189
21.5480 9.056
21.5632 9.466
21.5783 9.325
21.5935 9.296
21.6087 9.346
21.6239 9.233
21.6390 9.260
21.6542 9.121
21.6694 8.911
21.6846 8.873
21.6997 9.001
21.7149 9.048
21.7301 9.181
21.7453 8.925
21.7604 8.964
21.7756 8.980
21.7908 9.056
21.8060 9.189
21.8211 9.048
21.8363 9.011
21.8515 8.936
21.8667 8.943
21.8818 9.100
21.8970 9.137
21.9122 9.198
21.9274 9.299
21.9425 8.906
21.9577 8.848
21.9729 9.129
21.9881 8.899
22.0032 8.672
22.0184 8.749
22.0336 8.810
22.0488 8.908
22.0639 8.813
22.0791 8.628
22.0943 8.508
22.1095 8.675
22.1246 8.706
22.1398 8.524
22.1550 8.435
22.1702 8.543
22.1853 8.507
22.2005 8.496
22.2157 8.619
22.2309 8.739
22.2460 8.489
22.2612 8.447
22.2764 8.595
22.2916 8.556
22.3067 8.479
22.3219 8.716
22.3371 8.787
22.3523 8.408
22.3674 8.479
22.3826 8.711
22.3978 8.802
22.4130 8.370
22.4281 8.653
22.4433 8.294
22.4585 8.449
22.4737 8.557
22.4888 8.409
22.5040 8.608
22.5192 8.262
22.5344 8.505
22.5495 8.309
22.5647 8.471
22.5799 8.480
22.5951 8.408
22.6102 8.528
22.6254 8.318
22.6406 8.693
22.6558 8.622
22.6709 8.301
22.6861 8.311
22.7013 8.041
22.7165 8.265
22.7316 6.538
