'Id: "" Comment: "" Operator: "Lab Manager" Anode: "Mo" Scantype: "Still (Eiger2R_500K (1D mode))" TimePerStep: "300" X: "11.8" Y: "9.4" Z: "11.284" 
7.2532 18.868
7.2684 18.415
7.2836 18.877
7.2987 18.648
7.3139 18.712
7.3291 18.944
7.3443 19.183
7.3594 18.987
7.3746 19.096
7.3898 19.214
7.4050 19.235
7.4201 19.248
7.4353 19.029
7.4505 19.248
7.4657 19.276
7.4808 19.209
7.4960 19.351
7.5112 19.542
7.5264 19.608
7.5415 19.492
7.5567 19.648
7.5719 19.787
7.5871 19.822
7.6022 19.934
7.6174 20.217
7.6326 20.035
7.6478 20.082
7.6629 20.034
7.6781 20.186
7.6933 20.121
7.7085 20.076
7.7236 20.428
7.7388 20.509
7.7540 20.022
7.7692 20.119
7.7843 20.575
7.7995 20.553
7.8147 20.421
7.8299 20.378
7.8450 20.472
7.8602 20.804
7.8754 20.822
7.8905 20.683
7.9057 20.651
7.9209 20.536
7.9361 20.589
7.9512 20.848
7.9664 20.855
7.9816 20.673
7.9968 20.769
8.0119 20.657
8.0271 20.847
8.0423 21.111
8.0575 20.982
8.0726 20.841
8.0878 20.883
8.1030 21.179
8.1182 21.355
8.1333 21.381
8.1485 21.125
8.1637 21.167
8.1789 21.688
8.1940 21.272
8.2092 21.304
8.2244 21.359
8.2396 21.404
8.2547 21.467
8.2699 21.290
8.2851 21.272
8.3003 21.636
8.3154 21.276
8.3306 21.565
8.3458 21.615
8.3610 21.731
8.3761 22.297
8.3913 21.808
8.4065 21.962
8.4217 22.123
8.4368 21.698
8.4520 21.847
8.4672 21.989
8.4824 21.342
8.4975 21.920
8.5127 22.290
8.5279 21.762
8.5431 22.183
8.5582 21.862
8.5734 22.301
8.5886 22.104
8.6038 21.813
8.6189 21.931
8.6341 21.838
8.6493 21.703
8.6645 21.870
8.6796 22.164
8.6948 22.115
8.7100 22.187
8.7252 22.286
8.7403 21.912
8.7555 22.136
8.7707 22.467
8.7859 22.597
8.8010 22.171
8.8162 22.050
8.8314 22.505
8.8466 21.915
8.8617 22.645
8.8769 22.324
8.8921 22.766
8.9073 22.540
8.9224 21.979
8.9376 22.745
8.9528 23.062
8.9680 22.527
8.9831 22.643
8.9983 23.053
9.0135 22.959
9.0287 23.073
9.0438 22.727
9.0590 22.416
9.0742 22.875
9.0894 22.861
9.1045 22.399
9.1197 22.504
9.1349 22.516
9.1501 22.259
9.1652 22.815
9.1804 22.644
9.1956 22.673
9.2108 22.452
9.2259 22.657
9.2411 22.717
9.2563 22.587
9.2715 22.869
9.2866 22.870
9.3018 23.213
9.3170 23.143
9.3322 22.871
9.3473 22.646
9.3625 22.771
9.3777 22.847
9.3929 22.620
9.4080 22.822
9.4232 23.026
9.4384 23.013
9.4536 22.736
9.4687 22.624
9.4839 23.107
9.4991 23.174
9.5143 22.979
9.5294 22.753
9.5446 22.854
9.5598 22.878
9.5750 22.994
9.5901 23.256
9.6053 23.137
9.6205 22.958
9.6357 22.756
9.6508 22.973
9.6660 23.471
9.6812 23.828
9.6964 23.708
9.7115 23.648
9.7267 23.960
9.7419 23.972
9.7571 23.766
9.7722 23.483
9.7874 23.401
9.8026 23.710
9.8178 23.595
9.8329 23.259
9.8481 23.117
9.8633 23.204
9.8785 23.203
9.8936 22.939
9.9088 22.962
9.9240 23.350
9.9392 23.275
9.9543 23.149
9.9695 23.136
9.9847 23.034
9.9999 23.093
10.0150 23.356
10.0302 23.439
10.0454 23.181
10.0606 23.441
10.0757 23.372
10.0909 23.206
10.1061 23.142
10.1213 23.166
10.1364 23.207
10.1516 23.301
10.1668 23.382
10.1820 23.127
10.1971 23.058
10.2123 23.373
10.2275 23.272
10.2427 22.957
10.2578 23.018
10.2730 23.063
10.2882 22.916
10.3034 22.748
10.3185 22.752
10.3337 22.556
10.3489 22.279
10.3641 22.477
10.3792 22.468
10.3944 22.635
10.4096 22.916
10.4248 22.861
10.4399 22.336
10.4551 22.690
10.4703 22.576
10.4855 22.358
10.5006 22.712
10.5158 22.622
10.5310 22.408
10.5462 22.370
10.5613 22.396
10.5765 22.519
10.5917 22.106
10.6069 22.192
10.6220 22.515
10.6372 22.870
10.6524 22.770
10.6676 22.543
10.6827 22.550
10.6979 22.014
10.7131 21.771
10.7283 21.985
10.7434 22.440
10.7586 22.263
10.7738 22.372
10.7890 22.345
10.8041 22.469
10.8193 22.488
10.8345 22.186
10.8497 22.085
10.8648 22.239
10.8800 22.159
10.8952 22.113
10.9104 22.103
10.9255 21.534
10.9407 21.684
10.9559 21.856
10.9711 21.790
10.9862 21.948
11.0014 21.908
11.0166 22.071
11.0318 22.155
11.0469 21.724
11.0621 21.870
11.0773 21.633
11.0925 21.629
11.1076 21.408
11.1228 21.683
11.1380 21.800
11.1532 21.517
11.1683 21.462
11.1835 21.808
11.1987 21.442
11.2139 21.071
11.2290 21.235
11.2442 21.739
11.2594 21.793
11.2746 21.914
11.2897 21.776
11.3049 21.521
11.3201 21.186
11.3353 20.966
11.3504 21.097
11.3656 21.112
11.3808 21.182
11.3960 20.968
11.4111 21.221
11.4263 21.218
11.4415 21.196
11.4567 21.015
11.4718 21.229
11.4870 21.447
11.5022 21.018
11.5174 20.988
11.5325 20.732
11.5477 20.812
11.5629 20.844
11.5781 20.724
11.5932 20.913
11.6084 20.541
11.6236 20.452
11.6388 20.865
11.6539 21.002
11.6691 20.972
11.6843 20.339
11.6995 20.082
11.7146 20.310
11.7298 20.413
11.7450 20.440
11.7602 20.296
11.7753 20.061
11.7905 20.058
11.8057 19.944
11.8209 19.999
11.8360 19.963
11.8512 19.736
11.8664 19.988
11.8816 19.501
11.8967 19.561
11.9119 19.836
11.9271 19.666
11.9423 19.579
11.9574 19.443
11.9726 19.178
11.9878 19.093
12.0030 19.458
12.0181 19.100
12.0333 19.068
12.0485 18.988
12.0637 18.937
12.0788 19.073
12.0940 18.943
12.1092 18.572
12.1244 18.497
12.1395 18.662
12.1547 18.459
12.1699 18.264
12.1851 18.371
12.2002 18.533
12.2154 18.198
12.2306 18.307
12.2458 18.019
12.2609 17.732
12.2761 17.445
12.2913 17.785
12.3065 17.639
12.3216 17.412
12.3368 17.464
12.3520 17.247
12.3672 17.207
12.3823 17.334
12.3975 17.361
12.4127 17.179
12.4279 17.302
12.4430 17.387
12.4582 16.880
12.4734 16.573
12.4886 16.669
12.5037 16.541
12.5189 16.267
12.5341 16.101
12.5493 16.234
12.5644 16.343
12.5796 16.300
12.5948 16.179
12.6100 16.067
12.6251 16.171
12.6403 16.225
12.6555 15.931
12.6707 15.600
12.6858 15.765
12.7010 15.864
12.7162 15.717
12.7314 15.338
12.7465 15.403
12.7617 15.590
12.7769 15.316
12.7921 15.339
12.8072 15.302
12.8224 15.085
12.8376 14.806
12.8528 14.843
12.8679 14.968
12.8831 14.918
12.8983 14.562
12.9135 14.460
12.9286 14.262
12.9438 14.120
12.9590 14.424
12.9742 14.425
12.9893 14.253
13.0045 14.289
13.0197 14.214
13.0349 14.228
13.0500 14.043
13.0652 13.698
13.0804 14.001
13.0956 14.121
13.1107 13.915
13.1259 13.960
13.1411 13.918
13.1563 13.857
13.1714 13.638
13.1866 13.445
13.2018 13.392
13.2170 13.375
13.2321 13.475
13.2473 13.466
13.2625 13.515
13.2777 13.309
13.2928 13.252
13.3080 13.299
13.3232 12.849
13.3384 12.594
13.3535 12.708
13.3687 12.952
13.3839 12.961
13.3991 12.891
13.4142 13.013
13.4294 13.099
13.4446 12.886
13.4598 12.684
13.4749 12.767
13.4901 12.817
13.5053 12.601
13.5205 12.405
13.5356 12.597
13.5508 12.641
13.5660 12.263
13.5812 12.027
13.5963 12.050
13.6115 12.220
13.6267 12.417
13.6419 12.236
13.6570 11.961
13.6722 12.163
13.6874 12.412
13.7026 12.197
13.7177 12.226
13.7329 12.150
13.7481 12.011
13.7633 12.330
13.7784 12.309
13.7936 12.235
13.8088 12.320
13.8239 12.274
13.8391 12.375
13.8543 12.419
13.8695 12.543
13.8846 12.150
13.8998 12.253
13.9150 12.211
13.9302 12.221
13.9453 12.086
13.9605 11.914
13.9757 11.767
13.9909 11.525
14.0060 11.663
14.0212 11.598
14.0364 11.519
14.0516 11.576
14.0667 11.315
14.0819 11.565
14.0971 11.428
14.1123 11.349
14.1274 11.433
14.1426 11.197
14.1578 11.243
14.1730 11.423
14.1881 11.434
14.2033 11.408
14.2185 11.528
14.2337 11.436
14.2488 11.621
14.2640 11.939
14.2792 11.956
14.2944 11.784
14.3095 12.037
14.3247 12.249
14.3399 11.929
14.3551 12.400
14.3702 12.927
14.3854 13.111
14.4006 12.972
14.4158 13.278
14.4309 13.095
14.4461 12.961
14.4613 12.589
14.4765 12.523
14.4916 12.328
14.5068 12.138
14.5220 11.918
14.5372 11.404
14.5523 11.474
14.5675 11.348
14.5827 11.025
14.5979 10.918
14.6130 10.925
14.6282 10.734
14.6434 10.777
14.6586 10.764
14.6737 10.759
14.6889 10.962
14.7041 10.785
14.7193 10.590
14.7344 10.397
14.7496 10.920
14.7648 10.636
14.7800 10.368
14.7951 10.683
14.8103 10.410
14.8255 10.571
14.8407 10.315
14.8558 10.299
14.8710 10.227
14.8862 10.133
14.9014 10.254
14.9165 10.798
14.9317 10.935
14.9469 10.478
14.9621 10.373
14.9772 10.109
14.9924 10.066
15.0076 10.230
15.0228 10.582
15.0379 10.465
15.0531 10.479
15.0683 10.367
15.0835 10.193
15.0986 10.310
15.1138 10.219
15.1290 10.215
15.1442 10.055
15.1593 10.094
15.1745 10.083
15.1897 9.870
15.2049 9.829
15.2200 9.739
15.2352 9.834
15.2504 10.157
15.2656 10.183
15.2807 9.751
15.2959 10.285
15.3111 10.103
15.3263 9.886
15.3414 10.357
15.3566 10.409
15.3718 10.000
15.3870 9.880
15.4021 10.022
15.4173 10.141
15.4325 10.209
15.4477 10.083
15.4628 10.262
15.4780 9.967
15.4932 9.787
15.5084 10.334
15.5235 10.012
15.5387 9.937
15.5539 9.917
15.5691 10.074
15.5842 9.717
15.5994 9.658
15.6146 9.629
15.6298 9.786
15.6449 9.852
15.6601 9.543
15.6753 9.699
15.6905 9.843
15.7056 9.588
15.7208 9.617
15.7360 9.646
15.7512 9.779
15.7663 9.901
15.7815 9.846
15.7967 9.739
15.8119 9.633
15.8270 10.085
15.8422 10.021
15.8574 9.319
15.8726 9.507
15.8877 9.727
15.9029 9.787
15.9181 9.740
15.9333 9.356
15.9484 9.614
15.9636 9.663
15.9788 9.598
15.9940 9.478
16.0091 9.536
16.0243 9.381
16.0395 9.402
16.0547 9.567
16.0698 9.461
16.0850 9.413
16.1002 9.557
16.1154 9.678
16.1305 9.440
16.1457 9.250
16.1609 9.455
16.1761 9.558
16.1912 9.706
16.2064 9.734
16.2216 9.775
16.2368 9.757
16.2519 9.736
16.2671 9.664
16.2823 9.617
16.2975 9.497
16.3126 9.483
16.3278 9.625
16.3430 9.782
16.3582 9.752
16.3733 9.787
16.3885 9.674
16.4037 9.687
16.4189 9.776
16.4340 10.090
16.4492 9.949
16.4644 9.729
16.4796 9.794
16.4947 9.864
16.5099 9.633
16.5251 9.538
16.5403 9.606
16.5554 9.759
16.5706 9.767
16.5858 9.699
16.6010 9.502
16.6161 9.729
16.6313 9.772
16.6465 9.798
16.6617 9.509
16.6768 9.658
16.6920 9.901
16.7072 9.937
16.7224 9.793
16.7375 9.661
16.7527 9.710
16.7679 9.699
16.7831 9.676
16.7982 9.932
16.8134 10.209
16.8286 10.066
16.8438 9.847
16.8589 9.684
16.8741 9.760
16.8893 9.922
16.9045 9.847
16.9196 9.644
16.9348 9.641
16.9500 9.743
16.9652 9.662
16.9803 9.712
16.9955 9.931
17.0107 9.940
17.0259 10.017
17.0410 9.935
17.0562 9.901
17.0714 10.166
17.0866 10.123
17.1017 10.276
17.1169 10.585
17.1321 10.873
17.1473 11.488
17.1624 11.851
17.1776 12.229
17.1928 12.758
17.2080 13.481
17.2231 14.914
17.2383 16.204
17.2535 17.383
17.2687 18.277
17.2838 18.519
17.2990 17.991
17.3142 17.137
17.3294 16.386
17.3445 16.000
17.3597 15.981
17.3749 15.694
17.3901 15.356
17.4052 14.153
17.4204 12.894
17.4356 12.391
17.4508 11.861
17.4659 11.453
17.4811 11.253
17.4963 11.218
17.5115 11.230
17.5266 10.994
17.5418 10.762
17.5570 10.736
17.5722 10.556
17.5873 10.751
17.6025 11.069
17.6177 10.945
17.6329 11.017
17.6480 11.423
17.6632 11.477
17.6784 11.355
17.6936 11.588
17.7087 11.676
17.7239 11.372
17.7391 11.227
17.7543 11.205
17.7694 11.266
17.7846 11.202
17.7998 11.091
17.8150 11.007
17.8301 10.771
17.8453 10.524
17.8605 10.524
17.8757 10.376
17.8908 10.380
17.9060 10.599
17.9212 10.478
17.9364 10.228
17.9515 9.975
17.9667 10.027
17.9819 10.032
17.9971 10.254
18.0122 10.301
18.0274 10.049
18.0426 10.135
18.0578 10.164
18.0729 9.980
18.0881 9.980
18.1033 10.093
18.1185 9.885
18.1336 9.906
18.1488 10.062
18.1640 10.142
18.1792 9.864
18.1943 9.764
18.2095 9.821
18.2247 9.740
18.2399 9.721
18.2550 9.514
18.2702 9.730
18.2854 9.782
18.3006 9.500
18.3157 9.646
18.3309 9.804
18.3461 10.002
18.3613 9.961
18.3764 9.742
18.3916 9.726
18.4068 9.798
18.4220 9.944
18.4371 9.695
18.4523 9.735
18.4675 9.875
18.4827 9.849
18.4978 9.880
18.5130 9.675
18.5282 9.747
18.5434 9.697
18.5585 9.533
18.5737 9.873
18.5889 10.110
18.6041 9.681
18.6192 9.471
18.6344 9.713
18.6496 9.683
18.6648 9.830
18.6799 9.786
18.6951 9.714
18.7103 9.603
18.7255 9.574
18.7406 9.902
18.7558 9.992
18.7710 10.037
18.7862 9.821
18.8013 9.645
18.8165 9.472
18.8317 9.624
18.8469 10.120
18.8620 10.119
18.8772 10.031
18.8924 9.875
18.9076 9.790
18.9227 9.915
18.9379 10.049
18.9531 10.041
18.9683 10.082
18.9834 10.122
18.9986 10.040
19.0138 9.967
19.0290 10.152
19.0441 10.277
19.0593 10.241
19.0745 10.137
19.0897 10.188
19.1048 10.272
19.1200 10.317
19.1352 10.116
19.1504 10.156
19.1655 10.363
19.1807 10.572
19.1959 10.767
19.2111 10.658
19.2262 10.576
19.2414 10.659
19.2566 10.677
19.2718 10.848
19.2869 10.856
19.3021 10.954
19.3173 11.113
19.3325 11.066
19.3476 10.998
19.3628 11.277
19.3780 11.397
19.3932 11.233
19.4083 11.231
19.4235 11.201
19.4387 11.305
19.4539 11.445
19.4690 11.515
19.4842 11.575
19.4994 11.490
19.5146 11.550
19.5297 11.587
19.5449 11.557
19.5601 11.679
19.5753 11.737
19.5904 11.706
19.6056 11.706
19.6208 11.750
19.6360 11.668
19.6511 11.757
19.6663 11.828
19.6815 11.765
19.6967 11.744
19.7118 11.892
19.7270 12.094
19.7422 11.770
19.7574 11.630
19.7725 11.848
19.7877 11.776
19.8029 11.826
19.8180 12.181
19.8332 12.159
19.8484 11.926
19.8636 12.433
19.8787 12.905
19.8939 12.955
19.9091 13.056
19.9243 13.215
19.9394 13.477
19.9546 13.945
19.9698 14.327
19.9850 14.387
20.0001 14.508
20.0153 14.336
20.0305 13.985
20.0457 13.725
20.0608 13.807
20.0760 13.825
20.0912 13.892
20.1064 13.872
20.1215 13.592
20.1367 13.391
20.1519 13.291
20.1671 12.954
20.1822 12.913
20.1974 12.833
20.2126 12.869
20.2278 12.754
20.2429 12.779
20.2581 12.417
20.2733 12.080
20.2885 11.922
20.3036 11.833
20.3188 12.106
20.3340 11.922
20.3492 12.029
20.3643 12.064
20.3795 11.634
20.3947 11.750
20.4099 11.881
20.4250 12.121
20.4402 12.311
20.4554 11.874
20.4706 11.813
20.4857 11.882
20.5009 11.815
20.5161 11.857
20.5313 11.598
20.5464 11.387
20.5616 11.515
20.5768 11.432
20.5920 11.373
20.6071 11.373
20.6223 11.195
20.6375 10.984
20.6527 10.797
20.6678 10.683
20.6830 10.765
20.6982 11.020
20.7134 10.848
20.7285 10.581
20.7437 10.340
20.7589 10.591
20.7741 10.592
20.7892 10.371
20.8044 10.406
20.8196 10.304
20.8348 10.355
20.8499 10.254
20.8651 10.329
20.8803 10.277
20.8955 10.237
20.9106 10.191
20.9258 10.296
20.9410 10.069
20.9562 10.170
20.9713 10.285
20.9865 10.231
21.0017 10.123
21.0169 10.186
21.0320 9.889
21.0472 9.837
21.0624 10.075
21.0776 9.939
21.0927 9.982
21.1079 9.682
21.1231 10.064
21.1383 9.708
21.1534 9.956
21.1686 9.882
21.1838 9.760
21.1990 9.785
21.2141 9.398
21.2293 9.642
21.2445 9.822
21.2597 9.747
21.2748 9.717
21.2900 9.651
21.3052 9.655
21.3204 9.303
21.3355 9.317
21.3507 9.615
21.3659 9.523
21.3811 9.914
21.3962 9.487
21.4114 9.720
21.4266 9.471
21.4418 9.601
21.4569 9.643
21.4721 9.174
21.4873 9.231
21.5025 9.285
21.5176 9.432
21.5328 9.422
21.5480 9.022
21.5632 9.210
21.5783 9.400
21.5935 9.185
21.6087 9.443
21.6239 9.204
21.6390 9.273
21.6542 9.094
21.6694 9.305
21.6846 9.320
21.6997 9.392
21.7149 9.329
21.7301 9.156
21.7453 9.094
21.7604 8.948
21.7756 9.068
21.7908 9.123
21.8060 9.047
21.8211 9.045
21.8363 9.099
21.8515 9.072
21.8667 9.070
21.8818 8.990
21.8970 8.941
21.9122 8.911
21.9274 8.770
21.9425 8.752
21.9577 8.979
21.9729 9.109
21.9881 8.877
22.0032 8.898
22.0184 8.854
22.0336 8.585
22.0488 8.664
22.0639 8.909
22.0791 8.786
22.0943 8.495
22.1095 8.534
22.1246 8.554
22.1398 8.463
22.1550 8.592
22.1702 8.831
22.1853 8.735
22.2005 8.574
22.2157 8.572
22.2309 8.476
22.2460 8.540
22.2612 8.294
22.2764 8.332
22.2916 8.410
22.3067 8.472
22.3219 8.629
22.3371 8.459
22.3523 8.453
22.3674 8.362
22.3826 8.758
22.3978 8.356
22.4130 8.326
22.4281 8.653
22.4433 8.416
22.4585 8.188
22.4737 8.356
22.4888 8.401
22.5040 8.512
22.5192 8.436
22.5344 8.463
22.5495 8.468
22.5647 8.419
22.5799 8.386
22.5951 8.495
22.6102 8.415
22.6254 8.325
22.6406 8.334
22.6558 8.571
22.6709 8.299
22.6861 8.286
22.7013 8.240
22.7165 7.796
22.7316 6.303
