'Id: "" Comment: "" Operator: "Lab Manager" Anode: "Mo" Scantype: "Still (Eiger2R_500K (1D mode))" TimePerStep: "300" X: "11.8" Y: "9.4" Z: "11.284" 
7.2532 19.281
7.2684 19.514
7.2836 18.596
7.2987 19.092
7.3139 19.369
7.3291 19.442
7.3443 19.478
7.3594 19.675
7.3746 19.755
7.3898 19.866
7.4050 19.526
7.4201 19.370
7.4353 19.650
7.4505 19.866
7.4657 19.694
7.4808 19.909
7.4960 19.361
7.5112 19.506
7.5264 19.769
7.5415 19.949
7.5567 19.821
7.5719 19.854
7.5871 19.865
7.6022 20.215
7.6174 20.434
7.6326 20.318
7.6478 20.313
7.6629 20.277
7.6781 20.193
7.6933 20.140
7.7085 20.229
7.7236 20.476
7.7388 20.717
7.7540 20.731
7.7692 20.634
7.7843 20.544
7.7995 20.709
7.8147 20.787
7.8299 20.552
7.8450 20.646
7.8602 20.833
7.8754 20.869
7.8905 20.946
7.9057 20.902
7.9209 20.882
7.9361 21.013
7.9512 21.303
7.9664 21.419
7.9816 21.171
7.9968 21.018
8.0119 21.037
8.0271 21.259
8.0423 21.268
8.0575 21.506
8.0726 21.497
8.0878 21.402
8.1030 21.340
8.1182 21.540
8.1333 21.696
8.1485 21.932
8.1637 21.810
8.1789 21.838
8.1940 21.650
8.2092 21.939
8.2244 21.675
8.2396 21.641
8.2547 22.132
8.2699 21.842
8.2851 21.752
8.3003 21.860
8.3154 22.185
8.3306 22.234
8.3458 21.724
8.3610 22.165
8.3761 22.380
8.3913 22.133
8.4065 22.095
8.4217 21.863
8.4368 21.992
8.4520 22.167
8.4672 22.028
8.4824 22.184
8.4975 21.579
8.5127 22.051
8.5279 22.409
8.5431 22.062
8.5582 22.552
8.5734 22.304
8.5886 22.418
8.6038 22.610
8.6189 22.907
8.6341 22.611
8.6493 22.423
8.6645 22.277
8.6796 22.829
8.6948 22.003
8.7100 22.631
8.7252 22.447
8.7403 22.708
8.7555 22.514
8.7707 22.161
8.7859 22.738
8.8010 22.596
8.8162 22.927
8.8314 22.953
8.8466 22.495
8.8617 22.614
8.8769 22.958
8.8921 22.543
8.9073 22.493
8.9224 22.516
8.9376 22.796
8.9528 22.562
8.9680 23.279
8.9831 22.467
8.9983 22.465
9.0135 23.205
9.0287 22.712
9.0438 22.662
9.0590 22.886
9.0742 22.734
9.0894 22.861
9.1045 22.900
9.1197 23.275
9.1349 23.416
9.1501 23.191
9.1652 22.739
9.1804 22.455
9.1956 22.816
9.2108 23.127
9.2259 23.022
9.2411 23.217
9.2563 22.778
9.2715 23.191
9.2866 23.172
9.3018 23.143
9.3170 23.022
9.3322 22.938
9.3473 23.082
9.3625 23.323
9.3777 23.237
9.3929 23.209
9.4080 23.530
9.4232 23.273
9.4384 23.249
9.4536 23.009
9.4687 23.134
9.4839 23.286
9.4991 23.374
9.5143 23.368
9.5294 23.132
9.5446 22.961
9.5598 23.227
9.5750 23.232
9.5901 23.227
9.6053 23.329
9.6205 23.549
9.6357 23.728
9.6508 23.700
9.6660 23.732
9.6812 23.762
9.6964 23.915
9.7115 23.744
9.7267 24.147
9.7419 24.714
9.7571 24.511
9.7722 24.026
9.7874 23.884
9.8026 24.137
9.8178 24.118
9.8329 24.037
9.8481 23.981
9.8633 23.818
9.8785 24.089
9.8936 24.322
9.9088 24.099
9.9240 24.203
9.9392 24.347
9.9543 24.135
9.9695 24.241
9.9847 24.172
9.9999 23.908
10.0150 23.920
10.0302 23.774
10.0454 23.794
10.0606 23.716
10.0757 23.964
10.0909 23.765
10.1061 23.668
10.1213 23.771
10.1364 23.380
10.1516 23.374
10.1668 23.413
10.1820 23.380
10.1971 23.581
10.2123 24.005
10.2275 24.077
10.2427 24.133
10.2578 24.008
10.2730 23.512
10.2882 23.258
10.3034 23.467
10.3185 23.511
10.3337 23.583
10.3489 23.466
10.3641 23.053
10.3792 22.899
10.3944 22.885
10.4096 23.302
10.4248 23.206
10.4399 23.073
10.4551 23.109
10.4703 23.184
10.4855 23.053
10.5006 22.760
10.5158 22.745
10.5310 22.992
10.5462 23.124
10.5613 22.971
10.5765 22.827
10.5917 22.775
10.6069 22.765
10.6220 23.039
10.6372 22.762
10.6524 23.078
10.6676 23.118
10.6827 22.674
10.6979 22.480
10.7131 22.390
10.7283 22.679
10.7434 22.482
10.7586 22.131
10.7738 22.338
10.7890 22.495
10.8041 22.404
10.8193 22.638
10.8345 22.305
10.8497 22.312
10.8648 22.275
10.8800 22.551
10.8952 22.303
10.9104 22.646
10.9255 22.519
10.9407 22.099
10.9559 22.217
10.9711 22.372
10.9862 22.729
11.0014 22.441
11.0166 21.990
11.0318 22.242
11.0469 21.994
11.0621 21.950
11.0773 21.994
11.0925 22.054
11.1076 22.279
11.1228 22.217
11.1380 22.095
11.1532 21.683
11.1683 21.953
11.1835 21.906
11.1987 21.993
11.2139 21.869
11.2290 21.496
11.2442 21.705
11.2594 22.041
11.2746 22.133
11.2897 21.777
11.3049 21.244
11.3201 21.264
11.3353 21.662
11.3504 21.691
11.3656 21.335
11.3808 21.349
11.3960 21.472
11.4111 21.448
11.4263 21.519
11.4415 20.741
11.4567 21.447
11.4718 21.468
11.4870 21.323
11.5022 21.348
11.5174 21.009
11.5325 21.075
11.5477 21.038
11.5629 21.277
11.5781 21.149
11.5932 21.216
11.6084 21.369
11.6236 21.226
11.6388 20.915
11.6539 20.898
11.6691 20.607
11.6843 20.543
11.6995 20.568
11.7146 20.520
11.7298 20.431
11.7450 20.306
11.7602 20.386
11.7753 20.577
11.7905 20.174
11.8057 20.090
11.8209 20.355
11.8360 19.952
11.8512 19.647
11.8664 19.919
11.8816 19.877
11.8967 19.774
11.9119 19.388
11.9271 19.410
11.9423 19.840
11.9574 19.768
11.9726 19.483
11.9878 19.210
12.0030 19.322
12.0181 19.413
12.0333 19.255
12.0485 18.973
12.0637 18.584
12.0788 18.583
12.0940 18.942
12.1092 18.860
12.1244 18.755
12.1395 18.754
12.1547 18.514
12.1699 18.394
12.1851 18.318
12.2002 18.141
12.2154 18.165
12.2306 18.332
12.2458 18.120
12.2609 17.996
12.2761 17.789
12.2913 17.838
12.3065 17.882
12.3216 17.681
12.3368 17.655
12.3520 17.563
12.3672 17.157
12.3823 17.170
12.3975 17.142
12.4127 17.053
12.4279 17.233
12.4430 17.096
12.4582 17.094
12.4734 17.144
12.4886 17.042
12.5037 16.863
12.5189 16.619
12.5341 16.349
12.5493 16.258
12.5644 16.110
12.5796 16.144
12.5948 16.192
12.6100 16.051
12.6251 15.926
12.6403 15.892
12.6555 16.123
12.6707 15.863
12.6858 15.651
12.7010 15.562
12.7162 15.266
12.7314 15.363
12.7465 15.499
12.7617 15.419
12.7769 15.409
12.7921 15.337
12.8072 15.185
12.8224 15.080
12.8376 15.121
12.8528 15.110
12.8679 15.055
12.8831 15.160
12.8983 14.661
12.9135 14.417
12.9286 14.664
12.9438 14.638
12.9590 14.469
12.9742 14.336
12.9893 14.440
13.0045 14.344
13.0197 13.902
13.0349 14.070
13.0500 14.364
13.0652 14.117
13.0804 14.103
13.0956 14.127
13.1107 13.766
13.1259 13.695
13.1411 13.742
13.1563 13.574
13.1714 13.590
13.1866 13.394
13.2018 13.401
13.2170 13.476
13.2321 13.186
13.2473 13.319
13.2625 13.400
13.2777 13.459
13.2928 13.484
13.3080 13.416
13.3232 13.293
13.3384 13.053
13.3535 13.178
13.3687 13.256
13.3839 13.210
13.3991 13.053
13.4142 13.046
13.4294 12.966
13.4446 12.892
13.4598 12.842
13.4749 12.651
13.4901 12.310
13.5053 12.225
13.5205 12.485
13.5356 12.612
13.5508 12.591
13.5660 12.550
13.5812 12.311
13.5963 12.289
13.6115 12.506
13.6267 12.303
13.6419 12.246
13.6570 12.188
13.6722 12.014
13.6874 12.099
13.7026 11.996
13.7177 12.042
13.7329 12.119
13.7481 12.144
13.7633 12.061
13.7784 12.085
13.7936 12.053
13.8088 12.154
13.8239 12.303
13.8391 12.237
13.8543 12.153
13.8695 12.201
13.8846 12.174
13.8998 12.130
13.9150 11.970
13.9302 11.954
13.9453 11.951
13.9605 11.631
13.9757 11.632
13.9909 11.782
14.0060 11.807
14.0212 11.836
14.0364 11.621
14.0516 11.616
14.0667 11.691
14.0819 11.383
14.0971 11.150
14.1123 11.241
14.1274 11.333
14.1426 11.356
14.1578 11.300
14.1730 11.026
14.1881 10.951
14.2033 11.353
14.2185 11.554
14.2337 11.357
14.2488 11.251
14.2640 11.041
14.2792 11.440
14.2944 11.476
14.3095 11.679
14.3247 11.673
14.3399 11.990
14.3551 12.392
14.3702 12.361
14.3854 12.573
14.4006 13.182
14.4158 13.769
14.4309 13.876
14.4461 13.773
14.4613 13.954
14.4765 13.613
14.4916 13.657
14.5068 14.031
14.5220 13.898
14.5372 13.509
14.5523 13.159
14.5675 12.840
14.5827 12.354
14.5979 11.929
14.6130 11.627
14.6282 12.034
14.6434 11.877
14.6586 11.357
14.6737 11.601
14.6889 11.212
14.7041 11.500
14.7193 11.268
14.7344 11.366
14.7496 11.320
14.7648 11.228
14.7800 11.090
14.7951 11.287
14.8103 11.368
14.8255 11.065
14.8407 10.881
14.8558 10.879
14.8710 10.998
14.8862 10.958
14.9014 10.700
14.9165 11.398
14.9317 11.389
14.9469 10.985
14.9621 11.016
14.9772 11.056
14.9924 10.756
15.0076 10.683
15.0228 10.433
15.0379 10.523
15.0531 10.615
15.0683 10.812
15.0835 10.512
15.0986 10.707
15.1138 10.397
15.1290 10.605
15.1442 10.174
15.1593 10.375
15.1745 10.324
15.1897 10.583
15.2049 10.433
15.2200 10.662
15.2352 10.462
15.2504 10.204
15.2656 10.630
15.2807 10.492
15.2959 10.267
15.3111 10.740
15.3263 10.668
15.3414 10.700
15.3566 10.730
15.3718 10.188
15.3870 9.964
15.4021 10.582
15.4173 10.528
15.4325 10.160
15.4477 10.614
15.4628 10.409
15.4780 10.196
15.4932 10.322
15.5084 10.343
15.5235 10.217
15.5387 10.440
15.5539 10.580
15.5691 10.261
15.5842 10.559
15.5994 10.307
15.6146 10.465
15.6298 10.477
15.6449 10.412
15.6601 10.022
15.6753 10.504
15.6905 10.264
15.7056 10.084
15.7208 10.136
15.7360 10.104
15.7512 10.006
15.7663 9.741
15.7815 9.992
15.7967 9.963
15.8119 9.809
15.8270 10.067
15.8422 9.873
15.8574 9.743
15.8726 9.626
15.8877 9.745
15.9029 9.949
15.9181 10.001
15.9333 9.868
15.9484 9.511
15.9636 9.499
15.9788 9.919
15.9940 9.990
16.0091 10.065
16.0243 9.848
16.0395 9.801
16.0547 9.512
16.0698 9.644
16.0850 9.617
16.1002 9.695
16.1154 9.686
16.1305 9.550
16.1457 9.795
16.1609 9.578
16.1761 9.680
16.1912 9.860
16.2064 9.963
16.2216 9.840
16.2368 10.049
16.2519 10.141
16.2671 10.264
16.2823 10.082
16.2975 10.133
16.3126 10.125
16.3278 10.111
16.3430 10.259
16.3582 10.245
16.3733 10.288
16.3885 10.278
16.4037 10.196
16.4189 10.295
16.4340 9.875
16.4492 9.872
16.4644 10.014
16.4796 10.017
16.4947 9.780
16.5099 9.834
16.5251 9.910
16.5403 9.831
16.5554 9.803
16.5706 9.771
16.5858 9.914
16.6010 9.759
16.6161 9.499
16.6313 9.741
16.6465 9.862
16.6617 9.824
16.6768 10.058
16.6920 9.984
16.7072 9.997
16.7224 10.052
16.7375 9.991
16.7527 9.922
16.7679 10.033
16.7831 10.048
16.7982 10.086
16.8134 10.068
16.8286 9.943
16.8438 9.915
16.8589 9.749
16.8741 9.934
16.8893 10.014
16.9045 9.864
16.9196 9.825
16.9348 9.795
16.9500 9.721
16.9652 9.627
16.9803 9.832
16.9955 10.073
17.0107 9.995
17.0259 10.068
17.0410 10.289
17.0562 10.211
17.0714 10.309
17.0866 10.644
17.1017 10.699
17.1169 10.923
17.1321 11.275
17.1473 11.659
17.1624 11.935
17.1776 12.497
17.1928 13.106
17.2080 13.787
17.2231 14.969
17.2383 16.322
17.2535 17.359
17.2687 18.334
17.2838 18.832
17.2990 18.074
17.3142 17.061
17.3294 16.402
17.3445 16.028
17.3597 15.772
17.3749 15.768
17.3901 15.424
17.4052 14.232
17.4204 13.351
17.4356 12.629
17.4508 11.949
17.4659 11.508
17.4811 11.285
17.4963 11.304
17.5115 10.984
17.5266 10.644
17.5418 10.615
17.5570 10.433
17.5722 10.221
17.5873 10.459
17.6025 10.487
17.6177 10.365
17.6329 10.280
17.6480 10.290
17.6632 10.505
17.6784 10.481
17.6936 10.556
17.7087 10.487
17.7239 10.576
17.7391 11.107
17.7543 11.449
17.7694 11.356
17.7846 11.454
17.7998 12.240
17.8150 12.609
17.8301 12.751
17.8453 12.706
17.8605 12.726
17.8757 12.738
17.8908 12.841
17.9060 12.694
17.9212 12.489
17.9364 12.040
17.9515 11.794
17.9667 11.802
17.9819 11.488
17.9971 11.195
18.0122 11.050
18.0274 10.688
18.0426 10.647
18.0578 10.740
18.0729 10.574
18.0881 10.276
18.1033 10.320
18.1185 10.313
18.1336 10.285
18.1488 10.132
18.1640 10.060
18.1792 10.261
18.1943 10.093
18.2095 10.100
18.2247 10.004
18.2399 9.959
18.2550 9.995
18.2702 10.013
18.2854 9.911
18.3006 10.076
18.3157 9.977
18.3309 9.805
18.3461 10.128
18.3613 9.974
18.3764 9.904
18.3916 9.981
18.4068 9.821
18.4220 9.788
18.4371 9.926
18.4523 10.016
18.4675 10.017
18.4827 9.929
18.4978 10.123
18.5130 9.912
18.5282 9.815
18.5434 9.816
18.5585 9.897
18.5737 9.840
18.5889 9.828
18.6041 9.730
18.6192 9.683
18.6344 9.851
18.6496 9.999
18.6648 9.986
18.6799 9.782
18.6951 9.815
18.7103 9.815
18.7255 9.804
18.7406 9.927
18.7558 9.888
18.7710 9.703
18.7862 9.769
18.8013 9.968
18.8165 9.737
18.8317 9.828
18.8469 9.890
18.8620 9.835
18.8772 9.971
18.8924 10.141
18.9076 10.156
18.9227 10.191
18.9379 10.151
18.9531 10.065
18.9683 10.128
18.9834 10.307
18.9986 10.246
19.0138 10.306
19.0290 10.252
19.0441 10.245
19.0593 10.351
19.0745 10.132
19.0897 10.251
19.1048 10.397
19.1200 10.138
19.1352 10.361
19.1504 10.682
19.1655 10.704
19.1807 10.706
19.1959 10.593
19.2111 10.481
19.2262 10.787
19.2414 10.802
19.2566 10.969
19.2718 10.968
19.2869 10.923
19.3021 11.040
19.3173 11.039
19.3325 10.871
19.3476 10.921
19.3628 11.172
19.3780 11.136
19.3932 11.074
19.4083 11.232
19.4235 11.255
19.4387 11.172
19.4539 11.255
19.4690 11.408
19.4842 11.526
19.4994 11.666
19.5146 11.712
19.5297 11.608
19.5449 11.608
19.5601 11.856
19.5753 11.706
19.5904 11.661
19.6056 11.569
19.6208 11.556
19.6360 11.615
19.6511 11.692
19.6663 11.789
19.6815 11.736
19.6967 11.739
19.7118 11.744
19.7270 11.744
19.7422 11.779
19.7574 11.841
19.7725 11.750
19.7877 11.771
19.8029 11.856
19.8180 11.930
19.8332 12.119
19.8484 12.246
19.8636 12.309
19.8787 12.598
19.8939 12.967
19.9091 13.125
19.9243 13.486
19.9394 13.646
19.9546 14.083
19.9698 14.355
19.9850 14.501
20.0001 14.430
20.0153 14.165
20.0305 13.966
20.0457 13.784
20.0608 13.854
20.0760 13.906
20.0912 13.614
20.1064 13.467
20.1215 13.565
20.1367 13.147
20.1519 12.929
20.1671 12.986
20.1822 12.979
20.1974 12.622
20.2126 12.473
20.2278 12.416
20.2429 12.303
20.2581 12.280
20.2733 12.121
20.2885 11.846
20.3036 11.613
20.3188 11.527
20.3340 11.528
20.3492 11.464
20.3643 11.513
20.3795 11.648
20.3947 11.064
20.4099 10.914
20.4250 10.898
20.4402 10.984
20.4554 11.076
20.4706 11.037
20.4857 11.107
20.5009 11.085
20.5161 11.181
20.5313 11.176
20.5464 11.125
20.5616 10.948
20.5768 10.957
20.5920 11.015
20.6071 11.052
20.6223 10.961
20.6375 10.957
20.6527 10.807
20.6678 11.215
20.6830 11.185
20.6982 10.790
20.7134 10.872
20.7285 10.829
20.7437 10.769
20.7589 10.431
20.7741 10.598
20.7892 10.410
20.8044 10.477
20.8196 10.494
20.8348 10.670
20.8499 10.431
20.8651 10.655
20.8803 10.588
20.8955 10.618
20.9106 10.585
20.9258 10.778
20.9410 10.575
20.9562 10.733
20.9713 10.497
20.9865 10.664
21.0017 10.676
21.0169 10.626
21.0320 10.680
21.0472 10.416
21.0624 10.380
21.0776 10.483
21.0927 10.749
21.1079 10.415
21.1231 10.013
21.1383 10.322
21.1534 10.326
21.1686 10.009
21.1838 9.851
21.1990 9.938
21.2141 10.155
21.2293 9.574
21.2445 9.452
21.2597 9.920
21.2748 9.318
21.2900 9.512
21.3052 9.684
21.3204 9.457
21.3355 9.650
21.3507 9.469
21.3659 9.434
21.3811 9.512
21.3962 9.546
21.4114 9.733
21.4266 9.655
21.4418 9.541
21.4569 9.521
21.4721 9.326
21.4873 9.235
21.5025 9.317
21.5176 9.252
21.5328 9.139
21.5480 9.042
21.5632 9.314
21.5783 9.131
21.5935 9.348
21.6087 9.399
21.6239 9.116
21.6390 8.875
21.6542 9.145
21.6694 9.350
21.6846 9.092
21.6997 8.992
21.7149 9.093
21.7301 9.123
21.7453 9.143
21.7604 8.973
21.7756 9.092
21.7908 9.112
21.8060 9.118
21.8211 9.181
21.8363 9.244
21.8515 9.198
21.8667 8.901
21.8818 8.907
21.8970 8.834
21.9122 8.803
21.9274 9.045
21.9425 9.053
21.9577 8.786
21.9729 8.681
21.9881 8.658
22.0032 8.779
22.0184 9.009
22.0336 8.702
22.0488 8.799
22.0639 8.918
22.0791 8.744
22.0943 8.742
22.1095 8.766
22.1246 8.702
22.1398 8.786
22.1550 8.798
22.1702 8.650
22.1853 8.437
22.2005 8.476
22.2157 8.621
22.2309 8.683
22.2460 8.694
22.2612 8.574
22.2764 8.640
22.2916 8.500
22.3067 8.639
22.3219 8.561
22.3371 8.283
22.3523 8.480
22.3674 8.730
22.3826 8.748
22.3978 8.569
22.4130 8.506
22.4281 8.308
22.4433 8.427
22.4585 8.424
22.4737 8.124
22.4888 8.522
22.5040 8.585
22.5192 8.601
22.5344 8.444
22.5495 8.524
22.5647 8.529
22.5799 8.593
22.5951 8.210
22.6102 8.638
22.6254 8.686
22.6406 8.319
22.6558 8.266
22.6709 8.336
22.6861 8.474
22.7013 8.211
22.7165 7.874
22.7316 6.500
