'Id: "" Comment: "" Operator: "Lab Manager" Anode: "Mo" Scantype: "Still (Eiger2R_500K (1D mode))" TimePerStep: "300" X: "11.8" Y: "9.4" Z: "11.284" 
7.2532 19.149
7.2684 18.658
7.2836 19.214
7.2987 18.550
7.3139 19.017
7.3291 19.234
7.3443 18.733
7.3594 18.915
7.3746 19.032
7.3898 19.357
7.4050 19.416
7.4201 18.970
7.4353 19.394
7.4505 19.655
7.4657 19.532
7.4808 19.591
7.4960 19.988
7.5112 19.830
7.5264 20.095
7.5415 19.947
7.5567 19.751
7.5719 20.001
7.5871 19.713
7.6022 19.780
7.6174 20.193
7.6326 20.407
7.6478 20.276
7.6629 19.986
7.6781 20.091
7.6933 19.921
7.7085 19.996
7.7236 20.258
7.7388 20.427
7.7540 20.452
7.7692 20.389
7.7843 20.365
7.7995 20.357
7.8147 20.545
7.8299 20.778
7.8450 20.818
7.8602 20.736
7.8754 20.808
7.8905 20.678
7.9057 20.434
7.9209 20.375
7.9361 20.838
7.9512 20.943
7.9664 20.826
7.9816 20.896
7.9968 21.083
8.0119 21.247
8.0271 20.809
8.0423 20.870
8.0575 21.031
8.0726 21.342
8.0878 21.648
8.1030 21.653
8.1182 20.977
8.1333 21.014
8.1485 21.445
8.1637 21.556
8.1789 21.425
8.1940 21.127
8.2092 21.326
8.2244 21.725
8.2396 21.388
8.2547 21.537
8.2699 21.586
8.2851 21.479
8.3003 21.556
8.3154 21.793
8.3306 21.460
8.3458 21.668
8.3610 21.882
8.3761 21.846
8.3913 21.858
8.4065 21.785
8.4217 21.368
8.4368 21.449
8.4520 22.017
8.4672 21.815
8.4824 21.726
8.4975 22.083
8.5127 21.837
8.5279 21.811
8.5431 22.350
8.5582 22.218
8.5734 21.909
8.5886 22.274
8.6038 22.484
8.6189 22.210
8.6341 22.074
8.6493 22.102
8.6645 22.312
8.6796 22.133
8.6948 22.531
8.7100 22.770
8.7252 22.846
8.7403 22.209
8.7555 22.667
8.7707 22.226
8.7859 21.928
8.8010 22.368
8.8162 22.680
8.8314 22.658
8.8466 22.540
8.8617 22.473
8.8769 22.764
8.8921 22.505
8.9073 22.155
8.9224 22.300
8.9376 22.460
8.9528 22.521
8.9680 22.658
8.9831 22.487
8.9983 22.788
9.0135 22.204
9.0287 22.523
9.0438 23.089
9.0590 22.375
9.0742 22.466
9.0894 22.298
9.1045 22.492
9.1197 23.100
9.1349 23.324
9.1501 22.855
9.1652 23.068
9.1804 22.973
9.1956 23.000
9.2108 22.816
9.2259 22.747
9.2411 22.904
9.2563 23.017
9.2715 22.852
9.2866 22.732
9.3018 22.782
9.3170 22.604
9.3322 23.010
9.3473 22.931
9.3625 23.273
9.3777 22.980
9.3929 22.949
9.4080 23.210
9.4232 22.964
9.4384 22.627
9.4536 22.907
9.4687 22.933
9.4839 23.221
9.4991 23.499
9.5143 23.250
9.5294 23.151
9.5446 23.187
9.5598 23.160
9.5750 23.196
9.5901 23.316
9.6053 23.260
9.6205 23.483
9.6357 23.665
9.6508 23.361
9.6660 23.203
9.6812 23.828
9.6964 23.961
9.7115 23.871
9.7267 24.108
9.7419 24.282
9.7571 23.696
9.7722 23.503
9.7874 23.888
9.8026 23.845
9.8178 23.387
9.8329 23.193
9.8481 23.381
9.8633 23.394
9.8785 23.433
9.8936 23.237
9.9088 22.961
9.9240 23.037
9.9392 23.390
9.9543 23.278
9.9695 23.034
9.9847 23.215
9.9999 23.108
10.0150 23.019
10.0302 23.066
10.0454 23.164
10.0606 23.545
10.0757 23.429
10.0909 23.236
10.1061 23.275
10.1213 23.340
10.1364 23.395
10.1516 23.215
10.1668 23.315
10.1820 23.206
10.1971 23.187
10.2123 23.200
10.2275 23.342
10.2427 22.965
10.2578 22.863
10.2730 23.168
10.2882 22.823
10.3034 22.967
10.3185 23.030
10.3337 22.486
10.3489 22.379
10.3641 22.701
10.3792 22.932
10.3944 22.566
10.4096 22.530
10.4248 22.585
10.4399 22.356
10.4551 22.451
10.4703 22.694
10.4855 22.821
10.5006 22.464
10.5158 22.431
10.5310 22.650
10.5462 22.508
10.5613 22.228
10.5765 22.474
10.5917 22.375
10.6069 22.223
10.6220 22.204
10.6372 22.370
10.6524 22.450
10.6676 22.628
10.6827 22.570
10.6979 22.575
10.7131 22.323
10.7283 22.560
10.7434 22.403
10.7586 22.121
10.7738 22.171
10.7890 22.256
10.8041 21.837
10.8193 21.952
10.8345 22.487
10.8497 22.321
10.8648 22.495
10.8800 22.448
10.8952 22.026
10.9104 22.239
10.9255 22.350
10.9407 22.179
10.9559 22.090
10.9711 21.914
10.9862 22.084
11.0014 22.152
11.0166 22.226
11.0318 22.147
11.0469 22.107
11.0621 21.834
11.0773 21.672
11.0925 22.066
11.1076 21.711
11.1228 21.547
11.1380 21.600
11.1532 21.536
11.1683 21.622
11.1835 21.975
11.1987 21.890
11.2139 21.408
11.2290 21.619
11.2442 21.809
11.2594 21.526
11.2746 21.340
11.2897 21.440
11.3049 21.240
11.3201 21.138
11.3353 21.488
11.3504 21.525
11.3656 21.503
11.3808 21.350
11.3960 21.230
11.4111 21.268
11.4263 21.285
11.4415 21.154
11.4567 20.979
11.4718 21.262
11.4870 21.185
11.5022 20.977
11.5174 21.040
11.5325 20.769
11.5477 20.754
11.5629 21.192
11.5781 21.326
11.5932 20.800
11.6084 20.974
11.6236 20.886
11.6388 20.694
11.6539 20.670
11.6691 20.653
11.6843 20.563
11.6995 20.722
11.7146 20.920
11.7298 20.879
11.7450 20.552
11.7602 20.436
11.7753 20.090
11.7905 19.861
11.8057 19.985
11.8209 20.218
11.8360 20.196
11.8512 19.920
11.8664 19.856
11.8816 20.324
11.8967 19.966
11.9119 19.481
11.9271 19.322
11.9423 19.339
11.9574 19.518
11.9726 19.451
11.9878 19.084
12.0030 19.128
12.0181 19.047
12.0333 18.969
12.0485 18.968
12.0637 19.037
12.0788 18.897
12.0940 18.766
12.1092 18.616
12.1244 18.601
12.1395 18.569
12.1547 18.461
12.1699 17.998
12.1851 18.621
12.2002 18.826
12.2154 18.131
12.2306 17.905
12.2458 17.953
12.2609 17.753
12.2761 17.721
12.2913 17.835
12.3065 17.542
12.3216 17.265
12.3368 17.448
12.3520 17.259
12.3672 17.363
12.3823 17.294
12.3975 17.252
12.4127 17.161
12.4279 16.850
12.4430 16.840
12.4582 16.944
12.4734 16.757
12.4886 16.614
12.5037 16.673
12.5189 16.524
12.5341 16.501
12.5493 16.513
12.5644 16.096
12.5796 15.995
12.5948 16.192
12.6100 16.186
12.6251 16.087
12.6403 15.897
12.6555 15.741
12.6707 15.636
12.6858 15.521
12.7010 15.621
12.7162 15.623
12.7314 15.644
12.7465 15.485
12.7617 15.213
12.7769 15.378
12.7921 15.306
12.8072 15.255
12.8224 15.464
12.8376 15.260
12.8528 14.884
12.8679 14.773
12.8831 14.897
12.8983 14.634
12.9135 14.514
12.9286 14.601
12.9438 14.568
12.9590 14.282
12.9742 14.138
12.9893 14.230
13.0045 13.862
13.0197 13.785
13.0349 14.238
13.0500 14.318
13.0652 14.009
13.0804 13.965
13.0956 13.993
13.1107 13.651
13.1259 13.480
13.1411 13.707
13.1563 13.932
13.1714 13.821
13.1866 13.635
13.2018 13.439
13.2170 13.385
13.2321 13.471
13.2473 13.338
13.2625 13.259
13.2777 13.128
13.2928 13.042
13.3080 13.223
13.3232 13.289
13.3384 13.230
13.3535 13.209
13.3687 12.981
13.3839 13.096
13.3991 13.248
13.4142 12.942
13.4294 12.761
13.4446 12.621
13.4598 12.591
13.4749 12.556
13.4901 12.487
13.5053 12.500
13.5205 12.480
13.5356 12.451
13.5508 12.523
13.5660 12.545
13.5812 12.124
13.5963 12.099
13.6115 12.195
13.6267 12.173
13.6419 12.400
13.6570 12.263
13.6722 12.187
13.6874 12.134
13.7026 12.156
13.7177 12.004
13.7329 12.075
13.7481 12.080
13.7633 12.151
13.7784 12.280
13.7936 12.472
13.8088 12.275
13.8239 12.164
13.8391 12.476
13.8543 12.439
13.8695 12.344
13.8846 12.578
13.8998 12.298
13.9150 11.772
13.9302 11.857
13.9453 11.979
13.9605 11.764
13.9757 11.426
13.9909 11.602
14.0060 12.068
14.0212 12.053
14.0364 11.793
14.0516 11.554
14.0667 11.467
14.0819 11.543
14.0971 11.514
14.1123 11.745
14.1274 12.007
14.1426 11.595
14.1578 11.669
14.1730 11.787
14.1881 11.816
14.2033 11.781
14.2185 11.848
14.2337 11.919
14.2488 11.965
14.2640 11.808
14.2792 12.086
14.2944 11.967
14.3095 12.375
14.3247 12.292
14.3399 12.197
14.3551 12.555
14.3702 12.807
14.3854 13.039
14.4006 13.091
14.4158 13.010
14.4309 12.924
14.4461 12.774
14.4613 12.157
14.4765 12.488
14.4916 12.282
14.5068 11.838
14.5220 11.903
14.5372 11.547
14.5523 11.311
14.5675 11.271
14.5827 10.932
14.5979 11.189
14.6130 10.740
14.6282 10.748
14.6434 10.765
14.6586 10.772
14.6737 10.624
14.6889 10.747
14.7041 10.751
14.7193 10.600
14.7344 10.488
14.7496 10.704
14.7648 10.595
14.7800 10.424
14.7951 10.644
14.8103 10.668
14.8255 10.621
14.8407 10.474
14.8558 10.767
14.8710 10.465
14.8862 10.559
14.9014 10.167
14.9165 10.915
14.9317 10.902
14.9469 10.278
14.9621 10.296
14.9772 10.353
14.9924 10.694
15.0076 10.337
15.0228 10.136
15.0379 9.967
15.0531 10.593
15.0683 10.076
15.0835 10.226
15.0986 10.100
15.1138 10.451
15.1290 10.575
15.1442 10.462
15.1593 9.895
15.1745 10.154
15.1897 10.085
15.2049 10.379
15.2200 10.134
15.2352 10.388
15.2504 10.063
15.2656 9.971
15.2807 10.102
15.2959 10.369
15.3111 10.427
15.3263 9.749
15.3414 10.042
15.3566 10.250
15.3718 10.161
15.3870 9.881
15.4021 9.946
15.4173 10.030
15.4325 10.215
15.4477 10.174
15.4628 10.587
15.4780 10.041
15.4932 10.049
15.5084 10.103
15.5235 9.847
15.5387 9.933
15.5539 9.995
15.5691 10.045
15.5842 10.101
15.5994 10.074
15.6146 9.958
15.6298 9.962
15.6449 9.938
15.6601 9.756
15.6753 9.913
15.6905 9.742
15.7056 10.041
15.7208 9.859
15.7360 9.829
15.7512 9.714
15.7663 9.672
15.7815 9.626
15.7967 9.537
15.8119 9.734
15.8270 9.936
15.8422 9.599
15.8574 9.687
15.8726 9.298
15.8877 9.483
15.9029 9.400
15.9181 9.694
15.9333 9.677
15.9484 9.635
15.9636 9.429
15.9788 9.496
15.9940 9.423
16.0091 9.497
16.0243 9.661
16.0395 9.717
16.0547 9.733
16.0698 9.659
16.0850 9.533
16.1002 9.573
16.1154 9.997
16.1305 9.799
16.1457 9.603
16.1609 9.552
16.1761 9.595
16.1912 9.458
16.2064 9.734
16.2216 9.660
16.2368 9.735
16.2519 9.805
16.2671 9.856
16.2823 9.813
16.2975 9.717
16.3126 9.667
16.3278 9.754
16.3430 9.615
16.3582 9.840
16.3733 9.768
16.3885 9.588
16.4037 9.766
16.4189 10.067
16.4340 9.963
16.4492 9.966
16.4644 9.832
16.4796 9.634
16.4947 9.684
16.5099 9.742
16.5251 9.596
16.5403 9.546
16.5554 9.603
16.5706 9.699
16.5858 9.598
16.6010 9.233
16.6161 9.469
16.6313 9.601
16.6465 9.745
16.6617 9.703
16.6768 9.712
16.6920 9.784
16.7072 10.006
16.7224 9.863
16.7375 9.877
16.7527 9.999
16.7679 9.811
16.7831 9.930
16.7982 9.744
16.8134 9.535
16.8286 9.907
16.8438 9.779
16.8589 9.544
16.8741 9.721
16.8893 9.815
16.9045 9.914
16.9196 9.718
16.9348 9.684
16.9500 9.897
16.9652 9.877
16.9803 9.765
16.9955 9.828
17.0107 9.896
17.0259 9.824
17.0410 10.000
17.0562 10.286
17.0714 10.194
17.0866 10.190
17.1017 10.439
17.1169 10.797
17.1321 10.958
17.1473 11.374
17.1624 11.920
17.1776 12.242
17.1928 13.021
17.2080 14.224
17.2231 15.167
17.2383 16.232
17.2535 17.576
17.2687 18.417
17.2838 18.460
17.2990 17.832
17.3142 17.185
17.3294 16.565
17.3445 16.030
17.3597 15.916
17.3749 15.740
17.3901 15.337
17.4052 14.486
17.4204 13.453
17.4356 12.680
17.4508 12.105
17.4659 11.915
17.4811 11.761
17.4963 11.648
17.5115 11.451
17.5266 11.169
17.5418 11.095
17.5570 11.102
17.5722 11.100
17.5873 11.029
17.6025 11.246
17.6177 11.288
17.6329 11.316
17.6480 11.505
17.6632 11.548
17.6784 11.581
17.6936 11.590
17.7087 11.604
17.7239 11.511
17.7391 11.275
17.7543 10.897
17.7694 10.597
17.7846 10.617
17.7998 10.785
17.8150 10.593
17.8301 10.568
17.8453 10.539
17.8605 10.414
17.8757 10.467
17.8908 10.613
17.9060 10.605
17.9212 10.461
17.9364 10.164
17.9515 10.042
17.9667 10.166
17.9819 10.024
17.9971 10.101
18.0122 10.246
18.0274 10.340
18.0426 10.366
18.0578 10.030
18.0729 9.979
18.0881 10.009
18.1033 9.828
18.1185 9.753
18.1336 9.729
18.1488 9.824
18.1640 9.950
18.1792 10.005
18.1943 9.891
18.2095 9.945
18.2247 9.966
18.2399 9.911
18.2550 9.703
18.2702 9.734
18.2854 9.931
18.3006 10.001
18.3157 10.001
18.3309 9.830
18.3461 9.812
18.3613 9.714
18.3764 9.721
18.3916 9.796
18.4068 9.854
18.4220 9.832
18.4371 9.947
18.4523 9.757
18.4675 9.740
18.4827 9.829
18.4978 9.678
18.5130 9.833
18.5282 9.910
18.5434 9.784
18.5585 9.718
18.5737 9.742
18.5889 9.842
18.6041 9.966
18.6192 9.820
18.6344 9.858
18.6496 9.894
18.6648 9.909
18.6799 9.960
18.6951 9.859
18.7103 9.733
18.7255 9.794
18.7406 9.757
18.7558 9.615
18.7710 9.882
18.7862 9.832
18.8013 9.624
18.8165 9.688
18.8317 9.853
18.8469 9.594
18.8620 9.758
18.8772 9.979
18.8924 10.063
18.9076 10.207
18.9227 10.314
18.9379 9.976
18.9531 9.765
18.9683 9.640
18.9834 9.962
18.9986 10.264
19.0138 10.111
19.0290 10.002
19.0441 10.260
19.0593 10.341
19.0745 10.175
19.0897 10.216
19.1048 10.482
19.1200 10.273
19.1352 10.302
19.1504 10.422
19.1655 10.547
19.1807 10.631
19.1959 10.523
19.2111 10.463
19.2262 10.366
19.2414 10.567
19.2566 10.739
19.2718 10.818
19.2869 10.786
19.3021 10.738
19.3173 10.949
19.3325 10.924
19.3476 10.923
19.3628 11.113
19.3780 11.250
19.3932 11.238
19.4083 11.402
19.4235 11.555
19.4387 11.425
19.4539 11.277
19.4690 11.298
19.4842 11.373
19.4994 11.426
19.5146 11.375
19.5297 11.270
19.5449 11.507
19.5601 11.607
19.5753 11.605
19.5904 11.640
19.6056 11.568
19.6208 11.341
19.6360 11.586
19.6511 11.674
19.6663 11.590
19.6815 11.782
19.6967 11.851
19.7118 11.622
19.7270 11.554
19.7422 11.830
19.7574 11.646
19.7725 11.605
19.7877 11.848
19.8029 12.010
19.8180 12.246
19.8332 12.336
19.8484 12.365
19.8636 12.455
19.8787 12.365
19.8939 12.554
19.9091 13.131
19.9243 13.369
19.9394 13.389
19.9546 13.907
19.9698 14.462
19.9850 14.487
20.0001 14.370
20.0153 14.371
20.0305 14.055
20.0457 13.886
20.0608 13.938
20.0760 13.847
20.0912 13.698
20.1064 13.627
20.1215 13.476
20.1367 13.384
20.1519 13.422
20.1671 13.170
20.1822 12.707
20.1974 12.368
20.2126 12.357
20.2278 12.531
20.2429 12.753
20.2581 12.639
20.2733 12.385
20.2885 12.020
20.3036 12.166
20.3188 12.281
20.3340 11.902
20.3492 11.917
20.3643 11.896
20.3795 11.947
20.3947 11.813
20.4099 11.853
20.4250 11.704
20.4402 11.640
20.4554 11.944
20.4706 11.988
20.4857 11.859
20.5009 11.648
20.5161 11.655
20.5313 11.686
20.5464 11.530
20.5616 11.532
20.5768 11.409
20.5920 11.349
20.6071 11.109
20.6223 11.253
20.6375 10.948
20.6527 10.828
20.6678 10.614
20.6830 10.623
20.6982 10.542
20.7134 10.733
20.7285 10.407
20.7437 10.316
20.7589 10.179
20.7741 10.344
20.7892 10.459
20.8044 10.315
20.8196 10.509
20.8348 10.122
20.8499 9.973
20.8651 10.216
20.8803 10.132
20.8955 10.220
20.9106 10.283
20.9258 9.924
20.9410 9.975
20.9562 10.215
20.9713 10.062
20.9865 9.989
21.0017 9.837
21.0169 9.749
21.0320 9.512
21.0472 9.908
21.0624 9.956
21.0776 9.906
21.0927 9.865
21.1079 9.909
21.1231 9.879
21.1383 9.783
21.1534 9.832
21.1686 9.809
21.1838 9.574
21.1990 9.607
21.2141 9.581
21.2293 9.804
21.2445 9.800
21.2597 9.800
21.2748 9.704
21.2900 9.658
21.3052 9.589
21.3204 9.387
21.3355 9.328
21.3507 9.657
21.3659 9.094
21.3811 9.319
21.3962 9.314
21.4114 9.191
21.4266 9.188
21.4418 9.554
21.4569 9.599
21.4721 9.359
21.4873 9.567
21.5025 9.106
21.5176 9.191
21.5328 9.280
21.5480 9.440
21.5632 9.303
21.5783 9.075
21.5935 9.329
21.6087 9.425
21.6239 9.326
21.6390 9.278
21.6542 9.098
21.6694 9.089
21.6846 9.145
21.6997 8.987
21.7149 8.987
21.7301 8.808
21.7453 8.810
21.7604 8.931
21.7756 9.058
21.7908 9.177
21.8060 8.958
21.8211 8.763
21.8363 8.817
21.8515 8.914
21.8667 8.945
21.8818 9.065
21.8970 9.214
21.9122 9.007
21.9274 8.922
21.9425 8.923
21.9577 8.849
21.9729 9.039
21.9881 9.256
22.0032 8.953
22.0184 8.823
22.0336 8.797
22.0488 8.661
22.0639 8.619
22.0791 8.780
22.0943 8.861
22.1095 8.765
22.1246 8.614
22.1398 8.675
22.1550 8.870
22.1702 8.876
22.1853 8.654
22.2005 8.767
22.2157 8.792
22.2309 8.640
22.2460 8.621
22.2612 8.713
22.2764 8.588
22.2916 8.447
22.3067 8.376
22.3219 8.564
22.3371 8.414
22.3523 8.479
22.3674 8.332
22.3826 8.566
22.3978 8.740
22.4130 8.416
22.4281 8.372
22.4433 8.327
22.4585 8.401
22.4737 8.472
22.4888 8.460
22.5040 8.202
22.5192 8.455
22.5344 8.184
22.5495 8.712
22.5647 8.419
22.5799 8.430
22.5951 8.724
22.6102 8.694
22.6254 8.351
22.6406 8.209
22.6558 8.526
22.6709 8.663
22.6861 8.258
22.7013 8.163
22.7165 7.683
22.7316 6.238
