'Id: "" Comment: "" Operator: "Lab Manager" Anode: "Mo" Scantype: "Still (Eiger2R_500K (1D mode))" TimePerStep: "300" X: "11.8" Y: "9.4" Z: "11.284" 
7.2532 18.768
7.2684 19.242
7.2836 18.585
7.2987 18.608
7.3139 19.241
7.3291 18.939
7.3443 19.285
7.3594 19.347
7.3746 19.049
7.3898 19.479
7.4050 19.259
7.4201 19.471
7.4353 19.477
7.4505 19.714
7.4657 19.563
7.4808 19.431
7.4960 19.836
7.5112 19.823
7.5264 19.705
7.5415 20.191
7.5567 19.968
7.5719 19.646
7.5871 19.974
7.6022 20.263
7.6174 20.125
7.6326 19.727
7.6478 20.101
7.6629 20.157
7.6781 20.205
7.6933 20.155
7.7085 20.083
7.7236 20.192
7.7388 20.443
7.7540 20.742
7.7692 21.088
7.7843 20.821
7.7995 20.601
7.8147 20.922
7.8299 21.071
7.8450 20.579
7.8602 20.494
7.8754 20.805
7.8905 20.614
7.9057 20.657
7.9209 20.852
7.9361 20.990
7.9512 20.975
7.9664 20.868
7.9816 21.058
7.9968 21.119
8.0119 20.872
8.0271 20.955
8.0423 21.088
8.0575 21.202
8.0726 21.103
8.0878 21.223
8.1030 21.223
8.1182 21.410
8.1333 21.627
8.1485 21.093
8.1637 21.407
8.1789 21.378
8.1940 21.572
8.2092 21.675
8.2244 21.690
8.2396 21.611
8.2547 21.168
8.2699 21.728
8.2851 21.720
8.3003 21.424
8.3154 21.743
8.3306 21.545
8.3458 21.834
8.3610 22.022
8.3761 21.847
8.3913 21.651
8.4065 21.953
8.4217 22.170
8.4368 22.263
8.4520 21.657
8.4672 21.908
8.4824 21.853
8.4975 22.194
8.5127 22.131
8.5279 22.393
8.5431 22.056
8.5582 22.390
8.5734 22.430
8.5886 22.454
8.6038 22.225
8.6189 22.705
8.6341 22.416
8.6493 22.583
8.6645 22.001
8.6796 21.880
8.6948 22.540
8.7100 22.318
8.7252 22.679
8.7403 22.171
8.7555 22.847
8.7707 22.732
8.7859 22.501
8.8010 22.687
8.8162 22.648
8.8314 22.409
8.8466 22.631
8.8617 22.439
8.8769 22.919
8.8921 22.955
8.9073 22.493
8.9224 22.245
8.9376 22.113
8.9528 22.741
8.9680 22.247
8.9831 22.507
8.9983 22.715
9.0135 22.663
9.0287 22.420
9.0438 22.798
9.0590 22.599
9.0742 22.925
9.0894 22.927
9.1045 22.852
9.1197 22.930
9.1349 22.860
9.1501 23.063
9.1652 22.887
9.1804 22.725
9.1956 22.714
9.2108 22.871
9.2259 23.153
9.2411 22.848
9.2563 23.030
9.2715 23.072
9.2866 23.081
9.3018 22.988
9.3170 22.778
9.3322 23.055
9.3473 23.352
9.3625 23.119
9.3777 22.761
9.3929 22.619
9.4080 22.842
9.4232 23.229
9.4384 23.492
9.4536 23.365
9.4687 23.485
9.4839 23.408
9.4991 23.088
9.5143 23.209
9.5294 23.182
9.5446 23.030
9.5598 23.317
9.5750 23.374
9.5901 23.470
9.6053 23.560
9.6205 23.595
9.6357 23.560
9.6508 23.503
9.6660 24.023
9.6812 24.243
9.6964 24.010
9.7115 23.837
9.7267 23.934
9.7419 24.289
9.7571 24.097
9.7722 23.892
9.7874 24.105
9.8026 24.013
9.8178 23.661
9.8329 23.296
9.8481 23.188
9.8633 23.270
9.8785 23.276
9.8936 23.650
9.9088 23.486
9.9240 23.027
9.9392 23.091
9.9543 23.454
9.9695 23.154
9.9847 23.010
9.9999 23.182
10.0150 23.125
10.0302 23.159
10.0454 23.257
10.0606 23.122
10.0757 23.243
10.0909 23.580
10.1061 23.532
10.1213 23.610
10.1364 23.607
10.1516 23.562
10.1668 23.284
10.1820 23.182
10.1971 23.499
10.2123 23.703
10.2275 23.572
10.2427 23.138
10.2578 23.119
10.2730 23.054
10.2882 22.779
10.3034 22.635
10.3185 22.638
10.3337 22.822
10.3489 22.797
10.3641 22.491
10.3792 22.537
10.3944 22.751
10.4096 22.825
10.4248 22.744
10.4399 23.011
10.4551 23.161
10.4703 22.870
10.4855 22.504
10.5006 22.695
10.5158 22.739
10.5310 22.782
10.5462 22.792
10.5613 22.872
10.5765 22.665
10.5917 22.492
10.6069 22.952
10.6220 22.682
10.6372 22.431
10.6524 22.508
10.6676 22.907
10.6827 22.716
10.6979 22.501
10.7131 22.218
10.7283 22.058
10.7434 22.344
10.7586 22.525
10.7738 22.370
10.7890 22.062
10.8041 22.556
10.8193 22.660
10.8345 22.477
10.8497 22.374
10.8648 22.313
10.8800 22.343
10.8952 22.340
10.9104 22.270
10.9255 22.246
10.9407 22.343
10.9559 22.226
10.9711 22.110
10.9862 22.344
11.0014 22.365
11.0166 22.010
11.0318 22.067
11.0469 21.935
11.0621 22.219
11.0773 22.169
11.0925 21.594
11.1076 21.912
11.1228 22.049
11.1380 21.688
11.1532 21.924
11.1683 21.891
11.1835 21.857
11.1987 21.662
11.2139 21.564
11.2290 21.538
11.2442 21.795
11.2594 22.170
11.2746 21.908
11.2897 21.665
11.3049 21.774
11.3201 21.487
11.3353 21.388
11.3504 21.096
11.3656 21.115
11.3808 21.241
11.3960 21.594
11.4111 21.411
11.4263 21.148
11.4415 21.184
11.4567 21.519
11.4718 21.321
11.4870 21.019
11.5022 21.248
11.5174 21.299
11.5325 21.179
11.5477 21.057
11.5629 20.951
11.5781 20.647
11.5932 20.973
11.6084 20.961
11.6236 20.859
11.6388 20.833
11.6539 20.717
11.6691 20.724
11.6843 20.782
11.6995 20.725
11.7146 20.433
11.7298 20.609
11.7450 20.826
11.7602 20.679
11.7753 20.170
11.7905 20.101
11.8057 20.169
11.8209 20.311
11.8360 19.946
11.8512 19.951
11.8664 20.173
11.8816 20.014
11.8967 20.082
11.9119 20.023
11.9271 19.608
11.9423 19.469
11.9574 19.435
11.9726 19.212
11.9878 19.206
12.0030 18.974
12.0181 18.959
12.0333 19.340
12.0485 19.418
12.0637 19.266
12.0788 19.255
12.0940 19.007
12.1092 18.874
12.1244 18.811
12.1395 18.913
12.1547 18.809
12.1699 18.577
12.1851 18.220
12.2002 18.414
12.2154 18.401
12.2306 18.333
12.2458 17.931
12.2609 17.882
12.2761 17.999
12.2913 17.844
12.3065 17.630
12.3216 17.444
12.3368 17.574
12.3520 17.683
12.3672 17.717
12.3823 17.753
12.3975 17.438
12.4127 17.285
12.4279 17.219
12.4430 16.880
12.4582 16.475
12.4734 16.654
12.4886 16.916
12.5037 16.784
12.5189 16.799
12.5341 16.598
12.5493 16.327
12.5644 16.374
12.5796 16.403
12.5948 16.431
12.6100 16.315
12.6251 15.897
12.6403 15.828
12.6555 15.781
12.6707 15.856
12.6858 15.883
12.7010 15.727
12.7162 15.644
12.7314 15.637
12.7465 15.237
12.7617 15.050
12.7769 15.096
12.7921 15.300
12.8072 15.415
12.8224 15.303
12.8376 15.176
12.8528 15.055
12.8679 15.234
12.8831 14.960
12.8983 14.742
12.9135 14.705
12.9286 14.257
12.9438 14.421
12.9590 14.635
12.9742 14.601
12.9893 14.388
13.0045 14.381
13.0197 14.336
13.0349 14.055
13.0500 14.182
13.0652 14.202
13.0804 14.042
13.0956 13.955
13.1107 13.899
13.1259 13.534
13.1411 13.439
13.1563 13.667
13.1714 13.517
13.1866 13.540
13.2018 13.737
13.2170 13.573
13.2321 13.388
13.2473 13.402
13.2625 13.547
13.2777 13.485
13.2928 13.324
13.3080 13.416
13.3232 13.291
13.3384 13.270
13.3535 13.208
13.3687 13.075
13.3839 13.193
13.3991 13.054
13.4142 12.824
13.4294 12.813
13.4446 12.844
13.4598 12.912
13.4749 12.955
13.4901 12.755
13.5053 12.398
13.5205 12.560
13.5356 12.687
13.5508 12.621
13.5660 12.483
13.5812 12.351
13.5963 12.105
13.6115 12.064
13.6267 12.041
13.6419 12.237
13.6570 12.164
13.6722 12.002
13.6874 12.200
13.7026 12.248
13.7177 11.948
13.7329 11.962
13.7481 12.100
13.7633 12.230
13.7784 12.305
13.7936 12.176
13.8088 12.176
13.8239 12.381
13.8391 12.132
13.8543 12.211
13.8695 12.129
13.8846 12.241
13.8998 12.206
13.9150 12.085
13.9302 12.095
13.9453 12.228
13.9605 11.916
13.9757 11.575
13.9909 11.781
14.0060 11.880
14.0212 11.633
14.0364 11.687
14.0516 11.439
14.0667 11.378
14.0819 11.400
14.0971 11.446
14.1123 11.404
14.1274 11.491
14.1426 11.483
14.1578 11.532
14.1730 11.393
14.1881 11.520
14.2033 11.606
14.2185 11.606
14.2337 11.861
14.2488 11.931
14.2640 12.151
14.2792 12.383
14.2944 12.565
14.3095 12.454
14.3247 12.543
14.3399 12.522
14.3551 12.737
14.3702 13.133
14.3854 13.143
14.4006 13.242
14.4158 13.075
14.4309 13.271
14.4461 12.983
14.4613 12.471
14.4765 12.398
14.4916 12.171
14.5068 12.194
14.5220 12.009
14.5372 11.467
14.5523 11.366
14.5675 11.297
14.5827 10.678
14.5979 10.982
14.6130 11.368
14.6282 11.066
14.6434 10.962
14.6586 10.947
14.6737 11.220
14.6889 10.766
14.7041 10.770
14.7193 10.890
14.7344 10.762
14.7496 10.752
14.7648 10.628
14.7800 10.701
14.7951 10.659
14.8103 10.403
14.8255 10.407
14.8407 10.531
14.8558 10.480
14.8710 10.413
14.8862 10.373
14.9014 10.412
14.9165 10.882
14.9317 10.932
14.9469 10.868
14.9621 10.557
14.9772 10.633
14.9924 10.346
15.0076 10.547
15.0228 10.315
15.0379 10.200
15.0531 10.595
15.0683 10.287
15.0835 10.565
15.0986 10.360
15.1138 10.217
15.1290 10.388
15.1442 10.073
15.1593 10.251
15.1745 10.157
15.1897 10.001
15.2049 10.128
15.2200 9.891
15.2352 10.122
15.2504 10.159
15.2656 10.039
15.2807 9.734
15.2959 10.113
15.3111 10.048
15.3263 10.229
15.3414 10.302
15.3566 10.096
15.3718 10.269
15.3870 10.358
15.4021 10.265
15.4173 10.667
15.4325 10.475
15.4477 10.265
15.4628 10.320
15.4780 10.330
15.4932 10.113
15.5084 10.155
15.5235 10.399
15.5387 10.162
15.5539 9.971
15.5691 10.034
15.5842 9.668
15.5994 9.737
15.6146 9.821
15.6298 9.839
15.6449 9.827
15.6601 9.983
15.6753 9.817
15.6905 9.609
15.7056 9.697
15.7208 9.865
15.7360 9.704
15.7512 9.820
15.7663 9.701
15.7815 9.929
15.7967 9.929
15.8119 9.540
15.8270 9.894
15.8422 9.629
15.8574 9.907
15.8726 9.890
15.8877 9.882
15.9029 9.752
15.9181 9.519
15.9333 9.643
15.9484 10.142
15.9636 9.710
15.9788 9.818
15.9940 9.595
16.0091 9.310
16.0243 9.504
16.0395 9.938
16.0547 9.771
16.0698 9.701
16.0850 9.899
16.1002 9.690
16.1154 9.585
16.1305 9.503
16.1457 9.518
16.1609 9.655
16.1761 9.718
16.1912 9.598
16.2064 9.584
16.2216 9.641
16.2368 9.566
16.2519 9.998
16.2671 9.957
16.2823 10.047
16.2975 9.884
16.3126 9.656
16.3278 9.900
16.3430 9.836
16.3582 9.960
16.3733 10.038
16.3885 9.952
16.4037 10.127
16.4189 9.974
16.4340 10.075
16.4492 9.860
16.4644 9.841
16.4796 9.624
16.4947 9.616
16.5099 9.829
16.5251 9.704
16.5403 9.601
16.5554 9.628
16.5706 9.642
16.5858 9.633
16.6010 9.367
16.6161 9.411
16.6313 9.636
16.6465 9.739
16.6617 9.611
16.6768 9.588
16.6920 9.870
16.7072 9.825
16.7224 9.886
16.7375 10.021
16.7527 9.937
16.7679 9.932
16.7831 9.844
16.7982 9.866
16.8134 9.880
16.8286 9.947
16.8438 9.842
16.8589 9.794
16.8741 9.906
16.8893 10.049
16.9045 9.859
16.9196 9.716
16.9348 9.711
16.9500 9.826
16.9652 9.698
16.9803 9.728
16.9955 9.784
17.0107 9.890
17.0259 10.029
17.0410 10.084
17.0562 9.999
17.0714 10.095
17.0866 10.291
17.1017 10.518
17.1169 10.884
17.1321 11.130
17.1473 11.450
17.1624 11.706
17.1776 12.176
17.1928 13.081
17.2080 14.019
17.2231 14.853
17.2383 16.119
17.2535 17.649
17.2687 18.625
17.2838 18.791
17.2990 17.832
17.3142 16.862
17.3294 16.479
17.3445 16.275
17.3597 16.178
17.3749 16.021
17.3901 15.227
17.4052 14.160
17.4204 13.340
17.4356 12.523
17.4508 12.010
17.4659 11.609
17.4811 11.486
17.4963 11.603
17.5115 11.571
17.5266 11.448
17.5418 11.436
17.5570 11.309
17.5722 10.995
17.5873 11.072
17.6025 11.206
17.6177 11.132
17.6329 11.266
17.6480 11.594
17.6632 11.600
17.6784 11.468
17.6936 11.669
17.7087 11.551
17.7239 11.279
17.7391 11.222
17.7543 10.958
17.7694 10.830
17.7846 11.028
17.7998 10.950
17.8150 10.715
17.8301 10.413
17.8453 10.466
17.8605 10.676
17.8757 10.429
17.8908 10.374
17.9060 10.371
17.9212 10.192
17.9364 10.323
17.9515 10.291
17.9667 10.105
17.9819 10.046
17.9971 10.186
18.0122 10.194
18.0274 10.168
18.0426 10.235
18.0578 10.433
18.0729 10.265
18.0881 10.076
18.1033 10.082
18.1185 10.064
18.1336 10.238
18.1488 10.118
18.1640 9.960
18.1792 9.828
18.1943 9.794
18.2095 9.900
18.2247 9.800
18.2399 9.901
18.2550 9.843
18.2702 9.815
18.2854 9.916
18.3006 9.896
18.3157 10.001
18.3309 9.947
18.3461 9.907
18.3613 9.717
18.3764 9.642
18.3916 9.665
18.4068 9.878
18.4220 10.003
18.4371 9.949
18.4523 9.807
18.4675 9.654
18.4827 9.564
18.4978 9.623
18.5130 9.734
18.5282 9.716
18.5434 9.709
18.5585 9.716
18.5737 9.675
18.5889 9.691
18.6041 9.704
18.6192 9.664
18.6344 9.645
18.6496 9.742
18.6648 9.654
18.6799 9.772
18.6951 9.617
18.7103 9.695
18.7255 9.803
18.7406 9.791
18.7558 9.775
18.7710 9.850
18.7862 9.820
18.8013 9.779
18.8165 9.861
18.8317 9.900
18.8469 10.023
18.8620 10.102
18.8772 10.012
18.8924 9.811
18.9076 9.870
18.9227 9.972
18.9379 10.059
18.9531 9.980
18.9683 9.862
18.9834 9.974
18.9986 10.048
19.0138 10.154
19.0290 10.087
19.0441 10.049
19.0593 10.244
19.0745 10.416
19.0897 10.363
19.1048 10.314
19.1200 10.372
19.1352 10.473
19.1504 10.669
19.1655 10.434
19.1807 10.416
19.1959 10.678
19.2111 10.593
19.2262 10.659
19.2414 10.965
19.2566 10.954
19.2718 10.746
19.2869 10.869
19.3021 10.928
19.3173 10.895
19.3325 10.894
19.3476 10.989
19.3628 10.959
19.3780 10.804
19.3932 10.997
19.4083 11.315
19.4235 11.203
19.4387 11.030
19.4539 11.041
19.4690 11.136
19.4842 11.262
19.4994 11.315
19.5146 11.493
19.5297 11.362
19.5449 11.214
19.5601 11.335
19.5753 11.480
19.5904 11.483
19.6056 11.475
19.6208 11.452
19.6360 11.625
19.6511 11.769
19.6663 11.864
19.6815 11.908
19.6967 11.843
19.7118 11.907
19.7270 11.794
19.7422 11.682
19.7574 11.785
19.7725 11.920
19.7877 12.050
19.8029 12.046
19.8180 11.986
19.8332 11.987
19.8484 12.080
19.8636 12.372
19.8787 12.656
19.8939 12.794
19.9091 13.214
19.9243 13.604
19.9394 13.861
19.9546 13.841
19.9698 14.227
19.9850 14.853
20.0001 14.549
20.0153 14.144
20.0305 13.897
20.0457 13.734
20.0608 13.923
20.0760 13.980
20.0912 13.763
20.1064 13.463
20.1215 13.249
20.1367 13.050
20.1519 13.091
20.1671 13.141
20.1822 12.988
20.1974 12.953
20.2126 12.914
20.2278 12.803
20.2429 12.655
20.2581 12.571
20.2733 12.272
20.2885 12.386
20.3036 12.319
20.3188 12.495
20.3340 12.361
20.3492 12.085
20.3643 12.092
20.3795 11.918
20.3947 11.985
20.4099 11.890
20.4250 11.902
20.4402 11.777
20.4554 11.922
20.4706 12.106
20.4857 12.018
20.5009 11.715
20.5161 11.547
20.5313 11.609
20.5464 11.536
20.5616 11.370
20.5768 11.345
20.5920 11.270
20.6071 10.987
20.6223 11.145
20.6375 11.075
20.6527 10.912
20.6678 10.793
20.6830 10.420
20.6982 10.547
20.7134 10.648
20.7285 10.417
20.7437 10.388
20.7589 10.483
20.7741 10.273
20.7892 10.221
20.8044 10.052
20.8196 9.826
20.8348 10.365
20.8499 10.667
20.8651 10.488
20.8803 10.496
20.8955 10.474
20.9106 10.138
20.9258 9.980
20.9410 10.089
20.9562 10.195
20.9713 10.074
20.9865 10.298
21.0017 10.183
21.0169 9.604
21.0320 9.927
21.0472 9.928
21.0624 9.929
21.0776 10.190
21.0927 9.770
21.1079 9.805
21.1231 10.235
21.1383 9.755
21.1534 9.749
21.1686 9.692
21.1838 9.649
21.1990 9.945
21.2141 9.566
21.2293 9.536
21.2445 9.809
21.2597 9.549
21.2748 9.495
21.2900 9.413
21.3052 9.545
21.3204 9.469
21.3355 9.468
21.3507 9.413
21.3659 9.588
21.3811 9.518
21.3962 9.440
21.4114 9.702
21.4266 9.402
21.4418 9.532
21.4569 9.549
21.4721 9.709
21.4873 9.302
21.5025 9.366
21.5176 9.482
21.5328 9.193
21.5480 9.318
21.5632 9.383
21.5783 9.098
21.5935 8.967
21.6087 9.221
21.6239 9.285
21.6390 9.201
21.6542 9.225
21.6694 9.434
21.6846 9.395
21.6997 9.187
21.7149 9.234
21.7301 9.192
21.7453 9.238
21.7604 9.099
21.7756 8.999
21.7908 9.121
21.8060 9.219
21.8211 9.222
21.8363 9.146
21.8515 9.242
21.8667 9.354
21.8818 9.510
21.8970 9.248
21.9122 8.981
21.9274 9.052
21.9425 8.976
21.9577 8.943
21.9729 8.759
21.9881 8.784
22.0032 8.960
22.0184 8.782
22.0336 8.746
22.0488 8.737
22.0639 8.800
22.0791 8.633
22.0943 8.682
22.1095 8.720
22.1246 8.715
22.1398 8.719
22.1550 8.675
22.1702 8.616
22.1853 8.483
22.2005 8.550
22.2157 8.494
22.2309 8.422
22.2460 8.716
22.2612 8.753
22.2764 8.545
22.2916 8.588
22.3067 8.625
22.3219 8.364
22.3371 8.345
22.3523 8.497
22.3674 8.472
22.3826 8.341
22.3978 8.506
22.4130 8.276
22.4281 8.427
22.4433 8.604
22.4585 8.483
22.4737 8.665
22.4888 8.450
22.5040 8.500
22.5192 8.542
22.5344 8.319
22.5495 8.381
22.5647 8.087
22.5799 8.515
22.5951 8.355
22.6102 8.350
22.6254 8.205
22.6406 8.410
22.6558 8.467
22.6709 8.732
22.6861 8.188
22.7013 8.346
22.7165 7.927
22.7316 6.248
