'Id: "" Comment: "" Operator: "Lab Manager" Anode: "Mo" Scantype: "Still (Eiger2R_500K (1D mode))" TimePerStep: "300" X: "11.8" Y: "9.4" Z: "11.284" 
7.2532 19.150
7.2684 19.208
7.2836 19.125
7.2987 18.938
7.3139 18.970
7.3291 19.215
7.3443 19.203
7.3594 19.195
7.3746 19.266
7.3898 19.734
7.4050 19.775
7.4201 19.905
7.4353 19.543
7.4505 19.622
7.4657 19.280
7.4808 19.553
7.4960 19.894
7.5112 19.964
7.5264 20.226
7.5415 20.164
7.5567 20.116
7.5719 19.891
7.5871 20.120
7.6022 20.179
7.6174 20.361
7.6326 20.543
7.6478 20.457
7.6629 20.576
7.6781 20.519
7.6933 20.637
7.7085 20.900
7.7236 20.686
7.7388 20.695
7.7540 20.821
7.7692 20.634
7.7843 20.351
7.7995 20.604
7.8147 20.774
7.8299 20.363
7.8450 20.638
7.8602 20.932
7.8754 21.005
7.8905 21.340
7.9057 21.215
7.9209 20.936
7.9361 21.188
7.9512 21.478
7.9664 21.273
7.9816 21.170
7.9968 21.316
8.0119 21.305
8.0271 21.507
8.0423 21.354
8.0575 21.216
8.0726 21.472
8.0878 21.500
8.1030 21.275
8.1182 21.619
8.1333 21.337
8.1485 21.546
8.1637 21.305
8.1789 21.668
8.1940 21.962
8.2092 21.743
8.2244 21.697
8.2396 21.564
8.2547 21.963
8.2699 21.429
8.2851 21.577
8.3003 21.826
8.3154 22.044
8.3306 21.767
8.3458 22.087
8.3610 21.812
8.3761 22.094
8.3913 21.836
8.4065 22.004
8.4217 21.970
8.4368 21.347
8.4520 21.923
8.4672 22.145
8.4824 21.988
8.4975 22.266
8.5127 22.226
8.5279 21.931
8.5431 22.110
8.5582 22.092
8.5734 22.499
8.5886 22.172
8.6038 22.261
8.6189 22.432
8.6341 22.504
8.6493 22.110
8.6645 22.001
8.6796 22.823
8.6948 22.399
8.7100 22.187
8.7252 22.855
8.7403 23.347
8.7555 22.958
8.7707 23.625
8.7859 22.409
8.8010 22.616
8.8162 22.980
8.8314 22.838
8.8466 22.373
8.8617 22.825
8.8769 22.399
8.8921 22.569
8.9073 22.714
8.9224 22.638
8.9376 22.674
8.9528 22.918
8.9680 23.049
8.9831 22.844
8.9983 22.599
9.0135 22.713
9.0287 23.009
9.0438 22.543
9.0590 22.449
9.0742 22.483
9.0894 22.627
9.1045 22.884
9.1197 23.191
9.1349 22.974
9.1501 23.281
9.1652 23.131
9.1804 22.868
9.1956 22.792
9.2108 22.919
9.2259 22.834
9.2411 22.819
9.2563 23.069
9.2715 23.035
9.2866 23.104
9.3018 23.298
9.3170 23.528
9.3322 23.035
9.3473 22.924
9.3625 22.719
9.3777 23.034
9.3929 23.377
9.4080 23.319
9.4232 23.300
9.4384 23.424
9.4536 23.119
9.4687 23.219
9.4839 23.175
9.4991 23.066
9.5143 23.159
9.5294 23.366
9.5446 23.398
9.5598 23.204
9.5750 23.436
9.5901 23.562
9.6053 23.555
9.6205 23.567
9.6357 23.211
9.6508 23.641
9.6660 23.736
9.6812 23.790
9.6964 23.956
9.7115 23.800
9.7267 23.815
9.7419 23.889
9.7571 23.926
9.7722 24.089
9.7874 23.871
9.8026 23.827
9.8178 23.928
9.8329 23.660
9.8481 23.336
9.8633 23.323
9.8785 23.863
9.8936 23.982
9.9088 23.969
9.9240 23.904
9.9392 23.365
9.9543 23.161
9.9695 23.020
9.9847 23.332
9.9999 23.482
10.0150 23.612
10.0302 23.696
10.0454 23.720
10.0606 23.743
10.0757 23.722
10.0909 23.987
10.1061 23.991
10.1213 23.783
10.1364 23.921
10.1516 23.921
10.1668 23.959
10.1820 24.385
10.1971 24.539
10.2123 24.336
10.2275 24.154
10.2427 24.239
10.2578 24.273
10.2730 24.124
10.2882 23.851
10.3034 23.501
10.3185 23.529
10.3337 23.277
10.3489 23.101
10.3641 22.883
10.3792 22.889
10.3944 22.817
10.4096 23.047
10.4248 23.148
10.4399 22.786
10.4551 22.970
10.4703 22.756
10.4855 22.798
10.5006 22.857
10.5158 22.922
10.5310 22.789
10.5462 22.920
10.5613 22.728
10.5765 22.696
10.5917 22.592
10.6069 22.671
10.6220 23.008
10.6372 22.776
10.6524 22.587
10.6676 22.914
10.6827 22.799
10.6979 22.133
10.7131 22.378
10.7283 22.803
10.7434 22.301
10.7586 22.212
10.7738 22.224
10.7890 22.384
10.8041 22.377
10.8193 22.449
10.8345 22.362
10.8497 22.449
10.8648 22.658
10.8800 22.326
10.8952 22.776
10.9104 22.739
10.9255 22.279
10.9407 22.088
10.9559 21.911
10.9711 21.893
10.9862 22.018
11.0014 21.884
11.0166 21.961
11.0318 22.264
11.0469 22.166
11.0621 21.923
11.0773 21.892
11.0925 21.877
11.1076 21.786
11.1228 21.598
11.1380 21.735
11.1532 21.787
11.1683 22.097
11.1835 21.740
11.1987 21.824
11.2139 21.849
11.2290 22.324
11.2442 22.306
11.2594 22.041
11.2746 22.214
11.2897 22.024
11.3049 21.784
11.3201 21.621
11.3353 21.569
11.3504 21.832
11.3656 21.620
11.3808 21.442
11.3960 21.358
11.4111 21.468
11.4263 21.463
11.4415 21.341
11.4567 20.760
11.4718 20.881
11.4870 20.997
11.5022 20.958
11.5174 20.934
11.5325 20.542
11.5477 20.570
11.5629 21.026
11.5781 20.919
11.5932 21.327
11.6084 20.981
11.6236 20.698
11.6388 20.834
11.6539 20.493
11.6691 20.517
11.6843 20.927
11.6995 20.453
11.7146 20.453
11.7298 20.291
11.7450 19.982
11.7602 20.364
11.7753 20.179
11.7905 20.255
11.8057 20.384
11.8209 20.449
11.8360 20.409
11.8512 19.971
11.8664 19.622
11.8816 19.952
11.8967 19.918
11.9119 19.678
11.9271 19.682
11.9423 19.631
11.9574 19.456
11.9726 19.257
11.9878 19.565
12.0030 19.587
12.0181 19.279
12.0333 19.129
12.0485 19.199
12.0637 18.757
12.0788 18.760
12.0940 18.922
12.1092 18.722
12.1244 18.631
12.1395 18.693
12.1547 18.439
12.1699 18.221
12.1851 18.321
12.2002 18.472
12.2154 18.072
12.2306 17.933
12.2458 18.202
12.2609 18.347
12.2761 18.390
12.2913 17.925
12.3065 17.851
12.3216 17.555
12.3368 17.302
12.3520 17.408
12.3672 17.345
12.3823 17.489
12.3975 17.579
12.4127 17.378
12.4279 17.395
12.4430 17.254
12.4582 17.129
12.4734 17.131
12.4886 16.861
12.5037 16.890
12.5189 16.839
12.5341 16.636
12.5493 16.472
12.5644 16.225
12.5796 16.185
12.5948 16.383
12.6100 16.249
12.6251 15.824
12.6403 15.860
12.6555 15.977
12.6707 15.993
12.6858 15.865
12.7010 15.682
12.7162 15.346
12.7314 15.243
12.7465 15.221
12.7617 15.135
12.7769 15.177
12.7921 15.320
12.8072 15.271
12.8224 15.019
12.8376 14.775
12.8528 14.731
12.8679 14.896
12.8831 14.934
12.8983 14.862
12.9135 14.783
12.9286 14.667
12.9438 14.282
12.9590 14.333
12.9742 14.583
12.9893 14.504
13.0045 14.563
13.0197 14.471
13.0349 14.270
13.0500 14.218
13.0652 13.959
13.0804 13.963
13.0956 14.220
13.1107 14.068
13.1259 13.849
13.1411 13.670
13.1563 13.573
13.1714 13.626
13.1866 13.727
13.2018 13.760
13.2170 13.624
13.2321 13.397
13.2473 13.294
13.2625 13.357
13.2777 13.292
13.2928 13.241
13.3080 13.301
13.3232 13.269
13.3384 13.111
13.3535 12.927
13.3687 12.910
13.3839 13.140
13.3991 13.061
13.4142 12.926
13.4294 12.953
13.4446 12.779
13.4598 12.774
13.4749 12.797
13.4901 12.471
13.5053 12.244
13.5205 12.535
13.5356 12.535
13.5508 12.440
13.5660 12.526
13.5812 12.480
13.5963 12.263
13.6115 12.320
13.6267 12.197
13.6419 11.844
13.6570 12.049
13.6722 12.217
13.6874 11.962
13.7026 12.080
13.7177 12.174
13.7329 11.950
13.7481 12.009
13.7633 12.078
13.7784 12.151
13.7936 12.074
13.8088 12.048
13.8239 12.114
13.8391 12.264
13.8543 12.265
13.8695 12.365
13.8846 12.358
13.8998 11.937
13.9150 11.725
13.9302 12.038
13.9453 11.995
13.9605 11.803
13.9757 11.795
13.9909 11.694
14.0060 11.735
14.0212 11.470
14.0364 11.082
14.0516 11.420
14.0667 11.437
14.0819 11.354
14.0971 11.464
14.1123 11.459
14.1274 11.543
14.1426 11.506
14.1578 11.610
14.1730 11.478
14.1881 11.443
14.2033 11.812
14.2185 11.600
14.2337 11.786
14.2488 11.728
14.2640 11.775
14.2792 12.022
14.2944 12.120
14.3095 12.395
14.3247 12.361
14.3399 12.338
14.3551 12.659
14.3702 13.070
14.3854 13.423
14.4006 13.188
14.4158 12.976
14.4309 13.269
14.4461 13.040
14.4613 13.029
14.4765 13.061
14.4916 12.916
14.5068 12.848
14.5220 12.779
14.5372 12.445
14.5523 12.796
14.5675 12.717
14.5827 12.359
14.5979 12.429
14.6130 12.298
14.6282 12.197
14.6434 12.041
14.6586 11.686
14.6737 11.232
14.6889 11.414
14.7041 11.265
14.7193 10.948
14.7344 11.303
14.7496 11.140
14.7648 10.439
14.7800 10.679
14.7951 10.791
14.8103 10.753
14.8255 10.822
14.8407 10.563
14.8558 10.911
14.8710 10.864
14.8862 10.595
14.9014 10.607
14.9165 10.795
14.9317 11.046
14.9469 10.799
14.9621 10.846
14.9772 10.292
14.9924 10.559
15.0076 10.592
15.0228 10.536
15.0379 10.156
15.0531 10.458
15.0683 10.705
15.0835 10.374
15.0986 10.470
15.1138 10.622
15.1290 10.535
15.1442 10.635
15.1593 10.462
15.1745 10.507
15.1897 10.565
15.2049 10.325
15.2200 10.517
15.2352 10.809
15.2504 10.506
15.2656 10.109
15.2807 10.526
15.2959 10.560
15.3111 10.286
15.3263 10.591
15.3414 10.090
15.3566 10.503
15.3718 10.576
15.3870 10.308
15.4021 10.710
15.4173 10.582
15.4325 10.270
15.4477 10.128
15.4628 10.447
15.4780 10.768
15.4932 10.223
15.5084 10.416
15.5235 10.037
15.5387 10.330
15.5539 10.052
15.5691 10.443
15.5842 10.082
15.5994 10.473
15.6146 10.267
15.6298 10.219
15.6449 9.894
15.6601 10.070
15.6753 10.134
15.6905 9.989
15.7056 9.833
15.7208 9.732
15.7360 9.672
15.7512 9.912
15.7663 10.091
15.7815 9.818
15.7967 9.799
15.8119 10.138
15.8270 9.778
15.8422 9.739
15.8574 10.010
15.8726 9.796
15.8877 9.504
15.9029 9.682
15.9181 9.866
15.9333 9.901
15.9484 9.884
15.9636 9.813
15.9788 9.749
15.9940 9.955
16.0091 10.024
16.0243 9.799
16.0395 9.770
16.0547 9.611
16.0698 9.617
16.0850 9.948
16.1002 9.878
16.1154 9.806
16.1305 9.665
16.1457 9.689
16.1609 9.577
16.1761 9.481
16.1912 9.759
16.2064 9.898
16.2216 9.663
16.2368 9.835
16.2519 9.857
16.2671 9.954
16.2823 9.852
16.2975 9.986
16.3126 10.180
16.3278 10.290
16.3430 9.963
16.3582 9.861
16.3733 9.981
16.3885 10.149
16.4037 10.247
16.4189 10.271
16.4340 10.175
16.4492 10.172
16.4644 9.973
16.4796 9.869
16.4947 10.013
16.5099 9.766
16.5251 9.791
16.5403 9.767
16.5554 9.632
16.5706 9.548
16.5858 9.659
16.6010 9.839
16.6161 9.681
16.6313 9.601
16.6465 9.578
16.6617 9.722
16.6768 9.907
16.6920 9.937
16.7072 9.926
16.7224 10.040
16.7375 9.881
16.7527 9.876
16.7679 9.872
16.7831 9.902
16.7982 9.914
16.8134 9.889
16.8286 9.815
16.8438 9.719
16.8589 9.974
16.8741 9.881
16.8893 9.656
16.9045 9.748
16.9196 9.779
16.9348 9.894
16.9500 9.968
16.9652 9.836
16.9803 9.625
16.9955 9.761
17.0107 9.959
17.0259 9.871
17.0410 10.049
17.0562 10.296
17.0714 10.262
17.0866 10.368
17.1017 10.704
17.1169 10.758
17.1321 10.773
17.1473 11.262
17.1624 11.740
17.1776 12.317
17.1928 12.919
17.2080 13.866
17.2231 14.893
17.2383 15.784
17.2535 17.140
17.2687 18.478
17.2838 18.950
17.2990 18.393
17.3142 17.205
17.3294 16.368
17.3445 16.203
17.3597 15.946
17.3749 15.526
17.3901 15.091
17.4052 14.145
17.4204 13.101
17.4356 12.368
17.4508 12.020
17.4659 11.791
17.4811 11.471
17.4963 11.227
17.5115 11.131
17.5266 11.144
17.5418 10.853
17.5570 11.113
17.5722 11.408
17.5873 11.373
17.6025 11.456
17.6177 11.296
17.6329 11.158
17.6480 10.872
17.6632 10.850
17.6784 11.105
17.6936 10.863
17.7087 10.836
17.7239 11.071
17.7391 10.990
17.7543 10.811
17.7694 10.703
17.7846 10.794
17.7998 10.904
17.8150 10.853
17.8301 10.964
17.8453 11.271
17.8605 11.545
17.8757 11.637
17.8908 11.266
17.9060 11.033
17.9212 11.113
17.9364 11.079
17.9515 10.939
17.9667 11.073
17.9819 11.022
17.9971 10.921
18.0122 10.761
18.0274 10.531
18.0426 10.516
18.0578 10.411
18.0729 10.378
18.0881 10.320
18.1033 10.415
18.1185 10.318
18.1336 9.997
18.1488 9.947
18.1640 9.976
18.1792 10.040
18.1943 10.017
18.2095 10.150
18.2247 9.981
18.2399 9.906
18.2550 9.884
18.2702 9.805
18.2854 9.855
18.3006 9.989
18.3157 9.972
18.3309 10.003
18.3461 10.042
18.3613 9.988
18.3764 9.809
18.3916 9.785
18.4068 9.753
18.4220 9.657
18.4371 9.812
18.4523 9.959
18.4675 9.961
18.4827 10.024
18.4978 9.903
18.5130 9.764
18.5282 9.663
18.5434 9.771
18.5585 9.901
18.5737 9.792
18.5889 9.914
18.6041 9.840
18.6192 9.780
18.6344 10.020
18.6496 10.020
18.6648 9.663
18.6799 9.761
18.6951 9.947
18.7103 9.872
18.7255 9.829
18.7406 9.635
18.7558 9.739
18.7710 9.895
18.7862 9.842
18.8013 9.770
18.8165 9.692
18.8317 9.921
18.8469 9.925
18.8620 9.893
18.8772 9.911
18.8924 10.090
18.9076 10.167
18.9227 10.010
18.9379 9.835
18.9531 9.728
18.9683 9.731
18.9834 10.159
18.9986 10.182
19.0138 10.172
19.0290 10.264
19.0441 10.292
19.0593 10.043
19.0745 10.081
19.0897 10.267
19.1048 10.228
19.1200 10.364
19.1352 10.425
19.1504 10.432
19.1655 10.453
19.1807 10.501
19.1959 10.447
19.2111 10.369
19.2262 10.541
19.2414 10.449
19.2566 10.649
19.2718 10.910
19.2869 11.013
19.3021 10.877
19.3173 10.821
19.3325 10.730
19.3476 10.837
19.3628 11.111
19.3780 10.990
19.3932 10.914
19.4083 11.014
19.4235 11.137
19.4387 11.224
19.4539 11.168
19.4690 11.183
19.4842 11.276
19.4994 11.329
19.5146 11.434
19.5297 11.612
19.5449 11.616
19.5601 11.520
19.5753 11.427
19.5904 11.529
19.6056 11.661
19.6208 11.534
19.6360 11.471
19.6511 11.669
19.6663 11.774
19.6815 11.692
19.6967 11.513
19.7118 11.383
19.7270 11.693
19.7422 11.912
19.7574 11.709
19.7725 11.788
19.7877 11.886
19.8029 11.788
19.8180 11.959
19.8332 12.275
19.8484 12.337
19.8636 12.359
19.8787 12.430
19.8939 12.707
19.9091 12.979
19.9243 13.610
19.9394 13.925
19.9546 14.035
19.9698 14.226
19.9850 14.257
20.0001 14.274
20.0153 14.110
20.0305 13.891
20.0457 13.808
20.0608 13.789
20.0760 13.660
20.0912 13.677
20.1064 13.671
20.1215 13.421
20.1367 13.023
20.1519 12.800
20.1671 12.616
20.1822 12.610
20.1974 12.634
20.2126 12.630
20.2278 12.579
20.2429 12.646
20.2581 12.435
20.2733 12.376
20.2885 12.268
20.3036 11.946
20.3188 11.929
20.3340 11.823
20.3492 11.700
20.3643 11.484
20.3795 11.567
20.3947 11.354
20.4099 11.222
20.4250 11.092
20.4402 11.161
20.4554 11.118
20.4706 11.051
20.4857 10.958
20.5009 10.957
20.5161 10.878
20.5313 11.033
20.5464 11.018
20.5616 10.685
20.5768 10.978
20.5920 10.983
20.6071 11.082
20.6223 10.869
20.6375 11.108
20.6527 11.073
20.6678 10.870
20.6830 10.691
20.6982 11.031
20.7134 10.528
20.7285 10.970
20.7437 11.120
20.7589 10.910
20.7741 10.553
20.7892 10.784
20.8044 10.766
20.8196 10.430
20.8348 10.344
20.8499 10.461
20.8651 10.524
20.8803 10.257
20.8955 10.250
20.9106 10.367
20.9258 10.396
20.9410 10.297
20.9562 10.570
20.9713 10.263
20.9865 10.000
21.0017 10.178
21.0169 10.188
21.0320 10.038
21.0472 9.821
21.0624 10.167
21.0776 9.928
21.0927 10.103
21.1079 9.851
21.1231 9.623
21.1383 9.785
21.1534 9.749
21.1686 9.774
21.1838 9.597
21.1990 9.579
21.2141 9.452
21.2293 9.460
21.2445 9.332
21.2597 9.721
21.2748 9.659
21.2900 9.571
21.3052 9.631
21.3204 9.612
21.3355 9.484
21.3507 9.656
21.3659 9.656
21.3811 9.738
21.3962 9.202
21.4114 9.170
21.4266 9.329
21.4418 9.185
21.4569 9.400
21.4721 9.307
21.4873 9.594
21.5025 9.682
21.5176 9.543
21.5328 9.454
21.5480 9.223
21.5632 9.120
21.5783 9.236
21.5935 9.206
21.6087 9.303
21.6239 9.029
21.6390 8.959
21.6542 9.166
21.6694 9.096
21.6846 9.267
21.6997 9.089
21.7149 9.169
21.7301 9.100
21.7453 9.134
21.7604 9.351
21.7756 9.179
21.7908 8.923
21.8060 8.772
21.8211 8.978
21.8363 9.109
21.8515 8.943
21.8667 9.176
21.8818 9.118
21.8970 8.933
21.9122 8.937
21.9274 9.019
21.9425 8.910
21.9577 8.929
21.9729 8.926
21.9881 8.847
22.0032 8.802
22.0184 8.919
22.0336 8.834
22.0488 8.623
22.0639 8.682
22.0791 8.694
22.0943 8.773
22.1095 8.684
22.1246 8.648
22.1398 8.602
22.1550 8.473
22.1702 8.641
22.1853 8.772
22.2005 8.586
22.2157 8.531
22.2309 8.595
22.2460 8.458
22.2612 8.549
22.2764 8.679
22.2916 8.770
22.3067 8.666
22.3219 8.550
22.3371 8.753
22.3523 8.654
22.3674 8.682
22.3826 8.570
22.3978 8.485
22.4130 8.511
22.4281 8.310
22.4433 8.393
22.4585 8.610
22.4737 8.319
22.4888 8.565
22.5040 8.196
22.5192 8.603
22.5344 8.583
22.5495 8.406
22.5647 8.429
22.5799 8.559
22.5951 8.453
22.6102 8.634
22.6254 8.616
22.6406 8.745
22.6558 8.233
22.6709 8.465
22.6861 8.393
22.7013 8.110
22.7165 8.135
22.7316 6.531
