'Id: "" Comment: "" Operator: "Lab Manager" Anode: "Mo" Scantype: "Still (Eiger2R_500K (1D mode))" TimePerStep: "300" X: "11.8" Y: "9.4" Z: "11.284" 
7.2532 18.691
7.2684 19.319
7.2836 18.757
7.2987 18.926
7.3139 18.897
7.3291 19.210
7.3443 19.015
7.3594 18.858
7.3746 19.094
7.3898 19.295
7.4050 19.461
7.4201 19.067
7.4353 19.562
7.4505 19.746
7.4657 19.800
7.4808 19.471
7.4960 19.262
7.5112 19.398
7.5264 19.166
7.5415 19.434
7.5567 19.758
7.5719 19.717
7.5871 19.687
7.6022 19.853
7.6174 20.032
7.6326 19.931
7.6478 19.982
7.6629 20.595
7.6781 20.158
7.6933 20.059
7.7085 20.262
7.7236 20.341
7.7388 20.475
7.7540 20.345
7.7692 20.577
7.7843 20.693
7.7995 20.800
7.8147 20.800
7.8299 20.532
7.8450 20.678
7.8602 20.860
7.8754 20.762
7.8905 20.827
7.9057 20.918
7.9209 20.997
7.9361 20.927
7.9512 20.967
7.9664 21.020
7.9816 21.153
7.9968 21.278
8.0119 21.458
8.0271 21.148
8.0423 21.043
8.0575 21.061
8.0726 21.476
8.0878 21.134
8.1030 21.052
8.1182 20.846
8.1333 21.180
8.1485 21.665
8.1637 21.400
8.1789 20.890
8.1940 21.060
8.2092 21.166
8.2244 21.484
8.2396 21.392
8.2547 21.167
8.2699 21.498
8.2851 21.405
8.3003 21.961
8.3154 21.733
8.3306 21.906
8.3458 21.384
8.3610 21.789
8.3761 21.341
8.3913 21.371
8.4065 22.136
8.4217 21.880
8.4368 21.569
8.4520 21.668
8.4672 22.232
8.4824 22.515
8.4975 21.773
8.5127 22.305
8.5279 22.124
8.5431 21.911
8.5582 22.234
8.5734 22.171
8.5886 22.062
8.6038 22.110
8.6189 22.153
8.6341 21.641
8.6493 22.264
8.6645 21.788
8.6796 22.217
8.6948 22.055
8.7100 22.322
8.7252 22.284
8.7403 22.147
8.7555 22.231
8.7707 22.019
8.7859 22.110
8.8010 22.374
8.8162 22.179
8.8314 22.538
8.8466 23.059
8.8617 22.610
8.8769 22.388
8.8921 22.167
8.9073 22.604
8.9224 22.581
8.9376 22.277
8.9528 22.578
8.9680 22.593
8.9831 22.543
8.9983 22.365
9.0135 22.052
9.0287 21.994
9.0438 22.300
9.0590 22.875
9.0742 22.798
9.0894 22.733
9.1045 22.934
9.1197 23.018
9.1349 22.835
9.1501 22.615
9.1652 22.735
9.1804 22.917
9.1956 23.107
9.2108 22.958
9.2259 22.732
9.2411 22.812
9.2563 22.454
9.2715 22.559
9.2866 22.949
9.3018 22.861
9.3170 22.987
9.3322 23.239
9.3473 22.796
9.3625 22.759
9.3777 22.866
9.3929 23.111
9.4080 22.957
9.4232 22.911
9.4384 22.808
9.4536 22.602
9.4687 22.709
9.4839 23.192
9.4991 23.303
9.5143 23.299
9.5294 22.993
9.5446 22.987
9.5598 23.220
9.5750 23.437
9.5901 23.247
9.6053 23.064
9.6205 23.234
9.6357 23.330
9.6508 23.454
9.6660 23.322
9.6812 23.360
9.6964 23.501
9.7115 23.921
9.7267 24.050
9.7419 23.983
9.7571 23.869
9.7722 24.031
9.7874 24.148
9.8026 23.545
9.8178 23.321
9.8329 23.493
9.8481 23.276
9.8633 22.968
9.8785 22.971
9.8936 23.196
9.9088 23.110
9.9240 23.203
9.9392 23.411
9.9543 23.360
9.9695 23.152
9.9847 23.187
9.9999 23.346
10.0150 23.242
10.0302 23.219
10.0454 22.995
10.0606 22.892
10.0757 23.207
10.0909 23.791
10.1061 23.412
10.1213 22.995
10.1364 23.112
10.1516 23.226
10.1668 22.931
10.1820 22.814
10.1971 23.171
10.2123 23.308
10.2275 23.284
10.2427 23.145
10.2578 23.111
10.2730 23.063
10.2882 23.010
10.3034 23.035
10.3185 23.051
10.3337 22.529
10.3489 22.408
10.3641 22.535
10.3792 22.730
10.3944 22.871
10.4096 22.903
10.4248 22.684
10.4399 22.570
10.4551 22.697
10.4703 22.625
10.4855 22.635
10.5006 22.840
10.5158 22.776
10.5310 22.554
10.5462 22.638
10.5613 22.814
10.5765 22.332
10.5917 22.549
10.6069 22.534
10.6220 22.456
10.6372 22.251
10.6524 22.632
10.6676 22.898
10.6827 22.426
10.6979 22.156
10.7131 22.432
10.7283 22.354
10.7434 22.435
10.7586 22.241
10.7738 22.324
10.7890 22.234
10.8041 22.090
10.8193 22.270
10.8345 22.275
10.8497 21.880
10.8648 22.028
10.8800 22.441
10.8952 22.249
10.9104 22.075
10.9255 21.918
10.9407 22.145
10.9559 21.943
10.9711 22.020
10.9862 22.250
11.0014 22.248
11.0166 21.789
11.0318 21.923
11.0469 22.149
11.0621 22.068
11.0773 21.843
11.0925 21.766
11.1076 21.697
11.1228 21.281
11.1380 21.499
11.1532 21.888
11.1683 21.799
11.1835 21.755
11.1987 21.607
11.2139 21.851
11.2290 21.742
11.2442 21.396
11.2594 21.653
11.2746 21.247
11.2897 21.254
11.3049 21.614
11.3201 21.199
11.3353 21.312
11.3504 21.534
11.3656 21.480
11.3808 20.982
11.3960 21.111
11.4111 21.214
11.4263 21.103
11.4415 21.180
11.4567 21.225
11.4718 21.163
11.4870 21.240
11.5022 21.146
11.5174 21.005
11.5325 21.082
11.5477 20.973
11.5629 20.714
11.5781 20.534
11.5932 20.899
11.6084 21.144
11.6236 20.920
11.6388 20.573
11.6539 20.896
11.6691 20.932
11.6843 20.699
11.6995 20.388
11.7146 20.483
11.7298 20.610
11.7450 20.344
11.7602 20.051
11.7753 20.401
11.7905 20.264
11.8057 20.169
11.8209 20.065
11.8360 19.957
11.8512 20.044
11.8664 19.444
11.8816 19.639
11.8967 19.912
11.9119 19.834
11.9271 19.704
11.9423 19.419
11.9574 19.165
11.9726 19.835
11.9878 19.773
12.0030 19.335
12.0181 19.182
12.0333 18.833
12.0485 18.832
12.0637 18.989
12.0788 19.033
12.0940 18.696
12.1092 18.661
12.1244 18.765
12.1395 18.590
12.1547 18.770
12.1699 18.445
12.1851 18.305
12.2002 18.339
12.2154 18.070
12.2306 17.982
12.2458 18.084
12.2609 18.163
12.2761 17.781
12.2913 17.833
12.3065 17.747
12.3216 17.561
12.3368 17.590
12.3520 17.521
12.3672 17.627
12.3823 17.355
12.3975 16.983
12.4127 17.219
12.4279 17.155
12.4430 17.016
12.4582 16.963
12.4734 17.087
12.4886 16.742
12.5037 16.505
12.5189 16.395
12.5341 16.346
12.5493 16.203
12.5644 16.232
12.5796 16.201
12.5948 16.137
12.6100 15.967
12.6251 15.912
12.6403 16.126
12.6555 16.096
12.6707 15.672
12.6858 15.232
12.7010 15.342
12.7162 15.355
12.7314 15.282
12.7465 15.366
12.7617 15.202
12.7769 15.104
12.7921 15.059
12.8072 15.055
12.8224 14.976
12.8376 15.099
12.8528 15.018
12.8679 14.955
12.8831 15.001
12.8983 14.880
12.9135 14.818
12.9286 14.670
12.9438 14.531
12.9590 14.541
12.9742 14.570
12.9893 14.399
13.0045 14.241
13.0197 14.214
13.0349 14.054
13.0500 13.909
13.0652 14.064
13.0804 13.871
13.0956 13.592
13.1107 13.750
13.1259 13.630
13.1411 13.441
13.1563 13.482
13.1714 13.504
13.1866 13.397
13.2018 13.232
13.2170 13.332
13.2321 13.491
13.2473 13.399
13.2625 13.230
13.2777 13.282
13.2928 13.377
13.3080 13.356
13.3232 13.271
13.3384 13.160
13.3535 13.249
13.3687 13.222
13.3839 12.894
13.3991 12.832
13.4142 13.042
13.4294 12.748
13.4446 12.628
13.4598 12.808
13.4749 12.653
13.4901 12.548
13.5053 12.409
13.5205 12.258
13.5356 12.271
13.5508 12.366
13.5660 12.490
13.5812 12.381
13.5963 12.298
13.6115 12.147
13.6267 11.921
13.6419 11.843
13.6570 12.017
13.6722 12.116
13.6874 11.939
13.7026 12.044
13.7177 12.114
13.7329 12.146
13.7481 12.164
13.7633 12.166
13.7784 12.112
13.7936 12.245
13.8088 12.409
13.8239 12.363
13.8391 12.147
13.8543 12.096
13.8695 12.017
13.8846 12.179
13.8998 12.176
13.9150 12.208
13.9302 11.996
13.9453 11.820
13.9605 11.567
13.9757 11.699
13.9909 11.742
14.0060 11.744
14.0212 11.504
14.0364 11.676
14.0516 11.368
14.0667 11.533
14.0819 11.691
14.0971 11.667
14.1123 11.728
14.1274 12.174
14.1426 11.820
14.1578 11.535
14.1730 11.491
14.1881 11.674
14.2033 11.793
14.2185 11.896
14.2337 11.693
14.2488 12.021
14.2640 12.126
14.2792 11.901
14.2944 12.091
14.3095 11.873
14.3247 12.189
14.3399 12.314
14.3551 12.198
14.3702 12.994
14.3854 13.097
14.4006 13.026
14.4158 13.016
14.4309 13.066
14.4461 12.862
14.4613 12.780
14.4765 12.420
14.4916 12.065
14.5068 12.157
14.5220 12.017
14.5372 11.318
14.5523 11.256
14.5675 11.607
14.5827 11.184
14.5979 10.989
14.6130 11.114
14.6282 10.939
14.6434 11.016
14.6586 11.006
14.6737 10.872
14.6889 10.835
14.7041 10.952
14.7193 10.910
14.7344 11.016
14.7496 11.044
14.7648 10.836
14.7800 10.780
14.7951 10.600
14.8103 10.807
14.8255 10.716
14.8407 10.541
14.8558 10.455
14.8710 10.597
14.8862 10.457
14.9014 10.554
14.9165 10.556
14.9317 10.819
14.9469 10.465
14.9621 10.472
14.9772 10.125
14.9924 10.013
15.0076 10.414
15.0228 10.548
15.0379 10.231
15.0531 10.480
15.0683 10.371
15.0835 10.258
15.0986 10.562
15.1138 10.811
15.1290 10.592
15.1442 10.584
15.1593 10.347
15.1745 10.313
15.1897 10.029
15.2049 9.993
15.2200 10.126
15.2352 10.083
15.2504 9.858
15.2656 10.167
15.2807 10.144
15.2959 9.958
15.3111 10.292
15.3263 9.981
15.3414 10.572
15.3566 10.029
15.3718 9.779
15.3870 10.283
15.4021 10.357
15.4173 10.169
15.4325 10.447
15.4477 10.202
15.4628 9.977
15.4780 10.256
15.4932 10.232
15.5084 10.034
15.5235 9.945
15.5387 9.772
15.5539 9.985
15.5691 9.754
15.5842 9.802
15.5994 9.989
15.6146 9.693
15.6298 9.872
15.6449 10.109
15.6601 10.069
15.6753 9.569
15.6905 9.836
15.7056 9.972
15.7208 9.715
15.7360 9.428
15.7512 9.557
15.7663 9.778
15.7815 9.781
15.7967 9.647
15.8119 9.939
15.8270 10.283
15.8422 9.866
15.8574 9.577
15.8726 9.617
15.8877 9.659
15.9029 9.509
15.9181 9.617
15.9333 9.708
15.9484 9.598
15.9636 9.551
15.9788 9.659
15.9940 9.435
16.0091 9.662
16.0243 9.921
16.0395 9.636
16.0547 9.819
16.0698 9.761
16.0850 9.691
16.1002 9.588
16.1154 9.664
16.1305 9.613
16.1457 9.654
16.1609 9.548
16.1761 9.370
16.1912 9.556
16.2064 9.681
16.2216 9.783
16.2368 10.024
16.2519 9.966
16.2671 10.077
16.2823 9.812
16.2975 9.840
16.3126 9.862
16.3278 9.870
16.3430 9.771
16.3582 9.697
16.3733 9.674
16.3885 9.727
16.4037 9.982
16.4189 10.027
16.4340 9.961
16.4492 9.941
16.4644 9.852
16.4796 9.460
16.4947 9.558
16.5099 9.773
16.5251 9.816
16.5403 9.723
16.5554 9.719
16.5706 9.837
16.5858 9.665
16.6010 9.599
16.6161 9.637
16.6313 9.558
16.6465 9.345
16.6617 9.500
16.6768 9.854
16.6920 9.929
16.7072 9.928
16.7224 10.140
16.7375 9.867
16.7527 9.780
16.7679 9.949
16.7831 9.695
16.7982 9.809
16.8134 9.865
16.8286 9.895
16.8438 9.828
16.8589 9.877
16.8741 10.147
16.8893 10.123
16.9045 9.763
16.9196 9.599
16.9348 9.651
16.9500 9.900
16.9652 10.149
16.9803 9.932
16.9955 9.998
17.0107 10.014
17.0259 9.785
17.0410 9.829
17.0562 10.022
17.0714 10.191
17.0866 10.221
17.1017 10.417
17.1169 10.677
17.1321 10.894
17.1473 11.360
17.1624 11.875
17.1776 12.291
17.1928 13.193
17.2080 14.110
17.2231 14.779
17.2383 16.108
17.2535 17.660
17.2687 18.599
17.2838 18.569
17.2990 18.009
17.3142 17.209
17.3294 16.273
17.3445 16.128
17.3597 16.110
17.3749 15.756
17.3901 15.208
17.4052 14.199
17.4204 13.212
17.4356 12.613
17.4508 12.209
17.4659 11.909
17.4811 11.846
17.4963 11.768
17.5115 11.459
17.5266 11.033
17.5418 11.036
17.5570 11.142
17.5722 11.119
17.5873 11.142
17.6025 11.271
17.6177 11.560
17.6329 11.365
17.6480 11.342
17.6632 11.604
17.6784 11.683
17.6936 11.622
17.7087 11.329
17.7239 11.314
17.7391 11.188
17.7543 11.064
17.7694 11.040
17.7846 10.928
17.7998 11.030
17.8150 10.696
17.8301 10.404
17.8453 10.342
17.8605 10.266
17.8757 10.297
17.8908 10.417
17.9060 10.480
17.9212 10.204
17.9364 9.974
17.9515 9.929
17.9667 10.185
17.9819 10.279
17.9971 10.283
18.0122 10.378
18.0274 10.242
18.0426 10.217
18.0578 10.008
18.0729 9.824
18.0881 9.784
18.1033 9.825
18.1185 10.065
18.1336 10.126
18.1488 9.877
18.1640 9.710
18.1792 10.035
18.1943 10.104
18.2095 10.010
18.2247 10.090
18.2399 9.795
18.2550 9.667
18.2702 9.705
18.2854 9.874
18.3006 9.790
18.3157 9.706
18.3309 9.612
18.3461 9.454
18.3613 9.626
18.3764 10.024
18.3916 9.810
18.4068 9.539
18.4220 9.537
18.4371 9.578
18.4523 9.844
18.4675 9.983
18.4827 9.778
18.4978 9.597
18.5130 9.737
18.5282 9.763
18.5434 9.731
18.5585 9.821
18.5737 9.724
18.5889 9.512
18.6041 9.468
18.6192 9.403
18.6344 9.670
18.6496 9.985
18.6648 9.824
18.6799 9.696
18.6951 9.897
18.7103 9.827
18.7255 9.602
18.7406 9.649
18.7558 9.578
18.7710 9.507
18.7862 9.660
18.8013 9.730
18.8165 9.807
18.8317 10.071
18.8469 9.976
18.8620 9.889
18.8772 10.211
18.8924 10.164
18.9076 10.070
18.9227 10.104
18.9379 10.048
18.9531 10.004
18.9683 9.948
18.9834 9.923
18.9986 10.160
19.0138 10.284
19.0290 10.153
19.0441 10.146
19.0593 10.213
19.0745 10.178
19.0897 10.176
19.1048 10.242
19.1200 10.510
19.1352 10.564
19.1504 10.563
19.1655 10.609
19.1807 10.439
19.1959 10.504
19.2111 10.466
19.2262 10.550
19.2414 10.729
19.2566 10.789
19.2718 10.888
19.2869 10.783
19.3021 10.864
19.3173 10.898
19.3325 11.112
19.3476 11.238
19.3628 11.140
19.3780 10.989
19.3932 11.046
19.4083 11.117
19.4235 11.250
19.4387 11.228
19.4539 11.255
19.4690 11.425
19.4842 11.290
19.4994 11.391
19.5146 11.293
19.5297 11.211
19.5449 11.509
19.5601 11.553
19.5753 11.442
19.5904 11.311
19.6056 11.472
19.6208 11.597
19.6360 11.555
19.6511 11.607
19.6663 11.729
19.6815 11.706
19.6967 11.588
19.7118 11.687
19.7270 11.766
19.7422 11.694
19.7574 11.736
19.7725 11.848
19.7877 11.913
19.8029 11.875
19.8180 11.918
19.8332 11.895
19.8484 12.052
19.8636 12.321
19.8787 12.341
19.8939 12.564
19.9091 13.119
19.9243 13.373
19.9394 13.946
19.9546 14.403
19.9698 14.301
19.9850 14.430
20.0001 14.528
20.0153 14.198
20.0305 13.845
20.0457 13.710
20.0608 13.842
20.0760 13.844
20.0912 13.851
20.1064 14.021
20.1215 13.812
20.1367 13.566
20.1519 13.353
20.1671 12.929
20.1822 13.025
20.1974 12.716
20.2126 12.442
20.2278 12.618
20.2429 12.602
20.2581 12.303
20.2733 12.184
20.2885 12.192
20.3036 11.999
20.3188 11.556
20.3340 11.880
20.3492 12.012
20.3643 11.779
20.3795 11.601
20.3947 11.648
20.4099 11.737
20.4250 11.887
20.4402 12.248
20.4554 12.065
20.4706 11.880
20.4857 11.812
20.5009 11.670
20.5161 11.396
20.5313 11.518
20.5464 11.508
20.5616 11.308
20.5768 11.185
20.5920 11.254
20.6071 11.235
20.6223 10.893
20.6375 10.923
20.6527 10.621
20.6678 10.592
20.6830 10.583
20.6982 10.425
20.7134 10.528
20.7285 10.594
20.7437 10.317
20.7589 10.116
20.7741 10.398
20.7892 10.390
20.8044 10.072
20.8196 10.421
20.8348 10.137
20.8499 10.152
20.8651 10.301
20.8803 10.463
20.8955 10.264
20.9106 9.894
20.9258 10.012
20.9410 10.083
20.9562 10.013
20.9713 10.048
20.9865 10.109
21.0017 9.853
21.0169 10.091
21.0320 10.160
21.0472 9.979
21.0624 9.973
21.0776 9.756
21.0927 9.730
21.1079 9.593
21.1231 9.862
21.1383 9.612
21.1534 9.851
21.1686 9.599
21.1838 9.553
21.1990 9.771
21.2141 9.555
21.2293 9.670
21.2445 9.759
21.2597 9.451
21.2748 9.473
21.2900 9.892
21.3052 9.639
21.3204 9.587
21.3355 9.516
21.3507 9.436
21.3659 9.758
21.3811 9.342
21.3962 9.764
21.4114 9.477
21.4266 9.445
21.4418 9.569
21.4569 9.509
21.4721 9.379
21.4873 9.250
21.5025 9.466
21.5176 9.366
21.5328 9.483
21.5480 9.358
21.5632 9.299
21.5783 8.909
21.5935 9.257
21.6087 9.170
21.6239 9.161
21.6390 9.091
21.6542 9.185
21.6694 9.252
21.6846 9.244
21.6997 9.272
21.7149 9.024
21.7301 9.301
21.7453 9.125
21.7604 9.064
21.7756 9.163
21.7908 9.104
21.8060 8.858
21.8211 8.979
21.8363 8.972
21.8515 9.084
21.8667 9.136
21.8818 8.951
21.8970 8.887
21.9122 8.920
21.9274 8.773
21.9425 8.870
21.9577 8.864
21.9729 8.823
21.9881 8.944
22.0032 9.088
22.0184 8.885
22.0336 8.836
22.0488 8.878
22.0639 8.951
22.0791 8.908
22.0943 8.691
22.1095 8.769
22.1246 8.668
22.1398 8.316
22.1550 8.462
22.1702 8.630
22.1853 8.759
22.2005 8.768
22.2157 8.714
22.2309 8.613
22.2460 8.552
22.2612 8.508
22.2764 8.569
22.2916 8.506
22.3067 8.486
22.3219 8.519
22.3371 8.556
22.3523 8.645
22.3674 8.678
22.3826 8.499
22.3978 8.642
22.4130 8.542
22.4281 8.477
22.4433 8.417
22.4585 8.422
22.4737 8.549
22.4888 8.453
22.5040 8.668
22.5192 8.408
22.5344 8.435
22.5495 8.521
22.5647 8.773
22.5799 8.187
22.5951 8.265
22.6102 8.071
22.6254 8.289
22.6406 8.385
22.6558 8.434
22.6709 8.145
22.6861 8.184
22.7013 8.210
22.7165 8.005
22.7316 6.471
