'Id: "" Comment: "" Operator: "Lab Manager" Anode: "Mo" Scantype: "Still (Eiger2R_500K (1D mode))" TimePerStep: "300" X: "11.8" Y: "9.4" Z: "11.284" 
7.2532 18.711
7.2684 18.891
7.2836 18.959
7.2987 18.813
7.3139 19.136
7.3291 19.513
7.3443 19.490
7.3594 19.260
7.3746 19.404
7.3898 19.631
7.4050 19.510
7.4201 19.659
7.4353 19.128
7.4505 19.813
7.4657 19.757
7.4808 19.569
7.4960 19.506
7.5112 19.374
7.5264 19.537
7.5415 19.763
7.5567 20.002
7.5719 19.934
7.5871 19.958
7.6022 19.884
7.6174 20.133
7.6326 20.189
7.6478 20.156
7.6629 19.981
7.6781 20.050
7.6933 20.099
7.7085 20.120
7.7236 20.472
7.7388 20.625
7.7540 20.351
7.7692 20.438
7.7843 20.556
7.7995 20.540
7.8147 20.431
7.8299 20.625
7.8450 20.766
7.8602 20.689
7.8754 20.641
7.8905 20.835
7.9057 21.205
7.9209 21.049
7.9361 20.923
7.9512 21.198
7.9664 20.979
7.9816 20.609
7.9968 20.968
8.0119 21.111
8.0271 21.065
8.0423 21.353
8.0575 21.462
8.0726 21.228
8.0878 21.277
8.1030 21.327
8.1182 21.618
8.1333 21.307
8.1485 21.730
8.1637 21.986
8.1789 21.763
8.1940 21.696
8.2092 21.442
8.2244 21.731
8.2396 21.827
8.2547 21.890
8.2699 21.296
8.2851 21.565
8.3003 21.622
8.3154 21.818
8.3306 21.477
8.3458 21.629
8.3610 21.761
8.3761 21.718
8.3913 22.001
8.4065 22.182
8.4217 21.824
8.4368 22.117
8.4520 22.027
8.4672 22.185
8.4824 21.896
8.4975 22.070
8.5127 21.777
8.5279 21.995
8.5431 22.264
8.5582 22.031
8.5734 21.901
8.5886 22.199
8.6038 22.279
8.6189 21.920
8.6341 22.518
8.6493 22.322
8.6645 22.433
8.6796 22.576
8.6948 22.164
8.7100 22.172
8.7252 22.932
8.7403 22.732
8.7555 22.314
8.7707 22.028
8.7859 22.481
8.8010 22.174
8.8162 22.583
8.8314 22.641
8.8466 22.510
8.8617 22.496
8.8769 22.104
8.8921 22.668
8.9073 22.667
8.9224 22.524
8.9376 22.337
8.9528 22.603
8.9680 22.458
8.9831 22.579
8.9983 22.941
9.0135 23.211
9.0287 22.836
9.0438 22.229
9.0590 22.524
9.0742 22.910
9.0894 22.962
9.1045 22.825
9.1197 22.901
9.1349 22.841
9.1501 22.679
9.1652 22.960
9.1804 22.757
9.1956 22.908
9.2108 22.749
9.2259 22.946
9.2411 23.163
9.2563 23.157
9.2715 23.207
9.2866 23.125
9.3018 23.187
9.3170 23.237
9.3322 23.078
9.3473 23.307
9.3625 23.453
9.3777 22.907
9.3929 22.974
9.4080 23.371
9.4232 23.391
9.4384 23.165
9.4536 22.892
9.4687 23.126
9.4839 22.999
9.4991 23.095
9.5143 23.379
9.5294 23.362
9.5446 23.187
9.5598 23.047
9.5750 23.119
9.5901 23.103
9.6053 23.219
9.6205 23.365
9.6357 23.389
9.6508 23.346
9.6660 23.696
9.6812 23.524
9.6964 23.853
9.7115 24.252
9.7267 24.469
9.7419 24.590
9.7571 24.055
9.7722 23.988
9.7874 24.083
9.8026 23.883
9.8178 23.753
9.8329 23.823
9.8481 23.954
9.8633 24.237
9.8785 24.025
9.8936 23.802
9.9088 23.929
9.9240 23.745
9.9392 23.562
9.9543 23.538
9.9695 23.673
9.9847 23.694
9.9999 23.593
10.0150 23.512
10.0302 23.587
10.0454 23.549
10.0606 23.345
10.0757 23.257
10.0909 23.240
10.1061 23.151
10.1213 22.875
10.1364 23.024
10.1516 23.226
10.1668 23.194
10.1820 22.972
10.1971 22.882
10.2123 23.055
10.2275 23.185
10.2427 23.077
10.2578 23.388
10.2730 23.282
10.2882 23.144
10.3034 22.732
10.3185 22.536
10.3337 22.695
10.3489 22.904
10.3641 22.815
10.3792 22.746
10.3944 22.969
10.4096 22.935
10.4248 22.877
10.4399 22.863
10.4551 22.625
10.4703 22.763
10.4855 22.820
10.5006 22.877
10.5158 23.074
10.5310 23.094
10.5462 22.921
10.5613 22.631
10.5765 22.735
10.5917 22.233
10.6069 22.503
10.6220 22.673
10.6372 22.630
10.6524 22.039
10.6676 22.178
10.6827 22.325
10.6979 22.519
10.7131 22.688
10.7283 22.462
10.7434 22.588
10.7586 22.492
10.7738 22.212
10.7890 22.457
10.8041 22.231
10.8193 22.114
10.8345 21.969
10.8497 22.335
10.8648 22.334
10.8800 22.154
10.8952 22.027
10.9104 22.373
10.9255 22.478
10.9407 22.088
10.9559 21.719
10.9711 21.915
10.9862 21.956
11.0014 21.749
11.0166 22.016
11.0318 22.027
11.0469 22.134
11.0621 21.948
11.0773 22.125
11.0925 21.985
11.1076 21.806
11.1228 21.582
11.1380 21.585
11.1532 21.736
11.1683 21.723
11.1835 22.010
11.1987 22.005
11.2139 21.837
11.2290 21.998
11.2442 21.749
11.2594 21.519
11.2746 21.381
11.2897 21.615
11.3049 21.656
11.3201 21.412
11.3353 21.369
11.3504 21.520
11.3656 21.527
11.3808 21.653
11.3960 21.329
11.4111 21.228
11.4263 21.209
11.4415 21.344
11.4567 21.286
11.4718 21.133
11.4870 20.912
11.5022 21.069
11.5174 21.216
11.5325 21.174
11.5477 21.139
11.5629 21.331
11.5781 21.314
11.5932 21.133
11.6084 20.871
11.6236 21.171
11.6388 21.343
11.6539 21.192
11.6691 20.759
11.6843 20.610
11.6995 20.577
11.7146 20.463
11.7298 20.334
11.7450 20.446
11.7602 20.322
11.7753 20.435
11.7905 20.498
11.8057 20.299
11.8209 20.019
11.8360 19.801
11.8512 20.407
11.8664 20.150
11.8816 19.525
11.8967 19.598
11.9119 19.743
11.9271 19.308
11.9423 19.443
11.9574 19.973
11.9726 19.825
11.9878 19.477
12.0030 19.114
12.0181 19.026
12.0333 19.111
12.0485 19.194
12.0637 19.096
12.0788 18.680
12.0940 18.856
12.1092 18.764
12.1244 18.606
12.1395 18.533
12.1547 18.612
12.1699 18.466
12.1851 18.571
12.2002 18.582
12.2154 18.741
12.2306 18.391
12.2458 17.766
12.2609 17.619
12.2761 17.683
12.2913 17.711
12.3065 17.672
12.3216 17.577
12.3368 17.472
12.3520 17.404
12.3672 17.425
12.3823 17.401
12.3975 17.077
12.4127 17.203
12.4279 17.094
12.4430 16.730
12.4582 16.652
12.4734 16.648
12.4886 16.773
12.5037 16.898
12.5189 16.720
12.5341 16.350
12.5493 16.207
12.5644 16.187
12.5796 16.247
12.5948 16.372
12.6100 16.182
12.6251 16.144
12.6403 15.999
12.6555 15.990
12.6707 15.797
12.6858 15.922
12.7010 16.008
12.7162 15.709
12.7314 15.452
12.7465 15.472
12.7617 15.332
12.7769 14.992
12.7921 14.853
12.8072 15.031
12.8224 15.082
12.8376 15.082
12.8528 15.072
12.8679 15.055
12.8831 14.899
12.8983 14.624
12.9135 14.814
12.9286 15.021
12.9438 14.907
12.9590 14.720
12.9742 14.713
12.9893 14.590
13.0045 14.451
13.0197 14.245
13.0349 14.482
13.0500 14.530
13.0652 14.031
13.0804 13.947
13.0956 13.791
13.1107 13.794
13.1259 13.892
13.1411 13.746
13.1563 13.836
13.1714 13.740
13.1866 13.802
13.2018 13.744
13.2170 13.295
13.2321 13.259
13.2473 13.315
13.2625 13.295
13.2777 13.097
13.2928 13.213
13.3080 13.312
13.3232 13.265
13.3384 13.239
13.3535 13.026
13.3687 12.970
13.3839 12.916
13.3991 13.064
13.4142 12.989
13.4294 12.863
13.4446 12.868
13.4598 12.999
13.4749 12.760
13.4901 12.603
13.5053 12.615
13.5205 12.494
13.5356 12.398
13.5508 12.339
13.5660 12.475
13.5812 12.497
13.5963 12.423
13.6115 12.305
13.6267 12.392
13.6419 12.493
13.6570 12.363
13.6722 12.218
13.6874 12.315
13.7026 12.293
13.7177 12.158
13.7329 12.071
13.7481 12.078
13.7633 12.015
13.7784 12.194
13.7936 12.383
13.8088 12.273
13.8239 12.223
13.8391 12.260
13.8543 12.276
13.8695 12.476
13.8846 12.396
13.8998 12.134
13.9150 11.931
13.9302 11.975
13.9453 12.018
13.9605 12.067
13.9757 11.791
13.9909 11.779
14.0060 11.688
14.0212 11.750
14.0364 11.421
14.0516 11.226
14.0667 11.548
14.0819 11.446
14.0971 11.547
14.1123 11.205
14.1274 11.159
14.1426 11.293
14.1578 11.312
14.1730 11.264
14.1881 11.610
14.2033 11.315
14.2185 11.234
14.2337 11.459
14.2488 11.249
14.2640 11.633
14.2792 11.489
14.2944 11.568
14.3095 11.646
14.3247 11.631
14.3399 11.700
14.3551 11.612
14.3702 12.207
14.3854 12.407
14.4006 12.506
14.4158 12.528
14.4309 12.580
14.4461 12.482
14.4613 12.572
14.4765 12.650
14.4916 12.258
14.5068 12.085
14.5220 11.827
14.5372 11.944
14.5523 11.549
14.5675 11.802
14.5827 11.522
14.5979 11.242
14.6130 11.582
14.6282 10.939
14.6434 11.071
14.6586 11.064
14.6737 11.222
14.6889 10.964
14.7041 10.931
14.7193 11.088
14.7344 10.991
14.7496 11.073
14.7648 11.186
14.7800 11.274
14.7951 11.578
14.8103 11.201
14.8255 10.914
14.8407 11.063
14.8558 10.739
14.8710 10.642
14.8862 10.930
14.9014 11.017
14.9165 10.986
14.9317 11.116
14.9469 10.755
14.9621 10.911
14.9772 10.447
14.9924 10.768
15.0076 10.707
15.0228 10.678
15.0379 10.599
15.0531 10.507
15.0683 10.384
15.0835 10.556
15.0986 10.155
15.1138 10.420
15.1290 10.203
15.1442 10.181
15.1593 10.654
15.1745 10.607
15.1897 10.294
15.2049 10.324
15.2200 10.056
15.2352 10.468
15.2504 10.099
15.2656 10.085
15.2807 10.358
15.2959 10.406
15.3111 10.357
15.3263 10.376
15.3414 10.268
15.3566 9.942
15.3718 10.580
15.3870 10.190
15.4021 10.572
15.4173 10.328
15.4325 10.679
15.4477 10.774
15.4628 10.633
15.4780 10.297
15.4932 10.408
15.5084 10.489
15.5235 10.710
15.5387 10.308
15.5539 10.397
15.5691 10.384
15.5842 10.394
15.5994 10.365
15.6146 10.209
15.6298 10.258
15.6449 10.614
15.6601 10.041
15.6753 9.853
15.6905 10.234
15.7056 10.156
15.7208 9.977
15.7360 10.480
15.7512 10.329
15.7663 10.117
15.7815 10.045
15.7967 10.126
15.8119 9.888
15.8270 10.037
15.8422 9.989
15.8574 9.983
15.8726 9.810
15.8877 9.547
15.9029 9.620
15.9181 9.804
15.9333 9.474
15.9484 9.598
15.9636 9.898
15.9788 9.827
15.9940 9.869
16.0091 9.687
16.0243 9.947
16.0395 9.891
16.0547 9.978
16.0698 9.835
16.0850 9.658
16.1002 9.682
16.1154 9.576
16.1305 9.905
16.1457 9.722
16.1609 9.815
16.1761 9.969
16.1912 9.555
16.2064 9.906
16.2216 9.922
16.2368 9.845
16.2519 10.017
16.2671 9.952
16.2823 10.044
16.2975 9.824
16.3126 9.970
16.3278 9.902
16.3430 9.845
16.3582 9.941
16.3733 9.926
16.3885 10.070
16.4037 10.008
16.4189 9.937
16.4340 9.789
16.4492 9.898
16.4644 9.901
16.4796 9.846
16.4947 9.998
16.5099 10.120
16.5251 9.887
16.5403 9.869
16.5554 9.769
16.5706 9.745
16.5858 9.832
16.6010 9.915
16.6161 9.716
16.6313 9.670
16.6465 9.844
16.6617 10.032
16.6768 10.057
16.6920 10.180
16.7072 10.036
16.7224 10.128
16.7375 10.180
16.7527 9.874
16.7679 9.768
16.7831 9.873
16.7982 10.220
16.8134 10.223
16.8286 9.874
16.8438 9.821
16.8589 9.944
16.8741 9.904
16.8893 9.792
16.9045 9.922
16.9196 9.979
16.9348 9.756
16.9500 9.816
16.9652 9.876
16.9803 10.034
16.9955 10.087
17.0107 10.141
17.0259 10.335
17.0410 10.382
17.0562 10.345
17.0714 10.313
17.0866 10.530
17.1017 10.755
17.1169 10.833
17.1321 11.068
17.1473 11.615
17.1624 12.051
17.1776 12.512
17.1928 13.102
17.2080 13.770
17.2231 15.098
17.2383 16.433
17.2535 17.808
17.2687 18.839
17.2838 18.719
17.2990 18.188
17.3142 17.231
17.3294 16.338
17.3445 16.112
17.3597 16.279
17.3749 16.127
17.3901 15.200
17.4052 14.186
17.4204 13.191
17.4356 12.457
17.4508 11.959
17.4659 11.532
17.4811 11.304
17.4963 11.011
17.5115 10.543
17.5266 10.390
17.5418 10.369
17.5570 10.319
17.5722 10.432
17.5873 10.251
17.6025 10.353
17.6177 10.434
17.6329 10.337
17.6480 10.289
17.6632 10.117
17.6784 10.181
17.6936 10.304
17.7087 10.236
17.7239 10.340
17.7391 10.323
17.7543 10.395
17.7694 10.492
17.7846 10.533
17.7998 10.725
17.8150 10.991
17.8301 10.963
17.8453 10.805
17.8605 11.035
17.8757 11.358
17.8908 11.351
17.9060 11.366
17.9212 11.210
17.9364 10.903
17.9515 10.830
17.9667 11.066
17.9819 10.858
17.9971 10.637
18.0122 10.584
18.0274 10.226
18.0426 10.128
18.0578 10.288
18.0729 10.314
18.0881 10.238
18.1033 10.099
18.1185 10.041
18.1336 10.096
18.1488 10.100
18.1640 10.030
18.1792 10.018
18.1943 9.887
18.2095 9.951
18.2247 9.956
18.2399 10.191
18.2550 10.077
18.2702 9.929
18.2854 9.941
18.3006 9.950
18.3157 10.086
18.3309 10.251
18.3461 10.170
18.3613 9.825
18.3764 9.559
18.3916 9.670
18.4068 10.089
18.4220 9.882
18.4371 9.856
18.4523 9.834
18.4675 9.896
18.4827 9.956
18.4978 9.915
18.5130 9.957
18.5282 10.134
18.5434 9.994
18.5585 9.765
18.5737 9.800
18.5889 9.832
18.6041 9.791
18.6192 9.763
18.6344 9.755
18.6496 9.756
18.6648 9.758
18.6799 9.634
18.6951 9.633
18.7103 9.884
18.7255 9.899
18.7406 9.802
18.7558 9.989
18.7710 9.996
18.7862 9.989
18.8013 9.811
18.8165 9.665
18.8317 9.930
18.8469 9.878
18.8620 9.799
18.8772 9.958
18.8924 9.764
18.9076 9.903
18.9227 9.980
18.9379 9.981
18.9531 10.113
18.9683 10.016
18.9834 9.956
18.9986 10.023
19.0138 10.020
19.0290 10.164
19.0441 10.213
19.0593 10.125
19.0745 10.302
19.0897 10.513
19.1048 10.486
19.1200 10.523
19.1352 10.541
19.1504 10.447
19.1655 10.508
19.1807 10.691
19.1959 10.684
19.2111 10.773
19.2262 11.058
19.2414 10.957
19.2566 10.813
19.2718 10.715
19.2869 10.808
19.3021 11.050
19.3173 11.087
19.3325 11.161
19.3476 11.222
19.3628 11.059
19.3780 10.989
19.3932 11.194
19.4083 11.314
19.4235 11.121
19.4387 10.977
19.4539 11.176
19.4690 11.559
19.4842 11.657
19.4994 11.537
19.5146 11.512
19.5297 11.372
19.5449 11.371
19.5601 11.631
19.5753 11.773
19.5904 11.529
19.6056 11.478
19.6208 11.644
19.6360 11.649
19.6511 11.706
19.6663 11.777
19.6815 11.640
19.6967 11.705
19.7118 12.027
19.7270 12.008
19.7422 11.963
19.7574 11.891
19.7725 11.902
19.7877 12.046
19.8029 12.081
19.8180 12.047
19.8332 12.126
19.8484 12.314
19.8636 12.475
19.8787 12.651
19.8939 12.817
19.9091 13.085
19.9243 13.383
19.9394 13.733
19.9546 14.380
19.9698 14.678
19.9850 14.768
20.0001 14.593
20.0153 14.201
20.0305 13.984
20.0457 13.923
20.0608 13.860
20.0760 13.841
20.0912 13.969
20.1064 13.787
20.1215 13.680
20.1367 13.370
20.1519 12.908
20.1671 12.907
20.1822 12.880
20.1974 12.793
20.2126 12.825
20.2278 12.350
20.2429 12.063
20.2581 12.018
20.2733 11.680
20.2885 11.833
20.3036 11.726
20.3188 11.628
20.3340 11.586
20.3492 11.287
20.3643 11.398
20.3795 11.317
20.3947 10.930
20.4099 10.747
20.4250 10.691
20.4402 10.600
20.4554 10.614
20.4706 10.936
20.4857 10.958
20.5009 10.767
20.5161 10.748
20.5313 10.892
20.5464 10.773
20.5616 10.633
20.5768 10.609
20.5920 10.599
20.6071 10.721
20.6223 10.316
20.6375 10.397
20.6527 10.804
20.6678 10.507
20.6830 10.676
20.6982 10.225
20.7134 10.156
20.7285 10.310
20.7437 10.241
20.7589 10.424
20.7741 10.279
20.7892 10.758
20.8044 10.171
20.8196 10.159
20.8348 10.213
20.8499 10.336
20.8651 10.088
20.8803 10.167
20.8955 10.058
20.9106 10.219
20.9258 10.275
20.9410 10.433
20.9562 10.531
20.9713 10.531
20.9865 10.420
21.0017 10.351
21.0169 10.326
21.0320 10.052
21.0472 10.378
21.0624 10.269
21.0776 10.085
21.0927 10.400
21.1079 10.175
21.1231 10.127
21.1383 10.004
21.1534 10.033
21.1686 9.734
21.1838 9.921
21.1990 9.553
21.2141 9.552
21.2293 9.669
21.2445 9.462
21.2597 9.494
21.2748 9.854
21.2900 9.607
21.3052 9.558
21.3204 9.619
21.3355 9.501
21.3507 9.491
21.3659 9.506
21.3811 9.645
21.3962 9.603
21.4114 9.663
21.4266 9.556
21.4418 9.407
21.4569 9.805
21.4721 9.456
21.4873 9.457
21.5025 9.424
21.5176 9.401
21.5328 9.447
21.5480 9.549
21.5632 9.266
21.5783 9.157
21.5935 9.190
21.6087 9.221
21.6239 9.140
21.6390 9.059
21.6542 8.897
21.6694 9.221
21.6846 8.889
21.6997 8.863
21.7149 8.931
21.7301 9.088
21.7453 8.991
21.7604 9.252
21.7756 9.138
21.7908 9.032
21.8060 9.119
21.8211 9.116
21.8363 8.840
21.8515 8.895
21.8667 8.996
21.8818 8.785
21.8970 9.005
21.9122 9.065
21.9274 9.013
21.9425 9.129
21.9577 8.991
21.9729 8.749
21.9881 8.692
22.0032 8.672
22.0184 8.711
22.0336 8.847
22.0488 8.874
22.0639 8.704
22.0791 8.553
22.0943 8.554
22.1095 8.549
22.1246 8.552
22.1398 8.738
22.1550 8.726
22.1702 8.585
22.1853 8.432
22.2005 8.493
22.2157 8.423
22.2309 8.628
22.2460 8.705
22.2612 8.644
22.2764 8.583
22.2916 8.827
22.3067 8.664
22.3219 8.561
22.3371 8.617
22.3523 8.520
22.3674 8.860
22.3826 8.595
22.3978 8.675
22.4130 8.782
22.4281 8.495
22.4433 8.389
22.4585 8.283
22.4737 8.471
22.4888 8.577
22.5040 8.555
22.5192 8.776
22.5344 8.686
22.5495 8.535
22.5647 8.335
22.5799 8.435
22.5951 8.276
22.6102 8.728
22.6254 8.572
22.6406 8.504
22.6558 8.252
22.6709 8.326
22.6861 8.436
22.7013 8.482
22.7165 7.926
22.7316 6.671
