'Id: "" Comment: "" Operator: "Lab Manager" Anode: "Mo" Scantype: "Still (Eiger2R_500K (1D mode))" TimePerStep: "300" X: "11.8" Y: "9.4" Z: "11.284" 
7.2532 18.949
7.2684 19.017
7.2836 18.879
7.2987 18.808
7.3139 19.250
7.3291 19.294
7.3443 19.124
7.3594 19.034
7.3746 19.443
7.3898 19.491
7.4050 19.633
7.4201 19.595
7.4353 19.588
7.4505 19.395
7.4657 19.572
7.4808 19.685
7.4960 19.748
7.5112 19.572
7.5264 19.741
7.5415 19.950
7.5567 19.686
7.5719 19.723
7.5871 19.800
7.6022 19.758
7.6174 19.742
7.6326 20.006
7.6478 20.136
7.6629 20.327
7.6781 20.402
7.6933 20.406
7.7085 20.519
7.7236 20.581
7.7388 20.626
7.7540 20.544
7.7692 20.536
7.7843 20.783
7.7995 20.852
7.8147 20.868
7.8299 20.974
7.8450 20.934
7.8602 20.816
7.8754 21.040
7.8905 21.205
7.9057 21.206
7.9209 21.416
7.9361 21.775
7.9512 21.403
7.9664 21.475
7.9816 21.503
7.9968 20.849
8.0119 20.972
8.0271 21.251
8.0423 21.256
8.0575 21.349
8.0726 21.500
8.0878 21.650
8.1030 21.483
8.1182 21.612
8.1333 21.621
8.1485 21.651
8.1637 21.690
8.1789 21.314
8.1940 21.325
8.2092 21.921
8.2244 21.795
8.2396 22.213
8.2547 21.828
8.2699 21.528
8.2851 21.618
8.3003 21.701
8.3154 21.981
8.3306 21.907
8.3458 22.258
8.3610 21.880
8.3761 21.946
8.3913 21.684
8.4065 22.007
8.4217 22.104
8.4368 21.679
8.4520 21.615
8.4672 22.125
8.4824 22.345
8.4975 22.166
8.5127 22.345
8.5279 22.389
8.5431 22.070
8.5582 21.977
8.5734 22.312
8.5886 22.449
8.6038 21.974
8.6189 22.486
8.6341 22.526
8.6493 22.857
8.6645 22.727
8.6796 22.458
8.6948 22.673
8.7100 22.582
8.7252 23.347
8.7403 22.859
8.7555 22.813
8.7707 22.889
8.7859 22.926
8.8010 22.824
8.8162 22.279
8.8314 22.353
8.8466 22.709
8.8617 22.637
8.8769 22.665
8.8921 22.691
8.9073 22.875
8.9224 22.715
8.9376 22.639
8.9528 22.348
8.9680 22.835
8.9831 22.711
8.9983 23.193
9.0135 22.914
9.0287 22.847
9.0438 23.219
9.0590 22.618
9.0742 23.097
9.0894 22.554
9.1045 22.840
9.1197 23.396
9.1349 22.804
9.1501 22.927
9.1652 22.941
9.1804 22.706
9.1956 22.953
9.2108 22.933
9.2259 22.867
9.2411 22.833
9.2563 23.031
9.2715 23.198
9.2866 23.364
9.3018 23.145
9.3170 22.890
9.3322 22.939
9.3473 23.093
9.3625 23.183
9.3777 23.461
9.3929 23.052
9.4080 22.831
9.4232 23.178
9.4384 23.396
9.4536 23.338
9.4687 23.393
9.4839 23.045
9.4991 22.881
9.5143 22.871
9.5294 23.357
9.5446 23.129
9.5598 23.043
9.5750 23.487
9.5901 23.688
9.6053 23.768
9.6205 23.417
9.6357 22.987
9.6508 23.185
9.6660 23.516
9.6812 23.630
9.6964 23.585
9.7115 23.666
9.7267 24.064
9.7419 24.208
9.7571 23.913
9.7722 24.135
9.7874 24.145
9.8026 23.949
9.8178 23.766
9.8329 23.511
9.8481 23.480
9.8633 23.576
9.8785 23.582
9.8936 23.707
9.9088 23.490
9.9240 23.276
9.9392 23.448
9.9543 23.324
9.9695 23.613
9.9847 23.696
9.9999 23.461
10.0150 23.646
10.0302 23.683
10.0454 23.764
10.0606 24.116
10.0757 24.152
10.0909 23.818
10.1061 23.710
10.1213 23.966
10.1364 24.148
10.1516 24.018
10.1668 24.101
10.1820 24.284
10.1971 24.114
10.2123 24.194
10.2275 24.335
10.2427 24.615
10.2578 24.232
10.2730 23.934
10.2882 23.730
10.3034 23.457
10.3185 23.294
10.3337 23.195
10.3489 23.309
10.3641 23.130
10.3792 23.139
10.3944 23.056
10.4096 23.049
10.4248 22.874
10.4399 22.861
10.4551 22.683
10.4703 22.731
10.4855 22.868
10.5006 23.131
10.5158 22.814
10.5310 22.505
10.5462 22.525
10.5613 22.767
10.5765 22.684
10.5917 22.959
10.6069 22.990
10.6220 22.737
10.6372 22.744
10.6524 22.719
10.6676 22.656
10.6827 23.023
10.6979 22.804
10.7131 22.807
10.7283 22.963
10.7434 22.772
10.7586 22.345
10.7738 22.307
10.7890 22.546
10.8041 22.168
10.8193 22.215
10.8345 21.935
10.8497 22.282
10.8648 22.332
10.8800 22.595
10.8952 22.291
10.9104 22.172
10.9255 22.032
10.9407 22.175
10.9559 22.180
10.9711 21.993
10.9862 22.037
11.0014 21.824
11.0166 22.054
11.0318 22.064
11.0469 22.023
11.0621 22.122
11.0773 22.014
11.0925 21.993
11.1076 21.762
11.1228 21.956
11.1380 22.605
11.1532 22.271
11.1683 21.995
11.1835 22.079
11.1987 22.189
11.2139 22.129
11.2290 22.057
11.2442 22.325
11.2594 21.816
11.2746 21.774
11.2897 21.951
11.3049 22.171
11.3201 21.944
11.3353 21.475
11.3504 21.614
11.3656 21.470
11.3808 21.398
11.3960 21.074
11.4111 21.051
11.4263 21.462
11.4415 21.403
11.4567 21.331
11.4718 21.046
11.4870 21.058
11.5022 21.121
11.5174 21.463
11.5325 21.376
11.5477 21.216
11.5629 20.871
11.5781 20.836
11.5932 20.854
11.6084 21.138
11.6236 20.882
11.6388 20.972
11.6539 20.902
11.6691 20.820
11.6843 20.767
11.6995 20.388
11.7146 20.334
11.7298 20.035
11.7450 20.316
11.7602 20.094
11.7753 19.951
11.7905 19.997
11.8057 20.106
11.8209 20.188
11.8360 20.573
11.8512 20.241
11.8664 19.931
11.8816 19.453
11.8967 19.315
11.9119 19.639
11.9271 19.490
11.9423 19.509
11.9574 19.467
11.9726 19.473
11.9878 19.453
12.0030 19.575
12.0181 19.386
12.0333 18.908
12.0485 18.885
12.0637 18.721
12.0788 19.251
12.0940 18.830
12.1092 18.547
12.1244 18.657
12.1395 18.458
12.1547 18.260
12.1699 18.615
12.1851 18.295
12.2002 18.082
12.2154 18.007
12.2306 18.147
12.2458 18.064
12.2609 18.069
12.2761 17.742
12.2913 17.611
12.3065 17.464
12.3216 17.360
12.3368 17.364
12.3520 17.248
12.3672 17.371
12.3823 17.399
12.3975 17.413
12.4127 17.310
12.4279 17.314
12.4430 17.309
12.4582 17.294
12.4734 17.412
12.4886 17.402
12.5037 16.923
12.5189 16.930
12.5341 16.791
12.5493 16.844
12.5644 16.725
12.5796 16.359
12.5948 16.004
12.6100 16.173
12.6251 16.351
12.6403 16.167
12.6555 15.973
12.6707 16.039
12.6858 16.043
12.7010 15.978
12.7162 15.797
12.7314 15.588
12.7465 15.601
12.7617 15.425
12.7769 15.429
12.7921 15.366
12.8072 15.184
12.8224 15.134
12.8376 15.021
12.8528 14.967
12.8679 15.036
12.8831 15.000
12.8983 15.087
12.9135 14.910
12.9286 14.683
12.9438 14.462
12.9590 14.174
12.9742 14.471
12.9893 14.597
13.0045 14.437
13.0197 14.261
13.0349 14.377
13.0500 14.505
13.0652 14.196
13.0804 13.952
13.0956 13.908
13.1107 13.872
13.1259 13.961
13.1411 13.894
13.1563 13.774
13.1714 13.647
13.1866 13.666
13.2018 13.637
13.2170 13.222
13.2321 13.069
13.2473 13.394
13.2625 13.566
13.2777 13.273
13.2928 13.266
13.3080 13.269
13.3232 13.065
13.3384 13.024
13.3535 13.189
13.3687 13.061
13.3839 12.884
13.3991 12.971
13.4142 13.070
13.4294 13.084
13.4446 12.867
13.4598 12.680
13.4749 12.750
13.4901 12.731
13.5053 12.605
13.5205 12.648
13.5356 12.553
13.5508 12.395
13.5660 12.330
13.5812 12.104
13.5963 11.932
13.6115 12.150
13.6267 12.297
13.6419 12.432
13.6570 11.969
13.6722 11.979
13.6874 12.164
13.7026 12.092
13.7177 11.990
13.7329 11.828
13.7481 11.995
13.7633 12.267
13.7784 12.120
13.7936 12.047
13.8088 12.118
13.8239 12.137
13.8391 12.409
13.8543 12.300
13.8695 12.193
13.8846 12.304
13.8998 12.204
13.9150 12.052
13.9302 11.988
13.9453 12.292
13.9605 11.765
13.9757 11.401
13.9909 11.516
14.0060 11.395
14.0212 11.238
14.0364 11.448
14.0516 11.648
14.0667 11.570
14.0819 11.496
14.0971 11.748
14.1123 11.324
14.1274 11.418
14.1426 11.613
14.1578 11.459
14.1730 11.592
14.1881 11.880
14.2033 11.932
14.2185 12.185
14.2337 12.241
14.2488 12.248
14.2640 11.957
14.2792 12.087
14.2944 12.284
14.3095 12.286
14.3247 12.541
14.3399 12.875
14.3551 12.993
14.3702 13.129
14.3854 13.327
14.4006 13.173
14.4158 13.100
14.4309 13.076
14.4461 13.094
14.4613 13.234
14.4765 12.907
14.4916 12.972
14.5068 12.505
14.5220 12.479
14.5372 12.610
14.5523 12.315
14.5675 12.308
14.5827 12.042
14.5979 12.060
14.6130 11.878
14.6282 11.844
14.6434 11.385
14.6586 11.489
14.6737 11.303
14.6889 10.870
14.7041 11.060
14.7193 11.163
14.7344 10.888
14.7496 10.997
14.7648 11.077
14.7800 10.947
14.7951 10.975
14.8103 10.825
14.8255 10.837
14.8407 10.260
14.8558 10.748
14.8710 10.684
14.8862 10.701
14.9014 10.629
14.9165 11.165
14.9317 11.111
14.9469 10.571
14.9621 10.666
14.9772 10.483
14.9924 10.239
15.0076 10.650
15.0228 10.547
15.0379 10.836
15.0531 10.157
15.0683 10.503
15.0835 10.483
15.0986 10.725
15.1138 10.458
15.1290 10.842
15.1442 10.589
15.1593 10.371
15.1745 10.314
15.1897 10.786
15.2049 10.413
15.2200 10.398
15.2352 10.442
15.2504 10.467
15.2656 10.278
15.2807 10.375
15.2959 10.349
15.3111 10.172
15.3263 10.520
15.3414 10.446
15.3566 10.673
15.3718 10.397
15.3870 10.529
15.4021 10.570
15.4173 10.258
15.4325 10.438
15.4477 10.369
15.4628 10.538
15.4780 10.501
15.4932 10.569
15.5084 10.829
15.5235 10.342
15.5387 10.222
15.5539 10.352
15.5691 10.043
15.5842 10.091
15.5994 10.356
15.6146 10.038
15.6298 10.426
15.6449 9.716
15.6601 9.817
15.6753 9.815
15.6905 10.137
15.7056 9.861
15.7208 9.651
15.7360 10.091
15.7512 9.994
15.7663 9.678
15.7815 9.822
15.7967 9.938
15.8119 9.818
15.8270 9.923
15.8422 9.673
15.8574 9.857
15.8726 9.969
15.8877 9.536
15.9029 9.587
15.9181 9.888
15.9333 10.000
15.9484 10.067
15.9636 9.957
15.9788 9.920
15.9940 9.640
16.0091 9.613
16.0243 9.824
16.0395 9.511
16.0547 9.533
16.0698 9.821
16.0850 9.763
16.1002 9.744
16.1154 9.677
16.1305 9.659
16.1457 9.959
16.1609 9.955
16.1761 9.714
16.1912 9.430
16.2064 9.804
16.2216 9.758
16.2368 9.722
16.2519 9.760
16.2671 9.672
16.2823 9.976
16.2975 10.031
16.3126 10.107
16.3278 9.935
16.3430 10.005
16.3582 9.880
16.3733 10.108
16.3885 10.224
16.4037 10.182
16.4189 9.987
16.4340 10.090
16.4492 10.110
16.4644 10.053
16.4796 9.905
16.4947 10.066
16.5099 9.881
16.5251 9.816
16.5403 9.896
16.5554 9.949
16.5706 9.764
16.5858 9.737
16.6010 9.565
16.6161 9.700
16.6313 9.603
16.6465 9.763
16.6617 9.629
16.6768 9.896
16.6920 10.252
16.7072 10.329
16.7224 10.064
16.7375 9.850
16.7527 10.053
16.7679 10.017
16.7831 9.932
16.7982 9.946
16.8134 9.829
16.8286 9.838
16.8438 9.886
16.8589 9.623
16.8741 9.664
16.8893 9.872
16.9045 9.933
16.9196 9.829
16.9348 9.870
16.9500 9.689
16.9652 9.709
16.9803 10.009
16.9955 10.209
17.0107 10.006
17.0259 9.858
17.0410 10.041
17.0562 10.326
17.0714 10.205
17.0866 10.205
17.1017 10.520
17.1169 10.714
17.1321 11.113
17.1473 11.589
17.1624 11.817
17.1776 12.395
17.1928 13.172
17.2080 13.950
17.2231 15.079
17.2383 16.348
17.2535 17.647
17.2687 18.530
17.2838 18.729
17.2990 17.978
17.3142 16.830
17.3294 16.277
17.3445 16.008
17.3597 15.671
17.3749 15.503
17.3901 15.215
17.4052 14.414
17.4204 13.355
17.4356 12.449
17.4508 12.002
17.4659 11.734
17.4811 11.587
17.4963 11.533
17.5115 11.362
17.5266 11.193
17.5418 11.066
17.5570 11.244
17.5722 11.724
17.5873 11.825
17.6025 11.593
17.6177 11.461
17.6329 11.278
17.6480 11.127
17.6632 11.029
17.6784 10.959
17.6936 11.046
17.7087 11.107
17.7239 11.045
17.7391 11.003
17.7543 10.898
17.7694 10.946
17.7846 11.045
17.7998 10.819
17.8150 10.920
17.8301 11.087
17.8453 10.987
17.8605 11.138
17.8757 11.270
17.8908 11.141
17.9060 11.005
17.9212 10.930
17.9364 11.080
17.9515 10.930
17.9667 10.809
17.9819 11.010
17.9971 10.601
18.0122 10.309
18.0274 10.440
18.0426 10.458
18.0578 10.309
18.0729 10.029
18.0881 10.040
18.1033 10.006
18.1185 9.848
18.1336 9.854
18.1488 9.977
18.1640 10.214
18.1792 10.056
18.1943 9.854
18.2095 9.929
18.2247 9.806
18.2399 9.774
18.2550 9.938
18.2702 9.923
18.2854 9.720
18.3006 9.641
18.3157 9.842
18.3309 9.862
18.3461 9.678
18.3613 9.689
18.3764 9.705
18.3916 9.629
18.4068 9.818
18.4220 9.879
18.4371 9.777
18.4523 9.839
18.4675 9.914
18.4827 10.021
18.4978 9.809
18.5130 9.576
18.5282 9.502
18.5434 9.605
18.5585 9.670
18.5737 9.724
18.5889 9.758
18.6041 9.614
18.6192 9.568
18.6344 9.676
18.6496 9.734
18.6648 9.928
18.6799 9.770
18.6951 9.641
18.7103 9.576
18.7255 9.572
18.7406 9.675
18.7558 9.943
18.7710 9.949
18.7862 9.906
18.8013 9.916
18.8165 9.832
18.8317 10.023
18.8469 10.007
18.8620 9.765
18.8772 9.881
18.8924 10.027
18.9076 9.872
18.9227 9.793
18.9379 9.757
18.9531 9.847
18.9683 9.950
18.9834 10.101
18.9986 10.160
19.0138 10.340
19.0290 10.393
19.0441 10.289
19.0593 10.117
19.0745 10.159
19.0897 10.251
19.1048 10.334
19.1200 10.416
19.1352 10.301
19.1504 10.446
19.1655 10.385
19.1807 10.610
19.1959 11.037
19.2111 10.966
19.2262 10.778
19.2414 10.650
19.2566 10.458
19.2718 10.656
19.2869 10.793
19.3021 10.994
19.3173 11.008
19.3325 11.013
19.3476 10.960
19.3628 11.097
19.3780 11.167
19.3932 11.213
19.4083 11.168
19.4235 11.155
19.4387 11.094
19.4539 11.045
19.4690 11.212
19.4842 11.304
19.4994 11.330
19.5146 11.262
19.5297 11.490
19.5449 11.699
19.5601 11.607
19.5753 11.622
19.5904 11.740
19.6056 11.622
19.6208 11.675
19.6360 11.552
19.6511 11.232
19.6663 11.469
19.6815 11.633
19.6967 11.567
19.7118 11.651
19.7270 11.843
19.7422 11.928
19.7574 11.909
19.7725 11.896
19.7877 11.829
19.8029 12.008
19.8180 12.005
19.8332 11.917
19.8484 12.107
19.8636 12.276
19.8787 12.457
19.8939 12.593
19.9091 13.101
19.9243 13.468
19.9394 13.678
19.9546 13.970
19.9698 14.206
19.9850 14.146
20.0001 13.976
20.0153 14.057
20.0305 14.142
20.0457 13.823
20.0608 13.713
20.0760 13.662
20.0912 13.651
20.1064 13.604
20.1215 13.313
20.1367 13.007
20.1519 12.852
20.1671 12.946
20.1822 12.957
20.1974 12.881
20.2126 12.917
20.2278 12.807
20.2429 12.842
20.2581 12.475
20.2733 12.251
20.2885 12.167
20.3036 12.128
20.3188 11.917
20.3340 11.808
20.3492 11.772
20.3643 11.782
20.3795 12.061
20.3947 11.679
20.4099 11.153
20.4250 11.107
20.4402 11.014
20.4554 10.781
20.4706 11.003
20.4857 10.899
20.5009 10.757
20.5161 10.891
20.5313 10.931
20.5464 10.877
20.5616 11.070
20.5768 11.156
20.5920 10.967
20.6071 11.174
20.6223 11.197
20.6375 11.323
20.6527 11.008
20.6678 10.726
20.6830 10.832
20.6982 10.661
20.7134 10.692
20.7285 10.993
20.7437 10.939
20.7589 10.650
20.7741 10.626
20.7892 10.363
20.8044 10.406
20.8196 10.377
20.8348 10.517
20.8499 10.186
20.8651 10.323
20.8803 10.560
20.8955 10.294
20.9106 10.364
20.9258 10.088
20.9410 10.238
20.9562 10.380
20.9713 10.104
20.9865 10.361
21.0017 10.280
21.0169 10.337
21.0320 10.148
21.0472 10.065
21.0624 9.869
21.0776 10.087
21.0927 9.919
21.1079 9.682
21.1231 9.644
21.1383 9.704
21.1534 10.021
21.1686 9.680
21.1838 9.613
21.1990 9.797
21.2141 9.738
21.2293 9.749
21.2445 9.443
21.2597 9.568
21.2748 9.459
21.2900 9.266
21.3052 9.426
21.3204 9.383
21.3355 9.161
21.3507 9.601
21.3659 9.645
21.3811 9.733
21.3962 9.458
21.4114 9.457
21.4266 9.605
21.4418 9.377
21.4569 9.468
21.4721 9.698
21.4873 9.718
21.5025 9.211
21.5176 9.507
21.5328 9.205
21.5480 9.205
21.5632 9.440
21.5783 9.298
21.5935 9.267
21.6087 9.404
21.6239 9.340
21.6390 9.255
21.6542 9.333
21.6694 9.285
21.6846 9.205
21.6997 9.175
21.7149 9.227
21.7301 9.222
21.7453 9.188
21.7604 9.040
21.7756 8.987
21.7908 9.097
21.8060 9.032
21.8211 9.110
21.8363 8.944
21.8515 9.184
21.8667 9.148
21.8818 8.987
21.8970 8.869
21.9122 8.980
21.9274 8.922
21.9425 9.005
21.9577 9.063
21.9729 9.153
21.9881 9.130
22.0032 8.940
22.0184 8.949
22.0336 8.861
22.0488 8.757
22.0639 8.804
22.0791 8.909
22.0943 8.985
22.1095 8.884
22.1246 8.730
22.1398 8.736
22.1550 8.641
22.1702 8.857
22.1853 8.857
22.2005 8.786
22.2157 8.708
22.2309 8.596
22.2460 8.682
22.2612 8.831
22.2764 8.644
22.2916 8.803
22.3067 8.671
22.3219 8.756
22.3371 8.703
22.3523 8.524
22.3674 8.306
22.3826 8.415
22.3978 8.562
22.4130 8.450
22.4281 8.528
22.4433 8.516
22.4585 8.528
22.4737 8.325
22.4888 8.325
22.5040 8.096
22.5192 8.414
22.5344 8.608
22.5495 8.451
22.5647 8.448
22.5799 8.459
22.5951 8.645
22.6102 8.463
22.6254 8.468
22.6406 8.511
22.6558 8.645
22.6709 8.328
22.6861 8.319
22.7013 8.169
22.7165 8.086
22.7316 6.543
