'Id: "" Comment: "" Operator: "Lab Manager" Anode: "Mo" Scantype: "Still (Eiger2R_500K (1D mode))" TimePerStep: "300" X: "11.8" Y: "9.4" Z: "11.284" 
7.2532 18.632
7.2684 18.496
7.2836 18.641
7.2987 18.999
7.3139 19.062
7.3291 18.547
7.3443 18.196
7.3594 19.005
7.3746 18.956
7.3898 19.004
7.4050 19.063
7.4201 19.248
7.4353 19.703
7.4505 19.713
7.4657 19.631
7.4808 19.727
7.4960 19.740
7.5112 19.647
7.5264 19.473
7.5415 19.413
7.5567 19.182
7.5719 19.852
7.5871 19.863
7.6022 19.561
7.6174 19.782
7.6326 20.203
7.6478 20.004
7.6629 19.932
7.6781 19.681
7.6933 20.239
7.7085 20.172
7.7236 20.271
7.7388 20.091
7.7540 20.000
7.7692 20.261
7.7843 20.341
7.7995 20.561
7.8147 20.342
7.8299 20.233
7.8450 20.510
7.8602 20.727
7.8754 20.515
7.8905 20.703
7.9057 21.053
7.9209 20.731
7.9361 20.255
7.9512 20.352
7.9664 20.913
7.9816 20.875
7.9968 20.698
8.0119 20.573
8.0271 20.784
8.0423 21.079
8.0575 21.178
8.0726 20.995
8.0878 21.070
8.1030 20.884
8.1182 20.859
8.1333 20.970
8.1485 20.789
8.1637 21.166
8.1789 21.399
8.1940 21.314
8.2092 21.546
8.2244 21.240
8.2396 21.144
8.2547 21.724
8.2699 21.317
8.2851 21.223
8.3003 21.461
8.3154 21.736
8.3306 21.492
8.3458 21.781
8.3610 21.915
8.3761 22.011
8.3913 21.752
8.4065 21.628
8.4217 21.856
8.4368 21.522
8.4520 21.729
8.4672 21.668
8.4824 21.802
8.4975 21.524
8.5127 21.978
8.5279 21.678
8.5431 22.183
8.5582 21.975
8.5734 21.635
8.5886 22.149
8.6038 21.920
8.6189 22.008
8.6341 21.904
8.6493 22.070
8.6645 22.079
8.6796 22.185
8.6948 22.573
8.7100 22.297
8.7252 22.173
8.7403 22.452
8.7555 22.251
8.7707 22.141
8.7859 22.211
8.8010 22.166
8.8162 22.365
8.8314 22.521
8.8466 22.429
8.8617 22.182
8.8769 21.984
8.8921 22.132
8.9073 22.157
8.9224 22.550
8.9376 22.571
8.9528 22.313
8.9680 22.337
8.9831 22.228
8.9983 22.614
9.0135 22.597
9.0287 22.209
9.0438 22.656
9.0590 22.157
9.0742 22.340
9.0894 22.515
9.1045 22.793
9.1197 22.847
9.1349 22.673
9.1501 22.650
9.1652 22.581
9.1804 22.590
9.1956 22.260
9.2108 22.175
9.2259 22.469
9.2411 22.500
9.2563 22.417
9.2715 22.958
9.2866 22.489
9.3018 22.907
9.3170 23.022
9.3322 22.992
9.3473 23.037
9.3625 23.198
9.3777 23.133
9.3929 23.091
9.4080 23.091
9.4232 22.937
9.4384 22.729
9.4536 22.610
9.4687 22.748
9.4839 22.954
9.4991 23.087
9.5143 23.172
9.5294 23.245
9.5446 23.466
9.5598 23.390
9.5750 22.975
9.5901 22.815
9.6053 22.938
9.6205 22.876
9.6357 23.045
9.6508 23.197
9.6660 23.398
9.6812 23.660
9.6964 23.671
9.7115 23.731
9.7267 23.637
9.7419 23.463
9.7571 23.722
9.7722 24.055
9.7874 23.699
9.8026 23.346
9.8178 23.371
9.8329 23.337
9.8481 23.150
9.8633 23.134
9.8785 23.227
9.8936 23.233
9.9088 23.168
9.9240 23.136
9.9392 23.189
9.9543 23.290
9.9695 23.251
9.9847 23.138
9.9999 23.196
10.0150 23.122
10.0302 23.004
10.0454 23.179
10.0606 23.140
10.0757 22.995
10.0909 23.179
10.1061 23.237
10.1213 23.121
10.1364 23.450
10.1516 23.760
10.1668 23.499
10.1820 23.190
10.1971 23.175
10.2123 22.936
10.2275 22.692
10.2427 22.656
10.2578 22.906
10.2730 22.803
10.2882 22.540
10.3034 22.533
10.3185 22.562
10.3337 22.305
10.3489 22.434
10.3641 22.335
10.3792 22.285
10.3944 22.241
10.4096 22.522
10.4248 22.438
10.4399 22.436
10.4551 22.462
10.4703 22.365
10.4855 22.314
10.5006 22.491
10.5158 22.550
10.5310 22.365
10.5462 22.233
10.5613 22.431
10.5765 22.317
10.5917 22.595
10.6069 22.949
10.6220 22.659
10.6372 22.591
10.6524 22.547
10.6676 22.281
10.6827 22.472
10.6979 22.493
10.7131 22.278
10.7283 21.995
10.7434 22.164
10.7586 22.409
10.7738 22.349
10.7890 22.144
10.8041 22.090
10.8193 22.322
10.8345 22.495
10.8497 22.460
10.8648 22.445
10.8800 22.318
10.8952 22.128
10.9104 21.939
10.9255 21.848
10.9407 21.781
10.9559 21.774
10.9711 21.703
10.9862 21.786
11.0014 21.963
11.0166 22.274
11.0318 22.238
11.0469 21.561
11.0621 21.720
11.0773 21.966
11.0925 21.687
11.1076 21.824
11.1228 21.828
11.1380 21.949
11.1532 21.983
11.1683 21.688
11.1835 21.791
11.1987 21.746
11.2139 21.623
11.2290 21.410
11.2442 21.661
11.2594 21.787
11.2746 21.770
11.2897 21.858
11.3049 21.553
11.3201 21.435
11.3353 21.375
11.3504 21.240
11.3656 21.088
11.3808 21.157
11.3960 21.218
11.4111 20.904
11.4263 21.532
11.4415 21.689
11.4567 21.419
11.4718 21.001
11.4870 20.970
11.5022 20.979
11.5174 21.156
11.5325 21.433
11.5477 20.687
11.5629 20.772
11.5781 20.935
11.5932 20.859
11.6084 20.982
11.6236 20.816
11.6388 20.733
11.6539 20.513
11.6691 20.537
11.6843 20.574
11.6995 20.431
11.7146 20.673
11.7298 20.377
11.7450 20.348
11.7602 20.138
11.7753 20.080
11.7905 20.085
11.8057 19.924
11.8209 19.679
11.8360 19.861
11.8512 19.588
11.8664 19.703
11.8816 19.786
11.8967 19.944
11.9119 19.758
11.9271 19.503
11.9423 19.413
11.9574 19.129
11.9726 18.771
11.9878 18.882
12.0030 19.037
12.0181 18.711
12.0333 18.786
12.0485 18.948
12.0637 19.021
12.0788 18.724
12.0940 18.462
12.1092 18.794
12.1244 18.757
12.1395 18.685
12.1547 18.547
12.1699 18.376
12.1851 18.377
12.2002 18.250
12.2154 17.988
12.2306 17.962
12.2458 18.090
12.2609 18.260
12.2761 18.088
12.2913 17.689
12.3065 17.501
12.3216 17.466
12.3368 17.358
12.3520 17.471
12.3672 17.205
12.3823 17.084
12.3975 17.036
12.4127 16.709
12.4279 16.838
12.4430 17.130
12.4582 16.905
12.4734 16.767
12.4886 16.651
12.5037 16.703
12.5189 16.542
12.5341 16.298
12.5493 16.389
12.5644 16.179
12.5796 16.154
12.5948 16.068
12.6100 16.196
12.6251 16.344
12.6403 16.033
12.6555 15.840
12.6707 15.908
12.6858 15.738
12.7010 15.517
12.7162 15.640
12.7314 15.625
12.7465 15.363
12.7617 15.460
12.7769 15.478
12.7921 15.143
12.8072 15.100
12.8224 15.097
12.8376 14.836
12.8528 14.660
12.8679 14.774
12.8831 15.107
12.8983 15.251
12.9135 14.787
12.9286 14.479
12.9438 14.518
12.9590 14.305
12.9742 14.041
12.9893 13.939
13.0045 14.084
13.0197 14.121
13.0349 14.084
13.0500 14.261
13.0652 14.236
13.0804 14.006
13.0956 13.943
13.1107 13.903
13.1259 13.868
13.1411 14.019
13.1563 13.819
13.1714 13.579
13.1866 13.501
13.2018 13.405
13.2170 13.576
13.2321 13.488
13.2473 13.180
13.2625 12.949
13.2777 12.861
13.2928 13.049
13.3080 13.184
13.3232 13.270
13.3384 13.206
13.3535 12.999
13.3687 13.126
13.3839 13.238
13.3991 13.079
13.4142 12.763
13.4294 12.711
13.4446 12.883
13.4598 12.801
13.4749 12.638
13.4901 12.367
13.5053 12.173
13.5205 12.288
13.5356 12.485
13.5508 12.306
13.5660 12.505
13.5812 12.627
13.5963 12.109
13.6115 12.071
13.6267 12.239
13.6419 12.085
13.6570 12.010
13.6722 12.041
13.6874 11.786
13.7026 11.895
13.7177 12.147
13.7329 12.047
13.7481 12.102
13.7633 12.099
13.7784 12.016
13.7936 12.024
13.8088 12.217
13.8239 12.096
13.8391 12.097
13.8543 12.360
13.8695 12.326
13.8846 12.308
13.8998 12.111
13.9150 11.871
13.9302 11.970
13.9453 12.003
13.9605 11.993
13.9757 11.861
13.9909 11.510
14.0060 11.584
14.0212 11.715
14.0364 11.824
14.0516 11.697
14.0667 11.617
14.0819 11.707
14.0971 11.714
14.1123 11.477
14.1274 11.397
14.1426 11.598
14.1578 11.797
14.1730 11.752
14.1881 11.869
14.2033 12.026
14.2185 11.835
14.2337 11.747
14.2488 11.839
14.2640 11.733
14.2792 11.921
14.2944 11.953
14.3095 11.894
14.3247 11.899
14.3399 12.352
14.3551 12.481
14.3702 12.736
14.3854 12.870
14.4006 13.239
14.4158 13.159
14.4309 12.807
14.4461 12.947
14.4613 12.625
14.4765 12.186
14.4916 12.102
14.5068 12.032
14.5220 12.046
14.5372 11.418
14.5523 11.405
14.5675 10.964
14.5827 10.739
14.5979 10.643
14.6130 10.571
14.6282 10.672
14.6434 10.862
14.6586 10.705
14.6737 10.609
14.6889 10.898
14.7041 10.223
14.7193 10.466
14.7344 10.789
14.7496 10.865
14.7648 10.883
14.7800 10.379
14.7951 10.430
14.8103 10.300
14.8255 10.320
14.8407 10.373
14.8558 10.633
14.8710 10.505
14.8862 10.380
14.9014 10.191
14.9165 10.696
14.9317 10.833
14.9469 10.624
14.9621 10.668
14.9772 10.212
14.9924 10.228
15.0076 10.141
15.0228 10.293
15.0379 10.364
15.0531 10.411
15.0683 10.174
15.0835 10.411
15.0986 10.515
15.1138 10.352
15.1290 10.020
15.1442 10.230
15.1593 10.387
15.1745 9.914
15.1897 9.719
15.2049 10.192
15.2200 9.753
15.2352 10.300
15.2504 10.103
15.2656 9.954
15.2807 9.874
15.2959 10.170
15.3111 10.078
15.3263 10.376
15.3414 10.121
15.3566 10.074
15.3718 9.872
15.3870 9.816
15.4021 10.246
15.4173 10.131
15.4325 9.889
15.4477 10.078
15.4628 9.913
15.4780 10.239
15.4932 10.248
15.5084 9.793
15.5235 9.755
15.5387 9.788
15.5539 9.999
15.5691 10.016
15.5842 9.961
15.5994 9.818
15.6146 9.706
15.6298 9.943
15.6449 10.004
15.6601 9.894
15.6753 9.827
15.6905 9.747
15.7056 9.725
15.7208 9.702
15.7360 9.669
15.7512 9.589
15.7663 9.395
15.7815 9.462
15.7967 9.620
15.8119 9.865
15.8270 9.876
15.8422 10.040
15.8574 9.699
15.8726 9.528
15.8877 9.255
15.9029 9.559
15.9181 9.505
15.9333 9.406
15.9484 9.234
15.9636 9.704
15.9788 9.731
15.9940 9.574
16.0091 9.719
16.0243 9.766
16.0395 9.703
16.0547 9.740
16.0698 9.666
16.0850 9.373
16.1002 9.455
16.1154 9.506
16.1305 9.481
16.1457 9.756
16.1609 9.538
16.1761 9.331
16.1912 9.463
16.2064 9.484
16.2216 9.714
16.2368 9.626
16.2519 9.732
16.2671 9.720
16.2823 9.604
16.2975 9.544
16.3126 9.559
16.3278 9.736
16.3430 9.925
16.3582 9.823
16.3733 9.715
16.3885 10.040
16.4037 10.016
16.4189 9.607
16.4340 9.621
16.4492 9.680
16.4644 9.532
16.4796 9.564
16.4947 9.866
16.5099 9.644
16.5251 9.589
16.5403 9.425
16.5554 9.574
16.5706 9.563
16.5858 9.492
16.6010 9.510
16.6161 9.515
16.6313 9.510
16.6465 9.761
16.6617 9.940
16.6768 9.778
16.6920 9.914
16.7072 9.949
16.7224 9.794
16.7375 9.754
16.7527 9.661
16.7679 9.777
16.7831 9.863
16.7982 9.951
16.8134 10.032
16.8286 9.763
16.8438 9.774
16.8589 9.780
16.8741 9.700
16.8893 9.777
16.9045 9.663
16.9196 9.625
16.9348 9.588
16.9500 9.570
16.9652 9.695
16.9803 9.566
16.9955 9.848
17.0107 9.973
17.0259 9.926
17.0410 10.096
17.0562 10.113
17.0714 10.243
17.0866 10.400
17.1017 10.497
17.1169 10.531
17.1321 10.682
17.1473 11.083
17.1624 11.522
17.1776 12.340
17.1928 13.047
17.2080 13.802
17.2231 14.946
17.2383 16.282
17.2535 17.554
17.2687 18.391
17.2838 18.507
17.2990 17.974
17.3142 17.085
17.3294 16.416
17.3445 16.326
17.3597 16.152
17.3749 15.742
17.3901 15.259
17.4052 14.365
17.4204 13.271
17.4356 12.705
17.4508 12.285
17.4659 11.978
17.4811 11.849
17.4963 11.638
17.5115 11.567
17.5266 11.210
17.5418 10.688
17.5570 10.734
17.5722 10.919
17.5873 10.918
17.6025 11.087
17.6177 11.034
17.6329 10.892
17.6480 11.037
17.6632 11.189
17.6784 11.260
17.6936 11.422
17.7087 11.377
17.7239 11.152
17.7391 10.954
17.7543 10.859
17.7694 10.851
17.7846 10.858
17.7998 10.748
17.8150 10.756
17.8301 10.602
17.8453 10.264
17.8605 10.165
17.8757 10.194
17.8908 10.262
17.9060 10.076
17.9212 10.042
17.9364 10.096
17.9515 9.967
17.9667 10.161
17.9819 10.340
17.9971 10.104
18.0122 10.012
18.0274 10.195
18.0426 10.174
18.0578 10.166
18.0729 10.185
18.0881 10.062
18.1033 10.073
18.1185 10.059
18.1336 9.924
18.1488 10.007
18.1640 10.036
18.1792 9.894
18.1943 9.850
18.2095 10.010
18.2247 9.966
18.2399 9.948
18.2550 9.814
18.2702 9.777
18.2854 9.901
18.3006 9.693
18.3157 9.700
18.3309 9.909
18.3461 10.035
18.3613 9.793
18.3764 9.520
18.3916 9.833
18.4068 9.956
18.4220 9.855
18.4371 9.806
18.4523 9.846
18.4675 9.622
18.4827 9.724
18.4978 9.930
18.5130 9.687
18.5282 9.729
18.5434 9.697
18.5585 9.583
18.5737 9.689
18.5889 9.720
18.6041 9.724
18.6192 9.777
18.6344 9.647
18.6496 9.613
18.6648 9.776
18.6799 10.007
18.6951 9.918
18.7103 9.785
18.7255 9.865
18.7406 9.654
18.7558 9.714
18.7710 9.626
18.7862 9.688
18.8013 9.524
18.8165 9.568
18.8317 9.885
18.8469 9.949
18.8620 9.906
18.8772 9.790
18.8924 9.837
18.9076 9.801
18.9227 9.658
18.9379 9.824
18.9531 10.026
18.9683 9.983
18.9834 9.986
18.9986 10.058
19.0138 9.927
19.0290 10.004
19.0441 10.164
19.0593 10.230
19.0745 10.288
19.0897 10.547
19.1048 10.447
19.1200 10.377
19.1352 10.659
19.1504 10.698
19.1655 10.430
19.1807 10.435
19.1959 10.510
19.2111 10.690
19.2262 10.924
19.2414 10.931
19.2566 10.890
19.2718 10.820
19.2869 10.931
19.3021 10.903
19.3173 10.795
19.3325 10.787
19.3476 10.900
19.3628 10.864
19.3780 10.946
19.3932 11.192
19.4083 11.054
19.4235 11.148
19.4387 11.385
19.4539 11.260
19.4690 11.221
19.4842 11.326
19.4994 11.407
19.5146 11.456
19.5297 11.477
19.5449 11.561
19.5601 11.531
19.5753 11.395
19.5904 11.383
19.6056 11.555
19.6208 11.509
19.6360 11.420
19.6511 11.732
19.6663 11.610
19.6815 11.776
19.6967 12.094
19.7118 11.769
19.7270 11.601
19.7422 11.771
19.7574 11.760
19.7725 11.821
19.7877 11.871
19.8029 11.782
19.8180 11.978
19.8332 12.290
19.8484 12.316
19.8636 12.370
19.8787 12.353
19.8939 12.873
19.9091 13.242
19.9243 13.248
19.9394 13.771
19.9546 14.048
19.9698 14.133
19.9850 14.184
20.0001 14.270
20.0153 14.221
20.0305 13.898
20.0457 13.916
20.0608 13.988
20.0760 14.016
20.0912 13.751
20.1064 13.724
20.1215 13.451
20.1367 13.170
20.1519 13.043
20.1671 12.898
20.1822 12.757
20.1974 12.628
20.2126 12.875
20.2278 12.946
20.2429 12.703
20.2581 12.306
20.2733 12.252
20.2885 12.093
20.3036 12.008
20.3188 12.030
20.3340 11.968
20.3492 11.978
20.3643 11.946
20.3795 11.843
20.3947 11.707
20.4099 11.556
20.4250 11.568
20.4402 11.621
20.4554 11.664
20.4706 11.733
20.4857 12.194
20.5009 11.980
20.5161 11.829
20.5313 11.506
20.5464 11.347
20.5616 11.381
20.5768 11.226
20.5920 11.239
20.6071 11.238
20.6223 10.827
20.6375 10.728
20.6527 10.581
20.6678 10.686
20.6830 10.928
20.6982 10.697
20.7134 10.357
20.7285 10.310
20.7437 10.366
20.7589 10.656
20.7741 10.508
20.7892 10.329
20.8044 10.112
20.8196 10.212
20.8348 10.448
20.8499 10.532
20.8651 10.467
20.8803 10.323
20.8955 10.475
20.9106 10.595
20.9258 10.406
20.9410 10.398
20.9562 10.352
20.9713 10.094
20.9865 10.089
21.0017 10.312
21.0169 10.284
21.0320 10.186
21.0472 10.032
21.0624 9.869
21.0776 9.952
21.0927 10.005
21.1079 10.077
21.1231 10.104
21.1383 9.818
21.1534 9.840
21.1686 10.084
21.1838 9.796
21.1990 9.878
21.2141 9.774
21.2293 9.968
21.2445 9.711
21.2597 9.680
21.2748 9.455
21.2900 9.516
21.3052 9.755
21.3204 9.438
21.3355 9.299
21.3507 9.442
21.3659 9.277
21.3811 9.222
21.3962 9.403
21.4114 9.670
21.4266 9.619
21.4418 9.412
21.4569 9.392
21.4721 9.402
21.4873 9.385
21.5025 9.330
21.5176 9.308
21.5328 9.422
21.5480 9.210
21.5632 9.419
21.5783 9.336
21.5935 9.270
21.6087 9.189
21.6239 9.224
21.6390 9.352
21.6542 9.373
21.6694 9.119
21.6846 9.165
21.6997 9.336
21.7149 9.222
21.7301 9.182
21.7453 8.942
21.7604 9.076
21.7756 9.282
21.7908 9.097
21.8060 8.861
21.8211 9.027
21.8363 9.260
21.8515 9.218
21.8667 9.096
21.8818 9.201
21.8970 9.030
21.9122 9.045
21.9274 8.974
21.9425 8.799
21.9577 8.817
21.9729 8.902
21.9881 8.855
22.0032 8.705
22.0184 8.759
22.0336 9.067
22.0488 8.832
22.0639 8.659
22.0791 8.754
22.0943 8.654
22.1095 8.661
22.1246 8.736
22.1398 8.706
22.1550 8.740
22.1702 8.708
22.1853 8.499
22.2005 8.420
22.2157 8.461
22.2309 8.433
22.2460 8.614
22.2612 8.580
22.2764 8.451
22.2916 8.687
22.3067 8.525
22.3219 8.555
22.3371 8.760
22.3523 8.458
22.3674 8.539
22.3826 8.407
22.3978 8.419
22.4130 8.506
22.4281 8.527
22.4433 8.499
22.4585 8.443
22.4737 8.360
22.4888 8.599
22.5040 8.117
22.5192 8.450
22.5344 8.358
22.5495 8.387
22.5647 8.463
22.5799 8.417
22.5951 8.357
22.6102 8.411
22.6254 8.410
22.6406 8.432
22.6558 8.306
22.6709 8.442
22.6861 8.326
22.7013 8.262
22.7165 7.761
22.7316 6.260
