'Id: "" Comment: "" Operator: "Lab Manager" Anode: "Mo" Scantype: "Still (Eiger2R_500K (1D mode))" TimePerStep: "300" X: "11.8" Y: "9.4" Z: "11.284" 
7.2532 19.169
7.2684 18.685
7.2836 18.822
7.2987 18.739
7.3139 18.983
7.3291 18.842
7.3443 19.282
7.3594 19.326
7.3746 19.071
7.3898 19.045
7.4050 19.262
7.4201 19.321
7.4353 19.603
7.4505 19.539
7.4657 19.470
7.4808 19.472
7.4960 19.593
7.5112 19.924
7.5264 19.908
7.5415 19.473
7.5567 19.872
7.5719 19.864
7.5871 20.050
7.6022 19.989
7.6174 20.172
7.6326 20.363
7.6478 20.259
7.6629 20.057
7.6781 20.166
7.6933 20.333
7.7085 20.228
7.7236 20.391
7.7388 20.499
7.7540 20.422
7.7692 20.409
7.7843 20.241
7.7995 20.510
7.8147 20.617
7.8299 20.613
7.8450 20.515
7.8602 20.595
7.8754 20.623
7.8905 20.635
7.9057 20.676
7.9209 20.647
7.9361 20.725
7.9512 20.940
7.9664 20.927
7.9816 20.781
7.9968 20.905
8.0119 21.141
8.0271 20.872
8.0423 20.683
8.0575 21.050
8.0726 21.191
8.0878 21.251
8.1030 21.012
8.1182 21.138
8.1333 21.313
8.1485 21.981
8.1637 21.775
8.1789 20.976
8.1940 21.197
8.2092 21.414
8.2244 21.293
8.2396 21.410
8.2547 21.702
8.2699 21.828
8.2851 21.604
8.3003 21.464
8.3154 21.568
8.3306 21.573
8.3458 21.708
8.3610 21.734
8.3761 21.335
8.3913 21.504
8.4065 22.079
8.4217 21.689
8.4368 21.889
8.4520 22.113
8.4672 22.211
8.4824 21.903
8.4975 21.823
8.5127 22.388
8.5279 21.978
8.5431 21.766
8.5582 22.315
8.5734 21.697
8.5886 22.062
8.6038 21.855
8.6189 22.072
8.6341 22.752
8.6493 21.993
8.6645 22.242
8.6796 22.353
8.6948 22.523
8.7100 22.498
8.7252 22.350
8.7403 22.250
8.7555 22.287
8.7707 22.168
8.7859 22.542
8.8010 22.447
8.8162 22.758
8.8314 22.849
8.8466 22.735
8.8617 22.487
8.8769 22.318
8.8921 22.559
8.9073 22.659
8.9224 22.287
8.9376 22.144
8.9528 22.172
8.9680 22.283
8.9831 22.333
8.9983 22.483
9.0135 22.472
9.0287 22.685
9.0438 22.870
9.0590 22.859
9.0742 22.875
9.0894 22.407
9.1045 22.556
9.1197 22.957
9.1349 22.819
9.1501 23.049
9.1652 23.064
9.1804 23.065
9.1956 22.822
9.2108 22.644
9.2259 22.568
9.2411 22.846
9.2563 23.153
9.2715 22.793
9.2866 22.891
9.3018 22.894
9.3170 22.578
9.3322 22.836
9.3473 22.706
9.3625 22.636
9.3777 22.997
9.3929 23.117
9.4080 22.990
9.4232 23.075
9.4384 22.816
9.4536 22.775
9.4687 23.034
9.4839 23.409
9.4991 23.362
9.5143 23.158
9.5294 22.975
9.5446 22.926
9.5598 23.052
9.5750 23.087
9.5901 23.167
9.6053 23.099
9.6205 23.224
9.6357 23.349
9.6508 23.560
9.6660 23.571
9.6812 23.636
9.6964 23.996
9.7115 24.094
9.7267 23.915
9.7419 23.801
9.7571 23.851
9.7722 23.993
9.7874 24.008
9.8026 23.677
9.8178 23.705
9.8329 23.503
9.8481 23.065
9.8633 23.143
9.8785 23.128
9.8936 23.272
9.9088 23.333
9.9240 23.372
9.9392 23.321
9.9543 23.111
9.9695 22.828
9.9847 23.123
9.9999 23.355
10.0150 23.122
10.0302 22.971
10.0454 22.799
10.0606 23.021
10.0757 23.110
10.0909 23.195
10.1061 23.450
10.1213 23.517
10.1364 23.531
10.1516 23.320
10.1668 23.325
10.1820 23.357
10.1971 23.275
10.2123 23.428
10.2275 22.913
10.2427 22.950
10.2578 23.482
10.2730 23.233
10.2882 22.892
10.3034 22.730
10.3185 22.495
10.3337 22.534
10.3489 22.752
10.3641 22.787
10.3792 22.794
10.3944 22.955
10.4096 23.166
10.4248 23.141
10.4399 22.881
10.4551 22.541
10.4703 22.373
10.4855 22.436
10.5006 22.266
10.5158 22.463
10.5310 22.410
10.5462 22.519
10.5613 22.857
10.5765 22.866
10.5917 22.757
10.6069 22.613
10.6220 22.540
10.6372 22.660
10.6524 22.885
10.6676 22.679
10.6827 22.186
10.6979 22.521
10.7131 22.566
10.7283 22.290
10.7434 22.482
10.7586 22.650
10.7738 22.811
10.7890 22.326
10.8041 22.700
10.8193 22.404
10.8345 22.170
10.8497 22.243
10.8648 22.266
10.8800 22.317
10.8952 22.181
10.9104 22.796
10.9255 22.268
10.9407 21.815
10.9559 21.663
10.9711 21.714
10.9862 22.182
11.0014 22.533
11.0166 22.489
11.0318 22.156
11.0469 21.661
11.0621 21.660
11.0773 21.571
11.0925 21.800
11.1076 21.615
11.1228 21.768
11.1380 21.715
11.1532 21.448
11.1683 21.599
11.1835 21.735
11.1987 22.018
11.2139 21.919
11.2290 21.972
11.2442 21.543
11.2594 21.553
11.2746 21.598
11.2897 21.591
11.3049 21.716
11.3201 21.867
11.3353 21.607
11.3504 21.547
11.3656 21.297
11.3808 21.263
11.3960 21.266
11.4111 21.209
11.4263 21.560
11.4415 21.570
11.4567 21.331
11.4718 21.286
11.4870 21.050
11.5022 21.028
11.5174 21.264
11.5325 21.134
11.5477 20.864
11.5629 20.959
11.5781 20.994
11.5932 20.949
11.6084 20.731
11.6236 20.725
11.6388 20.456
11.6539 20.651
11.6691 20.643
11.6843 20.793
11.6995 20.980
11.7146 20.511
11.7298 20.198
11.7450 20.058
11.7602 20.218
11.7753 20.186
11.7905 19.959
11.8057 20.161
11.8209 20.262
11.8360 19.694
11.8512 19.685
11.8664 20.365
11.8816 19.851
11.8967 19.678
11.9119 19.822
11.9271 19.614
11.9423 19.239
11.9574 19.345
11.9726 19.351
11.9878 19.434
12.0030 19.228
12.0181 19.191
12.0333 19.142
12.0485 19.139
12.0637 19.039
12.0788 18.871
12.0940 18.487
12.1092 18.733
12.1244 18.774
12.1395 18.911
12.1547 19.116
12.1699 18.638
12.1851 18.553
12.2002 18.577
12.2154 18.472
12.2306 18.114
12.2458 17.902
12.2609 17.894
12.2761 17.770
12.2913 17.559
12.3065 17.571
12.3216 17.589
12.3368 17.404
12.3520 17.380
12.3672 17.399
12.3823 17.224
12.3975 17.065
12.4127 17.211
12.4279 17.031
12.4430 16.894
12.4582 16.825
12.4734 16.926
12.4886 16.923
12.5037 16.986
12.5189 16.985
12.5341 16.788
12.5493 16.560
12.5644 16.401
12.5796 16.280
12.5948 16.099
12.6100 16.110
12.6251 16.085
12.6403 16.103
12.6555 16.058
12.6707 15.742
12.6858 15.704
12.7010 15.619
12.7162 15.557
12.7314 15.484
12.7465 15.448
12.7617 15.631
12.7769 15.431
12.7921 15.073
12.8072 14.715
12.8224 14.912
12.8376 15.166
12.8528 14.847
12.8679 14.627
12.8831 14.739
12.8983 14.940
12.9135 14.667
12.9286 14.664
12.9438 14.989
12.9590 14.825
12.9742 14.512
12.9893 14.490
13.0045 14.560
13.0197 14.521
13.0349 14.318
13.0500 13.923
13.0652 13.794
13.0804 14.160
13.0956 14.106
13.1107 13.753
13.1259 13.651
13.1411 13.798
13.1563 13.716
13.1714 13.590
13.1866 13.674
13.2018 13.650
13.2170 13.545
13.2321 13.423
13.2473 13.557
13.2625 13.347
13.2777 13.144
13.2928 13.298
13.3080 13.135
13.3232 13.036
13.3384 13.221
13.3535 13.290
13.3687 12.998
13.3839 12.766
13.3991 12.904
13.4142 13.071
13.4294 13.046
13.4446 12.759
13.4598 12.851
13.4749 12.853
13.4901 12.671
13.5053 12.379
13.5205 12.476
13.5356 12.535
13.5508 12.333
13.5660 12.137
13.5812 12.040
13.5963 12.147
13.6115 12.262
13.6267 12.118
13.6419 12.183
13.6570 12.350
13.6722 12.475
13.6874 12.292
13.7026 11.961
13.7177 12.014
13.7329 12.060
13.7481 12.140
13.7633 12.135
13.7784 11.942
13.7936 11.982
13.8088 12.012
13.8239 12.090
13.8391 12.088
13.8543 12.161
13.8695 12.377
13.8846 12.270
13.8998 12.022
13.9150 11.900
13.9302 12.052
13.9453 12.247
13.9605 11.907
13.9757 11.809
13.9909 11.650
14.0060 11.655
14.0212 11.695
14.0364 11.843
14.0516 11.801
14.0667 11.663
14.0819 11.689
14.0971 11.736
14.1123 11.497
14.1274 11.417
14.1426 11.584
14.1578 11.840
14.1730 11.945
14.1881 11.656
14.2033 11.632
14.2185 11.560
14.2337 11.824
14.2488 11.945
14.2640 11.909
14.2792 11.930
14.2944 11.936
14.3095 12.337
14.3247 12.282
14.3399 12.470
14.3551 12.447
14.3702 13.027
14.3854 13.164
14.4006 13.319
14.4158 13.314
14.4309 13.107
14.4461 12.709
14.4613 12.654
14.4765 12.209
14.4916 11.872
14.5068 11.856
14.5220 11.963
14.5372 11.491
14.5523 11.395
14.5675 11.440
14.5827 11.087
14.5979 10.727
14.6130 10.734
14.6282 11.017
14.6434 11.056
14.6586 10.725
14.6737 10.549
14.6889 10.886
14.7041 10.798
14.7193 10.577
14.7344 10.687
14.7496 10.826
14.7648 10.389
14.7800 10.516
14.7951 10.631
14.8103 10.529
14.8255 10.747
14.8407 10.362
14.8558 10.637
14.8710 10.534
14.8862 10.716
14.9014 10.305
14.9165 10.641
14.9317 10.536
14.9469 10.427
14.9621 10.335
14.9772 10.288
14.9924 10.372
15.0076 10.329
15.0228 10.287
15.0379 10.591
15.0531 10.174
15.0683 10.213
15.0835 10.319
15.0986 10.304
15.1138 10.150
15.1290 10.216
15.1442 10.475
15.1593 10.101
15.1745 9.793
15.1897 10.113
15.2049 9.969
15.2200 10.148
15.2352 10.139
15.2504 10.002
15.2656 10.215
15.2807 10.263
15.2959 9.873
15.3111 10.072
15.3263 9.887
15.3414 9.905
15.3566 9.989
15.3718 10.031
15.3870 10.210
15.4021 10.088
15.4173 10.352
15.4325 10.088
15.4477 10.048
15.4628 10.488
15.4780 10.545
15.4932 10.095
15.5084 10.497
15.5235 10.049
15.5387 9.973
15.5539 10.120
15.5691 9.965
15.5842 10.061
15.5994 9.789
15.6146 9.827
15.6298 9.896
15.6449 9.905
15.6601 9.881
15.6753 10.153
15.6905 9.884
15.7056 9.902
15.7208 9.684
15.7360 9.558
15.7512 9.617
15.7663 9.883
15.7815 9.763
15.7967 9.718
15.8119 9.718
15.8270 9.980
15.8422 9.916
15.8574 9.846
15.8726 9.656
15.8877 9.643
15.9029 9.466
15.9181 9.554
15.9333 9.584
15.9484 9.662
15.9636 9.742
15.9788 9.697
15.9940 9.974
16.0091 9.501
16.0243 9.658
16.0395 9.531
16.0547 9.510
16.0698 9.885
16.0850 9.907
16.1002 9.453
16.1154 9.440
16.1305 9.627
16.1457 9.809
16.1609 9.834
16.1761 9.839
16.1912 9.822
16.2064 9.692
16.2216 9.796
16.2368 9.805
16.2519 9.756
16.2671 9.976
16.2823 9.891
16.2975 10.063
16.3126 10.059
16.3278 9.723
16.3430 9.866
16.3582 10.073
16.3733 9.920
16.3885 9.982
16.4037 10.169
16.4189 9.990
16.4340 9.814
16.4492 10.006
16.4644 10.052
16.4796 9.876
16.4947 9.889
16.5099 9.842
16.5251 9.643
16.5403 9.752
16.5554 9.810
16.5706 9.632
16.5858 9.408
16.6010 9.627
16.6161 9.729
16.6313 9.665
16.6465 9.607
16.6617 9.568
16.6768 9.643
16.6920 9.658
16.7072 9.754
16.7224 9.852
16.7375 9.712
16.7527 9.941
16.7679 10.065
16.7831 9.944
16.7982 9.942
16.8134 9.835
16.8286 9.626
16.8438 9.658
16.8589 9.802
16.8741 9.936
16.8893 9.819
16.9045 9.745
16.9196 9.744
16.9348 9.923
16.9500 9.816
16.9652 9.585
16.9803 9.553
16.9955 9.619
17.0107 9.832
17.0259 10.061
17.0410 9.990
17.0562 9.829
17.0714 10.035
17.0866 10.279
17.1017 10.436
17.1169 10.710
17.1321 11.044
17.1473 11.259
17.1624 11.770
17.1776 12.369
17.1928 12.943
17.2080 13.834
17.2231 14.762
17.2383 16.223
17.2535 17.800
17.2687 18.591
17.2838 18.666
17.2990 18.114
17.3142 17.112
17.3294 16.232
17.3445 16.017
17.3597 16.034
17.3749 15.837
17.3901 15.238
17.4052 14.302
17.4204 13.417
17.4356 12.658
17.4508 12.144
17.4659 11.855
17.4811 11.771
17.4963 11.748
17.5115 11.631
17.5266 11.187
17.5418 10.870
17.5570 11.069
17.5722 10.881
17.5873 10.957
17.6025 11.249
17.6177 11.132
17.6329 11.073
17.6480 11.148
17.6632 11.419
17.6784 11.542
17.6936 11.488
17.7087 11.396
17.7239 11.252
17.7391 11.103
17.7543 11.153
17.7694 11.051
17.7846 11.031
17.7998 10.873
17.8150 10.661
17.8301 10.613
17.8453 10.644
17.8605 10.363
17.8757 10.167
17.8908 10.260
17.9060 10.178
17.9212 10.282
17.9364 10.192
17.9515 10.085
17.9667 10.253
17.9819 10.326
17.9971 10.320
18.0122 10.315
18.0274 10.207
18.0426 10.115
18.0578 10.187
18.0729 10.157
18.0881 9.898
18.1033 9.833
18.1185 10.072
18.1336 10.163
18.1488 10.055
18.1640 9.889
18.1792 9.930
18.1943 9.713
18.2095 9.630
18.2247 9.796
18.2399 9.789
18.2550 9.817
18.2702 9.919
18.2854 9.869
18.3006 9.875
18.3157 9.722
18.3309 9.937
18.3461 10.049
18.3613 9.687
18.3764 9.646
18.3916 9.690
18.4068 9.725
18.4220 9.737
18.4371 9.783
18.4523 9.842
18.4675 9.877
18.4827 9.989
18.4978 9.848
18.5130 9.811
18.5282 9.961
18.5434 9.921
18.5585 9.777
18.5737 9.810
18.5889 9.771
18.6041 9.900
18.6192 9.882
18.6344 9.787
18.6496 9.754
18.6648 9.878
18.6799 9.873
18.6951 9.627
18.7103 9.696
18.7255 9.946
18.7406 9.960
18.7558 9.878
18.7710 9.799
18.7862 9.931
18.8013 9.871
18.8165 9.770
18.8317 9.917
18.8469 9.912
18.8620 10.047
18.8772 10.196
18.8924 10.125
18.9076 9.868
18.9227 9.900
18.9379 9.931
18.9531 9.827
18.9683 9.816
18.9834 10.128
18.9986 10.072
19.0138 9.980
19.0290 10.062
19.0441 10.202
19.0593 10.265
19.0745 10.260
19.0897 10.219
19.1048 10.146
19.1200 10.210
19.1352 10.505
19.1504 10.354
19.1655 10.321
19.1807 10.437
19.1959 10.497
19.2111 10.627
19.2262 10.885
19.2414 10.866
19.2566 10.738
19.2718 10.716
19.2869 10.844
19.3021 11.026
19.3173 10.840
19.3325 10.744
19.3476 10.993
19.3628 10.959
19.3780 10.849
19.3932 11.062
19.4083 11.327
19.4235 11.258
19.4387 11.239
19.4539 11.253
19.4690 11.257
19.4842 11.276
19.4994 11.313
19.5146 11.271
19.5297 11.474
19.5449 11.670
19.5601 11.327
19.5753 11.473
19.5904 11.814
19.6056 11.637
19.6208 11.593
19.6360 11.605
19.6511 11.571
19.6663 11.653
19.6815 11.613
19.6967 11.716
19.7118 11.728
19.7270 11.721
19.7422 11.796
19.7574 11.715
19.7725 11.617
19.7877 11.809
19.8029 11.873
19.8180 11.834
19.8332 11.914
19.8484 12.054
19.8636 12.316
19.8787 12.629
19.8939 12.865
19.9091 13.058
19.9243 13.296
19.9394 13.490
19.9546 13.887
19.9698 14.192
19.9850 14.481
20.0001 14.369
20.0153 14.076
20.0305 14.057
20.0457 14.020
20.0608 13.893
20.0760 13.679
20.0912 13.733
20.1064 13.499
20.1215 13.302
20.1367 12.900
20.1519 12.812
20.1671 13.124
20.1822 13.102
20.1974 12.664
20.2126 12.359
20.2278 12.542
20.2429 12.438
20.2581 12.167
20.2733 12.066
20.2885 12.009
20.3036 12.063
20.3188 11.980
20.3340 11.962
20.3492 12.085
20.3643 11.942
20.3795 11.795
20.3947 11.879
20.4099 11.923
20.4250 11.817
20.4402 11.464
20.4554 11.831
20.4706 12.122
20.4857 12.058
20.5009 12.053
20.5161 11.505
20.5313 11.297
20.5464 11.472
20.5616 11.493
20.5768 11.229
20.5920 11.289
20.6071 11.284
20.6223 11.154
20.6375 11.027
20.6527 10.773
20.6678 10.681
20.6830 10.758
20.6982 10.509
20.7134 10.375
20.7285 10.374
20.7437 10.563
20.7589 10.331
20.7741 9.975
20.7892 10.451
20.8044 10.403
20.8196 10.097
20.8348 10.236
20.8499 10.528
20.8651 10.609
20.8803 10.163
20.8955 10.367
20.9106 10.234
20.9258 10.021
20.9410 10.245
20.9562 10.151
20.9713 10.230
20.9865 9.992
21.0017 10.114
21.0169 9.979
21.0320 9.976
21.0472 9.782
21.0624 9.865
21.0776 10.033
21.0927 9.971
21.1079 9.756
21.1231 9.972
21.1383 9.214
21.1534 9.814
21.1686 9.749
21.1838 9.672
21.1990 9.686
21.2141 9.466
21.2293 9.657
21.2445 10.003
21.2597 9.583
21.2748 9.591
21.2900 9.557
21.3052 9.405
21.3204 9.483
21.3355 9.649
21.3507 9.549
21.3659 9.542
21.3811 9.436
21.3962 9.435
21.4114 9.381
21.4266 9.476
21.4418 9.289
21.4569 9.317
21.4721 9.607
21.4873 9.194
21.5025 9.305
21.5176 9.075
21.5328 9.475
21.5480 9.373
21.5632 9.051
21.5783 9.132
21.5935 9.251
21.6087 9.432
21.6239 9.372
21.6390 9.245
21.6542 9.070
21.6694 9.162
21.6846 9.252
21.6997 9.232
21.7149 8.832
21.7301 9.020
21.7453 9.102
21.7604 8.948
21.7756 9.045
21.7908 9.062
21.8060 9.203
21.8211 9.212
21.8363 9.006
21.8515 8.994
21.8667 9.065
21.8818 9.049
21.8970 8.928
21.9122 9.056
21.9274 9.155
21.9425 8.959
21.9577 8.940
21.9729 9.101
21.9881 8.935
22.0032 8.899
22.0184 9.011
22.0336 8.905
22.0488 8.907
22.0639 8.796
22.0791 8.687
22.0943 8.628
22.1095 8.601
22.1246 8.687
22.1398 8.617
22.1550 8.412
22.1702 8.415
22.1853 8.606
22.2005 8.464
22.2157 8.541
22.2309 8.566
22.2460 8.416
22.2612 8.679
22.2764 8.518
22.2916 8.373
22.3067 8.680
22.3219 8.664
22.3371 8.627
22.3523 8.453
22.3674 8.450
22.3826 8.498
22.3978 8.357
22.4130 8.581
22.4281 8.555
22.4433 8.623
22.4585 8.430
22.4737 8.231
22.4888 8.245
22.5040 8.376
22.5192 8.434
22.5344 8.378
22.5495 8.393
22.5647 8.782
22.5799 8.265
22.5951 8.407
22.6102 8.426
22.6254 8.474
22.6406 8.285
22.6558 8.263
22.6709 8.470
22.6861 8.312
22.7013 8.032
22.7165 8.016
22.7316 6.196
