'Id: "" Comment: "" Operator: "Lab Manager" Anode: "Mo" Scantype: "Still (Eiger2R_500K (1D mode))" TimePerStep: "300" X: "11.8" Y: "9.4" Z: "11.284" 
7.2532 18.731
7.2684 18.903
7.2836 18.869
7.2987 18.565
7.3139 18.900
7.3291 18.755
7.3443 19.205
7.3594 19.090
7.3746 19.468
7.3898 19.056
7.4050 19.584
7.4201 19.356
7.4353 19.319
7.4505 19.176
7.4657 19.144
7.4808 19.194
7.4960 19.503
7.5112 19.766
7.5264 19.483
7.5415 19.665
7.5567 19.690
7.5719 19.837
7.5871 19.577
7.6022 19.724
7.6174 19.791
7.6326 19.749
7.6478 19.954
7.6629 20.123
7.6781 20.300
7.6933 20.201
7.7085 19.984
7.7236 20.125
7.7388 19.966
7.7540 20.236
7.7692 20.642
7.7843 20.786
7.7995 21.088
7.8147 21.010
7.8299 20.781
7.8450 20.914
7.8602 20.913
7.8754 21.009
7.8905 20.899
7.9057 20.795
7.9209 20.620
7.9361 20.489
7.9512 20.738
7.9664 20.842
7.9816 21.012
7.9968 21.199
8.0119 21.207
8.0271 20.831
8.0423 20.949
8.0575 21.279
8.0726 21.420
8.0878 21.392
8.1030 20.974
8.1182 21.151
8.1333 21.703
8.1485 21.455
8.1637 21.407
8.1789 21.628
8.1940 21.614
8.2092 21.674
8.2244 21.387
8.2396 21.136
8.2547 21.664
8.2699 22.013
8.2851 22.219
8.3003 21.512
8.3154 21.718
8.3306 21.459
8.3458 21.732
8.3610 21.949
8.3761 22.006
8.3913 21.958
8.4065 21.772
8.4217 21.768
8.4368 22.072
8.4520 21.923
8.4672 22.118
8.4824 22.162
8.4975 22.165
8.5127 22.392
8.5279 22.311
8.5431 21.652
8.5582 22.685
8.5734 22.052
8.5886 22.216
8.6038 21.972
8.6189 22.779
8.6341 22.650
8.6493 22.564
8.6645 22.620
8.6796 23.093
8.6948 22.201
8.7100 22.388
8.7252 22.901
8.7403 22.919
8.7555 22.583
8.7707 22.649
8.7859 22.777
8.8010 22.530
8.8162 22.424
8.8314 22.578
8.8466 22.506
8.8617 22.594
8.8769 22.730
8.8921 22.178
8.9073 22.832
8.9224 22.911
8.9376 22.623
8.9528 23.139
8.9680 22.560
8.9831 22.538
8.9983 22.748
9.0135 22.449
9.0287 22.571
9.0438 23.090
9.0590 23.294
9.0742 22.930
9.0894 22.512
9.1045 22.766
9.1197 22.792
9.1349 23.307
9.1501 22.972
9.1652 22.981
9.1804 23.020
9.1956 22.674
9.2108 23.158
9.2259 23.168
9.2411 22.921
9.2563 22.991
9.2715 23.193
9.2866 23.385
9.3018 23.333
9.3170 23.213
9.3322 23.433
9.3473 23.623
9.3625 23.391
9.3777 23.086
9.3929 22.968
9.4080 22.987
9.4232 23.000
9.4384 22.863
9.4536 23.281
9.4687 23.650
9.4839 23.271
9.4991 23.236
9.5143 23.406
9.5294 23.567
9.5446 23.481
9.5598 23.468
9.5750 23.456
9.5901 23.593
9.6053 23.517
9.6205 23.049
9.6357 23.189
9.6508 23.551
9.6660 23.481
9.6812 23.737
9.6964 23.935
9.7115 24.248
9.7267 24.029
9.7419 24.016
9.7571 24.385
9.7722 24.020
9.7874 23.612
9.8026 23.545
9.8178 23.579
9.8329 23.648
9.8481 23.611
9.8633 23.370
9.8785 23.252
9.8936 23.049
9.9088 23.315
9.9240 23.646
9.9392 23.423
9.9543 23.234
9.9695 23.000
9.9847 23.118
9.9999 23.258
10.0150 23.367
10.0302 23.680
10.0454 23.438
10.0606 23.356
10.0757 23.252
10.0909 22.969
10.1061 23.105
10.1213 23.098
10.1364 23.228
10.1516 23.492
10.1668 23.395
10.1820 23.643
10.1971 23.896
10.2123 23.945
10.2275 23.700
10.2427 23.264
10.2578 23.389
10.2730 23.676
10.2882 23.609
10.3034 23.468
10.3185 23.055
10.3337 22.886
10.3489 22.904
10.3641 22.805
10.3792 22.736
10.3944 22.967
10.4096 23.105
10.4248 22.864
10.4399 22.812
10.4551 22.968
10.4703 22.871
10.4855 23.032
10.5006 22.663
10.5158 22.521
10.5310 22.819
10.5462 22.813
10.5613 22.559
10.5765 22.855
10.5917 22.714
10.6069 22.462
10.6220 22.583
10.6372 22.462
10.6524 22.844
10.6676 22.871
10.6827 22.890
10.6979 22.785
10.7131 22.671
10.7283 22.627
10.7434 22.535
10.7586 22.570
10.7738 22.328
10.7890 22.626
10.8041 22.460
10.8193 22.410
10.8345 22.668
10.8497 22.499
10.8648 22.838
10.8800 22.728
10.8952 22.223
10.9104 22.215
10.9255 22.495
10.9407 22.412
10.9559 22.243
10.9711 22.229
10.9862 22.287
11.0014 22.167
11.0166 22.146
11.0318 22.134
11.0469 22.074
11.0621 21.845
11.0773 21.888
11.0925 22.142
11.1076 22.271
11.1228 22.102
11.1380 21.762
11.1532 22.002
11.1683 21.959
11.1835 21.933
11.1987 21.511
11.2139 21.815
11.2290 22.043
11.2442 22.354
11.2594 22.181
11.2746 22.330
11.2897 21.869
11.3049 21.733
11.3201 21.587
11.3353 21.838
11.3504 21.796
11.3656 21.555
11.3808 21.431
11.3960 21.550
11.4111 21.524
11.4263 21.431
11.4415 21.483
11.4567 21.281
11.4718 21.180
11.4870 21.117
11.5022 21.298
11.5174 20.909
11.5325 21.024
11.5477 21.128
11.5629 21.061
11.5781 20.933
11.5932 20.661
11.6084 20.921
11.6236 21.040
11.6388 20.714
11.6539 20.904
11.6691 20.868
11.6843 20.624
11.6995 20.538
11.7146 20.468
11.7298 20.441
11.7450 20.760
11.7602 20.728
11.7753 20.380
11.7905 20.202
11.8057 20.328
11.8209 20.089
11.8360 20.139
11.8512 20.067
11.8664 19.576
11.8816 19.410
11.8967 19.612
11.9119 19.765
11.9271 19.949
11.9423 19.914
11.9574 19.559
11.9726 19.556
11.9878 19.607
12.0030 19.704
12.0181 19.517
12.0333 19.112
12.0485 19.187
12.0637 19.372
12.0788 19.003
12.0940 18.669
12.1092 18.846
12.1244 18.772
12.1395 18.739
12.1547 18.495
12.1699 18.534
12.1851 18.527
12.2002 18.563
12.2154 18.144
12.2306 18.074
12.2458 18.166
12.2609 18.106
12.2761 18.026
12.2913 17.732
12.3065 17.622
12.3216 17.636
12.3368 17.643
12.3520 17.288
12.3672 17.221
12.3823 17.642
12.3975 17.324
12.4127 17.113
12.4279 17.032
12.4430 17.225
12.4582 17.211
12.4734 17.064
12.4886 16.930
12.5037 17.050
12.5189 17.291
12.5341 17.195
12.5493 17.168
12.5644 16.504
12.5796 16.482
12.5948 16.868
12.6100 16.377
12.6251 16.144
12.6403 16.387
12.6555 16.288
12.6707 16.174
12.6858 15.846
12.7010 15.760
12.7162 15.617
12.7314 15.607
12.7465 15.425
12.7617 15.319
12.7769 15.497
12.7921 15.513
12.8072 15.562
12.8224 15.474
12.8376 15.071
12.8528 15.035
12.8679 15.134
12.8831 14.885
12.8983 14.768
12.9135 14.846
12.9286 14.977
12.9438 14.828
12.9590 14.598
12.9742 14.535
12.9893 14.451
13.0045 14.340
13.0197 14.053
13.0349 14.139
13.0500 14.338
13.0652 14.174
13.0804 14.121
13.0956 14.068
13.1107 13.946
13.1259 13.782
13.1411 13.673
13.1563 13.713
13.1714 13.813
13.1866 13.934
13.2018 13.775
13.2170 13.704
13.2321 13.667
13.2473 13.285
13.2625 13.269
13.2777 13.416
13.2928 13.432
13.3080 13.411
13.3232 13.466
13.3384 13.495
13.3535 13.204
13.3687 13.093
13.3839 13.059
13.3991 12.901
13.4142 12.930
13.4294 13.275
13.4446 13.231
13.4598 12.822
13.4749 12.657
13.4901 12.879
13.5053 12.796
13.5205 12.531
13.5356 12.547
13.5508 12.624
13.5660 12.379
13.5812 12.284
13.5963 12.273
13.6115 12.135
13.6267 12.210
13.6419 12.196
13.6570 12.160
13.6722 12.303
13.6874 12.344
13.7026 12.117
13.7177 11.969
13.7329 12.006
13.7481 12.200
13.7633 12.423
13.7784 12.168
13.7936 11.990
13.8088 12.215
13.8239 12.303
13.8391 12.542
13.8543 12.564
13.8695 12.113
13.8846 12.199
13.8998 12.284
13.9150 12.105
13.9302 12.247
13.9453 12.177
13.9605 11.910
13.9757 11.841
13.9909 11.604
14.0060 11.711
14.0212 11.700
14.0364 11.783
14.0516 11.737
14.0667 11.568
14.0819 11.559
14.0971 11.540
14.1123 11.690
14.1274 11.572
14.1426 11.704
14.1578 11.690
14.1730 11.572
14.1881 11.862
14.2033 11.563
14.2185 11.508
14.2337 11.790
14.2488 11.621
14.2640 11.659
14.2792 11.807
14.2944 12.011
14.3095 11.981
14.3247 11.857
14.3399 12.065
14.3551 12.163
14.3702 12.318
14.3854 12.492
14.4006 12.708
14.4158 12.502
14.4309 12.120
14.4461 12.017
14.4613 12.244
14.4765 11.746
14.4916 11.788
14.5068 11.989
14.5220 11.587
14.5372 11.769
14.5523 11.295
14.5675 11.322
14.5827 11.117
14.5979 11.223
14.6130 11.013
14.6282 10.899
14.6434 10.966
14.6586 10.867
14.6737 10.725
14.6889 10.993
14.7041 10.692
14.7193 11.263
14.7344 10.706
14.7496 10.759
14.7648 10.801
14.7800 10.615
14.7951 11.046
14.8103 10.384
14.8255 10.368
14.8407 10.911
14.8558 10.873
14.8710 10.816
14.8862 10.608
14.9014 10.666
14.9165 10.813
14.9317 10.899
14.9469 10.603
14.9621 10.834
14.9772 10.579
14.9924 10.472
15.0076 10.639
15.0228 10.663
15.0379 10.373
15.0531 10.588
15.0683 10.656
15.0835 10.127
15.0986 10.480
15.1138 10.320
15.1290 10.666
15.1442 10.455
15.1593 10.599
15.1745 10.373
15.1897 10.477
15.2049 10.647
15.2200 10.428
15.2352 10.181
15.2504 10.214
15.2656 10.439
15.2807 10.346
15.2959 10.229
15.3111 10.477
15.3263 10.284
15.3414 10.359
15.3566 10.400
15.3718 10.459
15.3870 10.250
15.4021 10.740
15.4173 10.701
15.4325 10.060
15.4477 10.666
15.4628 10.412
15.4780 10.466
15.4932 10.554
15.5084 10.474
15.5235 10.851
15.5387 10.015
15.5539 9.982
15.5691 9.940
15.5842 10.266
15.5994 9.993
15.6146 10.143
15.6298 10.109
15.6449 10.167
15.6601 9.905
15.6753 9.972
15.6905 9.975
15.7056 10.076
15.7208 9.935
15.7360 9.770
15.7512 10.181
15.7663 9.798
15.7815 9.751
15.7967 10.080
15.8119 9.959
15.8270 9.678
15.8422 9.765
15.8574 9.907
15.8726 9.846
15.8877 9.800
15.9029 9.756
15.9181 10.071
15.9333 10.174
15.9484 9.645
15.9636 9.565
15.9788 9.825
15.9940 9.936
16.0091 9.826
16.0243 9.743
16.0395 9.824
16.0547 9.858
16.0698 9.695
16.0850 9.875
16.1002 9.703
16.1154 9.871
16.1305 9.817
16.1457 9.791
16.1609 9.939
16.1761 9.703
16.1912 9.549
16.2064 9.656
16.2216 9.859
16.2368 9.997
16.2519 9.728
16.2671 9.804
16.2823 9.765
16.2975 9.909
16.3126 10.025
16.3278 10.042
16.3430 10.093
16.3582 10.077
16.3733 10.128
16.3885 10.026
16.4037 10.057
16.4189 10.148
16.4340 9.924
16.4492 10.062
16.4644 9.915
16.4796 10.059
16.4947 9.975
16.5099 9.880
16.5251 9.889
16.5403 9.963
16.5554 9.899
16.5706 9.793
16.5858 9.696
16.6010 9.989
16.6161 9.885
16.6313 9.754
16.6465 9.891
16.6617 10.198
16.6768 9.990
16.6920 9.992
16.7072 10.190
16.7224 10.277
16.7375 10.181
16.7527 10.251
16.7679 10.268
16.7831 10.193
16.7982 9.998
16.8134 9.941
16.8286 10.099
16.8438 9.956
16.8589 9.932
16.8741 9.821
16.8893 9.864
16.9045 10.007
16.9196 9.904
16.9348 9.780
16.9500 9.885
16.9652 9.897
16.9803 9.909
16.9955 9.999
17.0107 9.970
17.0259 10.044
17.0410 10.216
17.0562 10.279
17.0714 10.422
17.0866 10.356
17.1017 10.375
17.1169 10.777
17.1321 10.943
17.1473 11.200
17.1624 11.958
17.1776 12.612
17.1928 13.336
17.2080 14.220
17.2231 15.248
17.2383 16.529
17.2535 17.816
17.2687 18.932
17.2838 19.254
17.2990 18.353
17.3142 17.163
17.3294 16.764
17.3445 16.458
17.3597 16.106
17.3749 15.916
17.3901 15.188
17.4052 14.241
17.4204 13.290
17.4356 12.262
17.4508 11.948
17.4659 11.901
17.4811 11.521
17.4963 11.353
17.5115 11.274
17.5266 11.238
17.5418 11.197
17.5570 11.011
17.5722 11.068
17.5873 10.922
17.6025 10.953
17.6177 11.219
17.6329 10.991
17.6480 10.968
17.6632 10.989
17.6784 10.798
17.6936 10.514
17.7087 10.522
17.7239 10.441
17.7391 10.204
17.7543 9.975
17.7694 10.146
17.7846 10.212
17.7998 10.068
17.8150 10.215
17.8301 10.088
17.8453 9.916
17.8605 10.150
17.8757 10.331
17.8908 10.212
17.9060 10.201
17.9212 10.366
17.9364 10.061
17.9515 9.821
17.9667 10.101
17.9819 10.202
17.9971 10.327
18.0122 10.272
18.0274 10.427
18.0426 10.433
18.0578 10.227
18.0729 10.223
18.0881 10.230
18.1033 10.086
18.1185 10.001
18.1336 10.041
18.1488 9.957
18.1640 9.882
18.1792 9.993
18.1943 9.826
18.2095 9.692
18.2247 9.974
18.2399 9.988
18.2550 9.932
18.2702 9.836
18.2854 9.754
18.3006 9.810
18.3157 9.844
18.3309 9.824
18.3461 10.051
18.3613 9.862
18.3764 9.922
18.3916 9.964
18.4068 9.868
18.4220 9.814
18.4371 9.737
18.4523 9.565
18.4675 9.582
18.4827 9.693
18.4978 9.773
18.5130 9.918
18.5282 9.857
18.5434 9.729
18.5585 9.769
18.5737 9.839
18.5889 9.853
18.6041 9.796
18.6192 9.761
18.6344 9.610
18.6496 9.567
18.6648 9.622
18.6799 9.763
18.6951 9.783
18.7103 9.814
18.7255 9.825
18.7406 9.713
18.7558 9.819
18.7710 9.752
18.7862 9.820
18.8013 9.800
18.8165 9.764
18.8317 9.959
18.8469 10.006
18.8620 9.930
18.8772 9.875
18.8924 9.973
18.9076 10.082
18.9227 9.974
18.9379 10.245
18.9531 10.061
18.9683 9.960
18.9834 10.124
18.9986 10.151
19.0138 10.224
19.0290 10.438
19.0441 10.313
19.0593 10.267
19.0745 10.241
19.0897 10.389
19.1048 10.428
19.1200 10.434
19.1352 10.465
19.1504 10.449
19.1655 10.772
19.1807 10.604
19.1959 10.385
19.2111 10.744
19.2262 10.844
19.2414 10.848
19.2566 10.860
19.2718 10.887
19.2869 11.040
19.3021 10.991
19.3173 11.088
19.3325 11.153
19.3476 11.185
19.3628 11.290
19.3780 11.473
19.3932 11.317
19.4083 11.257
19.4235 11.351
19.4387 11.213
19.4539 11.141
19.4690 11.498
19.4842 11.539
19.4994 11.343
19.5146 11.452
19.5297 11.626
19.5449 11.682
19.5601 11.694
19.5753 11.471
19.5904 11.553
19.6056 11.843
19.6208 11.755
19.6360 11.590
19.6511 11.746
19.6663 11.815
19.6815 11.825
19.6967 11.901
19.7118 11.702
19.7270 11.725
19.7422 11.846
19.7574 11.873
19.7725 11.896
19.7877 11.961
19.8029 12.161
19.8180 12.286
19.8332 12.247
19.8484 12.215
19.8636 12.542
19.8787 13.007
19.8939 13.206
19.9091 13.198
19.9243 13.281
19.9394 13.648
19.9546 14.143
19.9698 14.631
19.9850 14.807
20.0001 14.575
20.0153 14.192
20.0305 14.056
20.0457 13.844
20.0608 13.631
20.0760 13.644
20.0912 13.720
20.1064 13.700
20.1215 13.571
20.1367 13.497
20.1519 13.273
20.1671 13.084
20.1822 12.852
20.1974 12.987
20.2126 13.035
20.2278 12.868
20.2429 12.692
20.2581 12.503
20.2733 12.084
20.2885 12.192
20.3036 11.899
20.3188 11.777
20.3340 11.794
20.3492 11.938
20.3643 11.799
20.3795 11.414
20.3947 11.371
20.4099 11.097
20.4250 10.998
20.4402 11.053
20.4554 10.978
20.4706 10.676
20.4857 10.714
20.5009 10.479
20.5161 10.790
20.5313 10.641
20.5464 10.504
20.5616 10.501
20.5768 10.813
20.5920 10.971
20.6071 10.744
20.6223 10.815
20.6375 10.675
20.6527 10.659
20.6678 10.528
20.6830 10.423
20.6982 10.366
20.7134 10.545
20.7285 10.496
20.7437 10.688
20.7589 10.388
20.7741 10.440
20.7892 10.253
20.8044 10.118
20.8196 10.572
20.8348 10.415
20.8499 10.223
20.8651 10.173
20.8803 10.250
20.8955 10.049
20.9106 10.333
20.9258 10.445
20.9410 10.185
20.9562 10.326
20.9713 9.900
20.9865 10.054
21.0017 9.794
21.0169 10.135
21.0320 10.041
21.0472 10.291
21.0624 9.930
21.0776 9.815
21.0927 9.874
21.1079 9.884
21.1231 9.671
21.1383 9.881
21.1534 9.512
21.1686 9.560
21.1838 9.625
21.1990 9.916
21.2141 9.834
21.2293 9.206
21.2445 9.756
21.2597 9.764
21.2748 9.669
21.2900 10.111
21.3052 9.593
21.3204 9.480
21.3355 9.637
21.3507 9.452
21.3659 9.548
21.3811 9.800
21.3962 9.733
21.4114 9.561
21.4266 9.667
21.4418 9.592
21.4569 9.641
21.4721 9.520
21.4873 9.545
21.5025 9.089
21.5176 9.036
21.5328 9.668
21.5480 9.408
21.5632 9.202
21.5783 9.254
21.5935 9.283
21.6087 9.354
21.6239 9.275
21.6390 9.209
21.6542 9.238
21.6694 9.314
21.6846 9.201
21.6997 9.221
21.7149 9.350
21.7301 9.281
21.7453 9.107
21.7604 9.138
21.7756 8.937
21.7908 9.006
21.8060 9.106
21.8211 9.228
21.8363 9.401
21.8515 9.117
21.8667 8.955
21.8818 8.999
21.8970 9.002
21.9122 9.148
21.9274 9.402
21.9425 9.140
21.9577 8.801
21.9729 8.751
21.9881 8.667
22.0032 8.763
22.0184 8.811
22.0336 8.729
22.0488 8.932
22.0639 9.079
22.0791 9.104
22.0943 8.805
22.1095 8.698
22.1246 8.761
22.1398 8.828
22.1550 8.851
22.1702 8.678
22.1853 8.702
22.2005 8.433
22.2157 8.376
22.2309 8.717
22.2460 8.590
22.2612 8.581
22.2764 8.692
22.2916 8.695
22.3067 8.629
22.3219 8.676
22.3371 8.592
22.3523 8.498
22.3674 8.626
22.3826 8.710
22.3978 8.454
22.4130 8.535
22.4281 8.672
22.4433 8.742
22.4585 8.639
22.4737 8.612
22.4888 8.452
22.5040 8.732
22.5192 8.594
22.5344 8.787
22.5495 8.286
22.5647 8.491
22.5799 8.611
22.5951 8.551
22.6102 8.741
22.6254 8.661
22.6406 8.528
22.6558 8.630
22.6709 8.426
22.6861 8.457
22.7013 8.234
22.7165 7.984
22.7316 6.459
