'Id: "" Comment: "" Operator: "Lab Manager" Anode: "Mo" Scantype: "Still (Eiger2R_500K (1D mode))" TimePerStep: "300" X: "11.8" Y: "9.4" Z: "11.284" 
7.2532 18.201
7.2684 18.621
7.2836 18.839
7.2987 18.936
7.3139 18.972
7.3291 18.948
7.3443 18.897
7.3594 19.087
7.3746 19.434
7.3898 19.017
7.4050 19.659
7.4201 19.397
7.4353 19.305
7.4505 19.273
7.4657 18.981
7.4808 19.190
7.4960 18.990
7.5112 19.506
7.5264 19.633
7.5415 19.431
7.5567 19.637
7.5719 19.745
7.5871 19.987
7.6022 20.040
7.6174 20.137
7.6326 19.908
7.6478 19.722
7.6629 19.773
7.6781 19.972
7.6933 20.021
7.7085 20.123
7.7236 20.044
7.7388 19.908
7.7540 20.048
7.7692 20.137
7.7843 20.103
7.7995 20.548
7.8147 20.520
7.8299 20.187
7.8450 20.419
7.8602 20.400
7.8754 20.402
7.8905 20.372
7.9057 20.324
7.9209 20.603
7.9361 20.911
7.9512 20.839
7.9664 20.579
7.9816 20.558
7.9968 20.772
8.0119 20.945
8.0271 21.138
8.0423 21.045
8.0575 20.930
8.0726 20.999
8.0878 21.143
8.1030 20.839
8.1182 21.090
8.1333 21.146
8.1485 21.306
8.1637 21.155
8.1789 20.835
8.1940 21.249
8.2092 21.455
8.2244 21.091
8.2396 21.299
8.2547 21.505
8.2699 21.425
8.2851 21.921
8.3003 21.364
8.3154 21.126
8.3306 21.378
8.3458 21.491
8.3610 21.468
8.3761 21.800
8.3913 21.630
8.4065 21.731
8.4217 21.837
8.4368 21.678
8.4520 21.913
8.4672 21.358
8.4824 21.385
8.4975 21.721
8.5127 21.797
8.5279 21.499
8.5431 21.731
8.5582 22.373
8.5734 21.845
8.5886 21.714
8.6038 21.791
8.6189 21.907
8.6341 22.138
8.6493 22.301
8.6645 22.071
8.6796 21.893
8.6948 22.059
8.7100 22.133
8.7252 22.415
8.7403 22.990
8.7555 22.506
8.7707 21.955
8.7859 22.184
8.8010 22.322
8.8162 22.120
8.8314 22.694
8.8466 22.698
8.8617 22.095
8.8769 22.546
8.8921 22.824
8.9073 22.478
8.9224 22.082
8.9376 22.788
8.9528 22.172
8.9680 22.073
8.9831 22.451
8.9983 22.416
9.0135 22.657
9.0287 22.579
9.0438 22.535
9.0590 22.502
9.0742 22.968
9.0894 22.682
9.1045 22.785
9.1197 22.707
9.1349 22.497
9.1501 23.096
9.1652 22.991
9.1804 22.833
9.1956 22.641
9.2108 22.436
9.2259 22.579
9.2411 22.800
9.2563 22.618
9.2715 22.653
9.2866 22.650
9.3018 22.811
9.3170 23.041
9.3322 23.112
9.3473 22.818
9.3625 22.922
9.3777 22.677
9.3929 22.559
9.4080 22.809
9.4232 22.643
9.4384 22.705
9.4536 22.773
9.4687 22.981
9.4839 22.877
9.4991 22.939
9.5143 22.868
9.5294 22.790
9.5446 23.012
9.5598 22.899
9.5750 22.608
9.5901 22.891
9.6053 23.175
9.6205 23.172
9.6357 23.667
9.6508 23.729
9.6660 23.340
9.6812 23.129
9.6964 23.274
9.7115 23.534
9.7267 23.827
9.7419 23.827
9.7571 23.766
9.7722 23.627
9.7874 23.586
9.8026 23.670
9.8178 23.606
9.8329 23.399
9.8481 23.196
9.8633 23.358
9.8785 23.422
9.8936 23.210
9.9088 23.149
9.9240 22.839
9.9392 22.964
9.9543 23.136
9.9695 22.747
9.9847 22.750
9.9999 22.964
10.0150 22.987
10.0302 23.141
10.0454 23.302
10.0606 23.295
10.0757 23.217
10.0909 23.022
10.1061 22.743
10.1213 23.024
10.1364 23.323
10.1516 23.292
10.1668 23.264
10.1820 23.284
10.1971 23.308
10.2123 22.916
10.2275 22.779
10.2427 23.053
10.2578 22.890
10.2730 22.672
10.2882 22.604
10.3034 22.637
10.3185 22.753
10.3337 22.998
10.3489 22.778
10.3641 22.526
10.3792 22.628
10.3944 22.396
10.4096 22.151
10.4248 22.528
10.4399 22.723
10.4551 22.633
10.4703 22.564
10.4855 22.423
10.5006 22.587
10.5158 22.743
10.5310 22.442
10.5462 22.335
10.5613 22.140
10.5765 22.358
10.5917 22.278
10.6069 22.280
10.6220 22.260
10.6372 22.184
10.6524 22.369
10.6676 22.456
10.6827 22.552
10.6979 22.619
10.7131 22.661
10.7283 22.287
10.7434 22.559
10.7586 22.050
10.7738 22.027
10.7890 21.814
10.8041 21.884
10.8193 21.893
10.8345 22.322
10.8497 22.201
10.8648 21.825
10.8800 21.877
10.8952 22.082
10.9104 22.216
10.9255 21.985
10.9407 21.522
10.9559 21.811
10.9711 21.689
10.9862 21.523
11.0014 21.865
11.0166 21.961
11.0318 21.847
11.0469 21.744
11.0621 21.799
11.0773 21.730
11.0925 21.747
11.1076 22.002
11.1228 21.849
11.1380 22.016
11.1532 21.945
11.1683 21.989
11.1835 21.853
11.1987 21.710
11.2139 21.768
11.2290 21.810
11.2442 21.282
11.2594 21.419
11.2746 21.849
11.2897 21.652
11.3049 21.586
11.3201 21.687
11.3353 21.473
11.3504 21.379
11.3656 21.445
11.3808 21.209
11.3960 21.355
11.4111 21.437
11.4263 21.286
11.4415 21.093
11.4567 20.766
11.4718 21.021
11.4870 21.097
11.5022 21.127
11.5174 20.923
11.5325 21.057
11.5477 20.806
11.5629 20.709
11.5781 20.720
11.5932 20.791
11.6084 21.391
11.6236 20.841
11.6388 20.712
11.6539 20.553
11.6691 20.490
11.6843 20.377
11.6995 20.457
11.7146 20.328
11.7298 20.869
11.7450 20.484
11.7602 19.979
11.7753 20.074
11.7905 20.327
11.8057 20.196
11.8209 20.080
11.8360 19.819
11.8512 19.693
11.8664 19.714
11.8816 19.826
11.8967 19.646
11.9119 19.461
11.9271 19.135
11.9423 19.225
11.9574 19.366
11.9726 19.558
11.9878 19.240
12.0030 19.208
12.0181 19.500
12.0333 19.180
12.0485 18.853
12.0637 18.950
12.0788 18.876
12.0940 19.045
12.1092 18.759
12.1244 18.681
12.1395 18.575
12.1547 18.645
12.1699 18.514
12.1851 18.315
12.2002 18.035
12.2154 17.786
12.2306 17.700
12.2458 17.796
12.2609 17.879
12.2761 17.789
12.2913 17.693
12.3065 17.546
12.3216 17.758
12.3368 17.599
12.3520 17.430
12.3672 17.378
12.3823 16.953
12.3975 16.760
12.4127 16.952
12.4279 17.031
12.4430 17.056
12.4582 16.768
12.4734 16.644
12.4886 16.856
12.5037 16.937
12.5189 16.639
12.5341 16.801
12.5493 16.729
12.5644 16.424
12.5796 16.260
12.5948 16.336
12.6100 16.492
12.6251 16.258
12.6403 15.829
12.6555 15.696
12.6707 15.876
12.6858 15.734
12.7010 15.726
12.7162 15.613
12.7314 15.428
12.7465 15.654
12.7617 15.606
12.7769 15.118
12.7921 14.865
12.8072 15.096
12.8224 15.214
12.8376 14.865
12.8528 14.710
12.8679 14.763
12.8831 14.740
12.8983 14.869
12.9135 14.723
12.9286 14.506
12.9438 14.349
12.9590 14.420
12.9742 14.628
12.9893 14.523
13.0045 14.259
13.0197 14.205
13.0349 14.215
13.0500 14.106
13.0652 14.049
13.0804 13.792
13.0956 13.654
13.1107 13.927
13.1259 13.901
13.1411 13.915
13.1563 14.013
13.1714 13.629
13.1866 13.535
13.2018 13.509
13.2170 13.384
13.2321 13.288
13.2473 13.252
13.2625 13.331
13.2777 13.196
13.2928 13.302
13.3080 13.184
13.3232 13.115
13.3384 13.372
13.3535 13.251
13.3687 13.091
13.3839 13.026
13.3991 12.809
13.4142 12.817
13.4294 12.907
13.4446 12.707
13.4598 12.682
13.4749 12.630
13.4901 12.467
13.5053 12.487
13.5205 12.465
13.5356 12.358
13.5508 12.413
13.5660 12.445
13.5812 12.560
13.5963 12.469
13.6115 12.260
13.6267 12.392
13.6419 12.223
13.6570 12.100
13.6722 11.808
13.6874 11.889
13.7026 12.130
13.7177 12.162
13.7329 12.108
13.7481 11.913
13.7633 12.141
13.7784 12.190
13.7936 12.173
13.8088 12.248
13.8239 12.278
13.8391 12.207
13.8543 12.346
13.8695 12.339
13.8846 12.069
13.8998 12.098
13.9150 12.181
13.9302 12.071
13.9453 12.126
13.9605 11.906
13.9757 11.726
13.9909 11.489
14.0060 11.556
14.0212 11.528
14.0364 11.726
14.0516 11.644
14.0667 11.688
14.0819 11.917
14.0971 11.406
14.1123 11.405
14.1274 11.313
14.1426 11.370
14.1578 11.604
14.1730 11.646
14.1881 11.703
14.2033 11.307
14.2185 11.424
14.2337 11.486
14.2488 11.716
14.2640 11.506
14.2792 11.297
14.2944 11.633
14.3095 11.717
14.3247 12.104
14.3399 12.349
14.3551 12.618
14.3702 12.967
14.3854 12.872
14.4006 12.858
14.4158 12.952
14.4309 12.961
14.4461 12.603
14.4613 12.626
14.4765 12.362
14.4916 12.311
14.5068 12.080
14.5220 11.685
14.5372 11.633
14.5523 11.666
14.5675 11.502
14.5827 11.088
14.5979 10.937
14.6130 11.143
14.6282 10.778
14.6434 10.490
14.6586 10.642
14.6737 10.697
14.6889 10.465
14.7041 10.707
14.7193 10.645
14.7344 10.609
14.7496 10.485
14.7648 10.374
14.7800 10.218
14.7951 10.602
14.8103 10.711
14.8255 10.315
14.8407 10.208
14.8558 10.228
14.8710 10.304
14.8862 10.493
14.9014 10.533
14.9165 10.834
14.9317 10.720
14.9469 10.532
14.9621 10.372
14.9772 10.283
14.9924 10.216
15.0076 10.246
15.0228 10.450
15.0379 10.442
15.0531 10.662
15.0683 10.115
15.0835 10.250
15.0986 10.402
15.1138 10.021
15.1290 10.123
15.1442 10.442
15.1593 10.099
15.1745 10.183
15.1897 9.894
15.2049 10.394
15.2200 10.098
15.2352 9.699
15.2504 9.982
15.2656 10.027
15.2807 10.250
15.2959 10.018
15.3111 9.958
15.3263 10.107
15.3414 10.214
15.3566 10.147
15.3718 10.169
15.3870 10.044
15.4021 9.947
15.4173 10.091
15.4325 10.225
15.4477 10.148
15.4628 9.960
15.4780 10.351
15.4932 10.334
15.5084 10.092
15.5235 9.979
15.5387 10.050
15.5539 9.948
15.5691 10.090
15.5842 9.768
15.5994 10.158
15.6146 9.943
15.6298 10.052
15.6449 9.587
15.6601 9.768
15.6753 9.550
15.6905 9.446
15.7056 9.489
15.7208 9.717
15.7360 9.434
15.7512 9.603
15.7663 9.741
15.7815 9.479
15.7967 9.542
15.8119 9.778
15.8270 9.495
15.8422 9.735
15.8574 9.755
15.8726 9.686
15.8877 9.711
15.9029 9.462
15.9181 9.579
15.9333 9.331
15.9484 9.342
15.9636 9.486
15.9788 9.458
15.9940 9.464
16.0091 9.475
16.0243 9.680
16.0395 9.482
16.0547 9.447
16.0698 9.855
16.0850 9.647
16.1002 9.497
16.1154 9.652
16.1305 9.555
16.1457 9.653
16.1609 9.518
16.1761 9.769
16.1912 9.524
16.2064 9.412
16.2216 9.624
16.2368 9.726
16.2519 9.896
16.2671 9.771
16.2823 9.743
16.2975 9.865
16.3126 9.767
16.3278 9.752
16.3430 9.675
16.3582 9.665
16.3733 9.799
16.3885 9.831
16.4037 9.776
16.4189 9.459
16.4340 9.548
16.4492 9.798
16.4644 9.842
16.4796 9.900
16.4947 9.715
16.5099 9.388
16.5251 9.315
16.5403 9.303
16.5554 9.431
16.5706 9.598
16.5858 9.257
16.6010 9.227
16.6161 9.576
16.6313 9.485
16.6465 9.519
16.6617 9.508
16.6768 9.643
16.6920 9.790
16.7072 9.914
16.7224 9.687
16.7375 9.598
16.7527 9.974
16.7679 9.871
16.7831 9.652
16.7982 9.718
16.8134 9.818
16.8286 9.754
16.8438 9.872
16.8589 9.874
16.8741 9.849
16.8893 9.758
16.9045 9.683
16.9196 9.734
16.9348 9.673
16.9500 9.664
16.9652 9.733
16.9803 9.726
16.9955 9.796
17.0107 10.008
17.0259 9.887
17.0410 9.965
17.0562 10.176
17.0714 10.078
17.0866 10.155
17.1017 10.314
17.1169 10.488
17.1321 10.697
17.1473 10.877
17.1624 11.476
17.1776 12.348
17.1928 13.097
17.2080 13.975
17.2231 15.032
17.2383 16.297
17.2535 17.782
17.2687 18.668
17.2838 18.535
17.2990 17.814
17.3142 16.872
17.3294 16.120
17.3445 15.923
17.3597 16.193
17.3749 15.935
17.3901 15.118
17.4052 14.238
17.4204 13.279
17.4356 12.409
17.4508 11.891
17.4659 11.538
17.4811 11.362
17.4963 11.361
17.5115 10.992
17.5266 10.927
17.5418 10.782
17.5570 10.695
17.5722 10.976
17.5873 10.798
17.6025 10.712
17.6177 10.944
17.6329 11.205
17.6480 11.356
17.6632 11.570
17.6784 11.693
17.6936 11.543
17.7087 11.530
17.7239 11.625
17.7391 11.526
17.7543 11.329
17.7694 11.170
17.7846 11.241
17.7998 11.145
17.8150 10.980
17.8301 10.626
17.8453 10.250
17.8605 10.225
17.8757 10.292
17.8908 10.356
17.9060 10.450
17.9212 10.370
17.9364 10.207
17.9515 10.215
17.9667 10.110
17.9819 10.075
17.9971 10.063
18.0122 10.148
18.0274 10.086
18.0426 9.915
18.0578 10.079
18.0729 10.356
18.0881 10.303
18.1033 10.143
18.1185 9.947
18.1336 9.907
18.1488 9.969
18.1640 10.078
18.1792 10.106
18.1943 9.783
18.2095 9.630
18.2247 9.667
18.2399 9.644
18.2550 9.856
18.2702 9.839
18.2854 9.734
18.3006 9.811
18.3157 9.733
18.3309 9.890
18.3461 9.725
18.3613 9.592
18.3764 9.992
18.3916 10.049
18.4068 9.764
18.4220 9.609
18.4371 9.585
18.4523 9.590
18.4675 9.608
18.4827 9.688
18.4978 9.741
18.5130 9.843
18.5282 9.865
18.5434 9.742
18.5585 9.590
18.5737 9.564
18.5889 9.728
18.6041 9.803
18.6192 9.638
18.6344 9.616
18.6496 9.592
18.6648 9.810
18.6799 9.901
18.6951 9.555
18.7103 9.714
18.7255 9.602
18.7406 9.527
18.7558 9.614
18.7710 9.873
18.7862 10.066
18.8013 9.842
18.8165 9.846
18.8317 9.889
18.8469 9.777
18.8620 9.872
18.8772 9.898
18.8924 9.905
18.9076 9.906
18.9227 9.869
18.9379 9.843
18.9531 9.905
18.9683 9.917
18.9834 10.030
18.9986 10.136
19.0138 10.167
19.0290 10.082
19.0441 10.074
19.0593 10.225
19.0745 10.239
19.0897 10.173
19.1048 10.293
19.1200 10.262
19.1352 10.346
19.1504 10.414
19.1655 10.628
19.1807 10.900
19.1959 10.827
19.2111 10.772
19.2262 10.847
19.2414 10.870
19.2566 10.782
19.2718 10.815
19.2869 10.925
19.3021 10.823
19.3173 10.776
19.3325 10.871
19.3476 11.096
19.3628 11.250
19.3780 11.315
19.3932 11.196
19.4083 11.155
19.4235 11.322
19.4387 11.347
19.4539 11.411
19.4690 11.415
19.4842 11.227
19.4994 11.061
19.5146 11.161
19.5297 11.464
19.5449 11.657
19.5601 11.671
19.5753 11.591
19.5904 11.384
19.6056 11.501
19.6208 11.516
19.6360 11.571
19.6511 11.729
19.6663 11.865
19.6815 11.919
19.6967 11.725
19.7118 11.793
19.7270 11.929
19.7422 11.785
19.7574 11.855
19.7725 12.038
19.7877 11.971
19.8029 11.986
19.8180 12.242
19.8332 12.306
19.8484 12.374
19.8636 12.456
19.8787 12.729
19.8939 13.051
19.9091 13.370
19.9243 13.396
19.9394 13.439
19.9546 13.922
19.9698 14.335
19.9850 14.350
20.0001 14.404
20.0153 14.412
20.0305 14.050
20.0457 13.817
20.0608 13.780
20.0760 13.866
20.0912 13.756
20.1064 13.604
20.1215 13.526
20.1367 13.444
20.1519 12.965
20.1671 12.585
20.1822 12.766
20.1974 13.017
20.2126 12.986
20.2278 12.982
20.2429 12.671
20.2581 12.330
20.2733 12.169
20.2885 12.218
20.3036 12.036
20.3188 11.998
20.3340 11.971
20.3492 12.368
20.3643 12.351
20.3795 11.785
20.3947 11.757
20.4099 12.068
20.4250 12.073
20.4402 12.063
20.4554 12.055
20.4706 12.073
20.4857 11.827
20.5009 11.437
20.5161 11.338
20.5313 11.497
20.5464 11.694
20.5616 11.391
20.5768 11.272
20.5920 11.341
20.6071 11.400
20.6223 11.014
20.6375 10.962
20.6527 11.043
20.6678 10.863
20.6830 10.678
20.6982 10.998
20.7134 10.698
20.7285 10.575
20.7437 10.496
20.7589 10.802
20.7741 10.832
20.7892 10.600
20.8044 10.335
20.8196 10.544
20.8348 10.320
20.8499 10.220
20.8651 10.476
20.8803 10.458
20.8955 10.546
20.9106 10.293
20.9258 9.914
20.9410 10.246
20.9562 10.292
20.9713 10.191
20.9865 10.247
21.0017 10.055
21.0169 10.340
21.0320 10.022
21.0472 10.132
21.0624 10.216
21.0776 10.206
21.0927 10.206
21.1079 10.028
21.1231 10.022
21.1383 10.025
21.1534 10.052
21.1686 9.938
21.1838 9.729
21.1990 9.930
21.2141 9.939
21.2293 9.843
21.2445 9.669
21.2597 9.971
21.2748 9.210
21.2900 9.677
21.3052 9.670
21.3204 9.781
21.3355 9.798
21.3507 9.519
21.3659 9.639
21.3811 9.620
21.3962 9.719
21.4114 9.786
21.4266 9.465
21.4418 9.362
21.4569 9.270
21.4721 9.371
21.4873 9.342
21.5025 9.326
21.5176 9.407
21.5328 9.019
21.5480 9.309
21.5632 9.230
21.5783 9.384
21.5935 9.376
21.6087 9.261
21.6239 9.111
21.6390 9.049
21.6542 9.102
21.6694 9.322
21.6846 9.367
21.6997 9.156
21.7149 9.095
21.7301 9.083
21.7453 9.073
21.7604 9.071
21.7756 9.128
21.7908 9.049
21.8060 9.133
21.8211 9.100
21.8363 9.210
21.8515 9.263
21.8667 9.170
21.8818 9.031
21.8970 9.055
21.9122 9.237
21.9274 8.970
21.9425 8.945
21.9577 8.907
21.9729 8.687
21.9881 8.658
22.0032 8.759
22.0184 8.837
22.0336 8.728
22.0488 8.749
22.0639 8.825
22.0791 8.730
22.0943 8.632
22.1095 8.880
22.1246 8.903
22.1398 8.642
22.1550 8.392
22.1702 8.525
22.1853 8.706
22.2005 8.486
22.2157 8.506
22.2309 8.712
22.2460 8.653
22.2612 8.634
22.2764 8.659
22.2916 8.657
22.3067 8.525
22.3219 8.547
22.3371 8.313
22.3523 8.369
22.3674 8.589
22.3826 8.511
22.3978 8.559
22.4130 8.277
22.4281 8.470
22.4433 8.379
22.4585 8.366
22.4737 8.663
22.4888 8.218
22.5040 8.395
22.5192 8.418
22.5344 8.189
22.5495 8.319
22.5647 8.422
22.5799 8.397
22.5951 8.625
22.6102 8.300
22.6254 8.471
22.6406 8.326
22.6558 8.335
22.6709 8.273
22.6861 8.231
22.7013 8.074
22.7165 8.133
22.7316 6.282
