'Id: "" Comment: "" Operator: "Lab Manager" Anode: "Mo" Scantype: "Still (Eiger2R_500K (1D mode))" TimePerStep: "300" X: "11.8" Y: "9.4" Z: "11.284" 
7.2532 18.806
7.2684 19.053
7.2836 19.172
7.2987 18.659
7.3139 19.085
7.3291 19.659
7.3443 19.093
7.3594 19.431
7.3746 18.974
7.3898 19.067
7.4050 19.009
7.4201 19.163
7.4353 19.322
7.4505 19.454
7.4657 19.740
7.4808 20.043
7.4960 19.646
7.5112 19.458
7.5264 19.546
7.5415 19.690
7.5567 20.023
7.5719 19.883
7.5871 19.833
7.6022 19.945
7.6174 19.872
7.6326 19.958
7.6478 20.024
7.6629 20.131
7.6781 20.064
7.6933 20.299
7.7085 20.388
7.7236 20.226
7.7388 20.275
7.7540 20.221
7.7692 20.485
7.7843 20.620
7.7995 20.561
7.8147 20.423
7.8299 20.152
7.8450 20.316
7.8602 20.668
7.8754 20.727
7.8905 20.721
7.9057 20.886
7.9209 21.055
7.9361 21.144
7.9512 20.987
7.9664 20.844
7.9816 20.914
7.9968 21.048
8.0119 20.849
8.0271 20.599
8.0423 20.905
8.0575 21.148
8.0726 21.022
8.0878 21.206
8.1030 21.201
8.1182 21.034
8.1333 21.441
8.1485 21.155
8.1637 21.333
8.1789 21.169
8.1940 21.333
8.2092 21.524
8.2244 21.339
8.2396 21.437
8.2547 22.013
8.2699 21.692
8.2851 21.645
8.3003 21.767
8.3154 21.712
8.3306 21.862
8.3458 21.819
8.3610 21.469
8.3761 21.767
8.3913 21.557
8.4065 22.086
8.4217 21.668
8.4368 22.116
8.4520 21.943
8.4672 21.966
8.4824 22.171
8.4975 21.912
8.5127 22.016
8.5279 22.269
8.5431 22.325
8.5582 22.076
8.5734 21.715
8.5886 22.002
8.6038 22.166
8.6189 22.490
8.6341 21.956
8.6493 22.309
8.6645 21.937
8.6796 22.211
8.6948 22.618
8.7100 22.459
8.7252 22.612
8.7403 22.333
8.7555 22.516
8.7707 22.698
8.7859 22.346
8.8010 22.634
8.8162 22.189
8.8314 22.306
8.8466 22.581
8.8617 22.474
8.8769 22.553
8.8921 22.254
8.9073 22.666
8.9224 22.944
8.9376 22.016
8.9528 22.438
8.9680 22.394
8.9831 22.684
8.9983 22.663
9.0135 23.097
9.0287 23.036
9.0438 22.742
9.0590 23.116
9.0742 22.775
9.0894 22.653
9.1045 22.730
9.1197 22.645
9.1349 22.493
9.1501 22.952
9.1652 23.014
9.1804 22.968
9.1956 22.651
9.2108 22.853
9.2259 22.958
9.2411 22.970
9.2563 22.944
9.2715 22.836
9.2866 23.074
9.3018 22.956
9.3170 22.998
9.3322 23.296
9.3473 23.311
9.3625 23.139
9.3777 23.311
9.3929 23.015
9.4080 22.734
9.4232 23.039
9.4384 23.202
9.4536 23.326
9.4687 23.280
9.4839 22.741
9.4991 22.834
9.5143 23.125
9.5294 23.445
9.5446 23.324
9.5598 23.191
9.5750 23.536
9.5901 23.422
9.6053 23.369
9.6205 23.593
9.6357 23.052
9.6508 22.972
9.6660 23.395
9.6812 23.477
9.6964 23.698
9.7115 23.871
9.7267 24.010
9.7419 24.065
9.7571 24.035
9.7722 24.023
9.7874 23.633
9.8026 23.382
9.8178 23.574
9.8329 23.738
9.8481 23.700
9.8633 23.271
9.8785 23.061
9.8936 22.995
9.9088 22.929
9.9240 23.261
9.9392 23.176
9.9543 23.166
9.9695 23.410
9.9847 23.191
9.9999 23.109
10.0150 22.841
10.0302 22.960
10.0454 23.452
10.0606 23.431
10.0757 23.259
10.0909 23.307
10.1061 23.326
10.1213 23.502
10.1364 23.370
10.1516 23.195
10.1668 23.448
10.1820 23.101
10.1971 23.236
10.2123 23.750
10.2275 23.254
10.2427 22.933
10.2578 23.315
10.2730 23.000
10.2882 23.102
10.3034 22.696
10.3185 22.553
10.3337 22.930
10.3489 22.940
10.3641 22.561
10.3792 22.302
10.3944 22.696
10.4096 22.377
10.4248 22.265
10.4399 22.713
10.4551 22.707
10.4703 22.657
10.4855 22.829
10.5006 22.871
10.5158 22.432
10.5310 22.520
10.5462 22.490
10.5613 22.365
10.5765 22.200
10.5917 22.106
10.6069 22.141
10.6220 22.324
10.6372 22.614
10.6524 22.331
10.6676 22.371
10.6827 22.753
10.6979 22.325
10.7131 22.132
10.7283 22.497
10.7434 22.247
10.7586 22.440
10.7738 22.399
10.7890 22.248
10.8041 22.382
10.8193 22.510
10.8345 22.203
10.8497 22.103
10.8648 22.100
10.8800 22.289
10.8952 22.018
10.9104 21.885
10.9255 21.984
10.9407 21.775
10.9559 22.380
10.9711 22.343
10.9862 22.032
11.0014 22.088
11.0166 21.939
11.0318 22.138
11.0469 21.861
11.0621 21.779
11.0773 21.738
11.0925 21.829
11.1076 21.720
11.1228 21.847
11.1380 21.494
11.1532 21.704
11.1683 22.097
11.1835 21.392
11.1987 21.499
11.2139 21.859
11.2290 21.460
11.2442 21.750
11.2594 21.699
11.2746 21.256
11.2897 21.497
11.3049 21.515
11.3201 21.276
11.3353 21.483
11.3504 21.356
11.3656 21.122
11.3808 21.432
11.3960 20.946
11.4111 20.996
11.4263 21.210
11.4415 21.274
11.4567 21.052
11.4718 21.069
11.4870 20.975
11.5022 21.335
11.5174 21.293
11.5325 21.183
11.5477 20.774
11.5629 20.553
11.5781 20.682
11.5932 20.855
11.6084 20.628
11.6236 20.422
11.6388 20.669
11.6539 20.708
11.6691 20.771
11.6843 20.236
11.6995 20.461
11.7146 20.498
11.7298 20.515
11.7450 20.271
11.7602 20.068
11.7753 20.306
11.7905 20.215
11.8057 20.096
11.8209 20.052
11.8360 19.616
11.8512 19.929
11.8664 20.097
11.8816 20.051
11.8967 19.980
11.9119 19.843
11.9271 19.623
11.9423 19.485
11.9574 19.155
11.9726 19.161
11.9878 18.936
12.0030 18.956
12.0181 19.020
12.0333 18.900
12.0485 18.972
12.0637 18.971
12.0788 18.926
12.0940 18.666
12.1092 19.024
12.1244 18.818
12.1395 18.426
12.1547 18.359
12.1699 18.645
12.1851 18.771
12.2002 18.368
12.2154 18.057
12.2306 17.950
12.2458 17.908
12.2609 17.934
12.2761 17.694
12.2913 17.837
12.3065 17.953
12.3216 17.572
12.3368 17.305
12.3520 17.402
12.3672 17.428
12.3823 17.367
12.3975 17.291
12.4127 17.045
12.4279 16.962
12.4430 16.853
12.4582 16.831
12.4734 16.762
12.4886 16.968
12.5037 16.993
12.5189 16.956
12.5341 16.645
12.5493 16.442
12.5644 16.358
12.5796 16.523
12.5948 16.275
12.6100 15.930
12.6251 15.933
12.6403 16.108
12.6555 15.920
12.6707 15.827
12.6858 15.660
12.7010 15.567
12.7162 15.718
12.7314 15.648
12.7465 15.453
12.7617 15.438
12.7769 15.385
12.7921 15.316
12.8072 15.243
12.8224 15.132
12.8376 15.041
12.8528 15.029
12.8679 14.975
12.8831 14.924
12.8983 14.785
12.9135 14.731
12.9286 14.622
12.9438 14.469
12.9590 14.450
12.9742 14.476
12.9893 14.434
13.0045 14.298
13.0197 14.177
13.0349 14.160
13.0500 14.208
13.0652 14.074
13.0804 14.098
13.0956 14.055
13.1107 13.716
13.1259 13.701
13.1411 13.654
13.1563 13.457
13.1714 13.664
13.1866 13.704
13.2018 13.386
13.2170 13.495
13.2321 13.404
13.2473 13.050
13.2625 13.070
13.2777 13.281
13.2928 13.258
13.3080 13.265
13.3232 13.454
13.3384 13.138
13.3535 13.226
13.3687 13.258
13.3839 13.009
13.3991 13.148
13.4142 13.071
13.4294 13.062
13.4446 13.020
13.4598 12.794
13.4749 12.618
13.4901 12.550
13.5053 12.575
13.5205 12.408
13.5356 12.315
13.5508 12.342
13.5660 12.512
13.5812 12.451
13.5963 12.498
13.6115 12.561
13.6267 12.428
13.6419 12.469
13.6570 12.215
13.6722 12.029
13.6874 12.092
13.7026 12.197
13.7177 11.893
13.7329 12.055
13.7481 12.215
13.7633 12.169
13.7784 12.398
13.7936 12.101
13.8088 12.026
13.8239 12.257
13.8391 12.338
13.8543 12.478
13.8695 12.300
13.8846 12.114
13.8998 12.047
13.9150 12.140
13.9302 11.914
13.9453 11.859
13.9605 11.783
13.9757 11.679
13.9909 11.766
14.0060 11.822
14.0212 11.780
14.0364 11.508
14.0516 11.280
14.0667 11.593
14.0819 11.661
14.0971 11.685
14.1123 11.274
14.1274 11.630
14.1426 11.801
14.1578 11.730
14.1730 11.728
14.1881 11.810
14.2033 12.109
14.2185 12.052
14.2337 11.920
14.2488 11.881
14.2640 11.762
14.2792 11.997
14.2944 12.024
14.3095 11.992
14.3247 12.187
14.3399 12.504
14.3551 12.802
14.3702 12.956
14.3854 12.891
14.4006 13.105
14.4158 13.093
14.4309 12.818
14.4461 12.883
14.4613 12.588
14.4765 12.198
14.4916 12.511
14.5068 12.180
14.5220 11.782
14.5372 11.353
14.5523 11.018
14.5675 11.287
14.5827 11.184
14.5979 10.988
14.6130 11.180
14.6282 11.006
14.6434 10.695
14.6586 10.706
14.6737 10.428
14.6889 10.667
14.7041 11.076
14.7193 10.621
14.7344 10.473
14.7496 10.626
14.7648 10.350
14.7800 10.636
14.7951 10.790
14.8103 10.540
14.8255 10.652
14.8407 10.365
14.8558 10.483
14.8710 10.560
14.8862 10.498
14.9014 10.499
14.9165 10.605
14.9317 10.720
14.9469 10.482
14.9621 10.486
14.9772 10.334
14.9924 10.165
15.0076 10.215
15.0228 10.676
15.0379 10.364
15.0531 10.718
15.0683 10.177
15.0835 10.100
15.0986 10.067
15.1138 10.311
15.1290 10.269
15.1442 10.131
15.1593 10.191
15.1745 10.082
15.1897 10.130
15.2049 9.934
15.2200 10.386
15.2352 10.446
15.2504 10.071
15.2656 10.421
15.2807 10.323
15.2959 10.110
15.3111 10.138
15.3263 10.417
15.3414 10.073
15.3566 10.245
15.3718 10.073
15.3870 10.111
15.4021 10.228
15.4173 10.232
15.4325 10.316
15.4477 10.629
15.4628 10.403
15.4780 9.984
15.4932 10.311
15.5084 10.052
15.5235 10.088
15.5387 10.122
15.5539 10.017
15.5691 9.982
15.5842 9.909
15.5994 9.689
15.6146 9.771
15.6298 9.753
15.6449 9.858
15.6601 9.570
15.6753 9.536
15.6905 9.751
15.7056 9.656
15.7208 9.800
15.7360 9.581
15.7512 9.786
15.7663 9.913
15.7815 9.793
15.7967 9.713
15.8119 9.419
15.8270 9.914
15.8422 9.662
15.8574 9.713
15.8726 9.595
15.8877 9.817
15.9029 9.574
15.9181 9.399
15.9333 9.596
15.9484 9.594
15.9636 9.644
15.9788 9.710
15.9940 9.862
16.0091 9.602
16.0243 9.708
16.0395 9.773
16.0547 10.069
16.0698 9.675
16.0850 9.485
16.1002 9.712
16.1154 9.483
16.1305 9.930
16.1457 9.640
16.1609 9.656
16.1761 9.543
16.1912 9.610
16.2064 9.585
16.2216 9.779
16.2368 9.512
16.2519 9.629
16.2671 9.764
16.2823 9.816
16.2975 9.725
16.3126 9.817
16.3278 9.892
16.3430 9.972
16.3582 9.791
16.3733 9.908
16.3885 9.829
16.4037 9.801
16.4189 9.898
16.4340 9.856
16.4492 9.948
16.4644 9.844
16.4796 9.791
16.4947 9.915
16.5099 9.683
16.5251 9.620
16.5403 9.974
16.5554 9.798
16.5706 9.664
16.5858 9.714
16.6010 9.729
16.6161 9.694
16.6313 9.612
16.6465 9.614
16.6617 9.693
16.6768 9.707
16.6920 9.684
16.7072 9.938
16.7224 9.881
16.7375 9.841
16.7527 9.915
16.7679 9.749
16.7831 9.957
16.7982 9.951
16.8134 9.825
16.8286 9.597
16.8438 9.733
16.8589 9.895
16.8741 9.836
16.8893 9.746
16.9045 9.767
16.9196 9.870
16.9348 9.853
16.9500 9.688
16.9652 9.749
16.9803 9.864
16.9955 9.949
17.0107 9.968
17.0259 10.048
17.0410 10.088
17.0562 10.134
17.0714 10.283
17.0866 10.355
17.1017 10.512
17.1169 10.892
17.1321 11.070
17.1473 11.255
17.1624 11.671
17.1776 11.935
17.1928 12.918
17.2080 13.986
17.2231 14.796
17.2383 16.167
17.2535 17.551
17.2687 18.678
17.2838 18.969
17.2990 17.976
17.3142 16.889
17.3294 16.239
17.3445 15.952
17.3597 16.017
17.3749 15.868
17.3901 15.088
17.4052 14.040
17.4204 13.197
17.4356 12.512
17.4508 12.043
17.4659 11.817
17.4811 11.642
17.4963 11.434
17.5115 11.247
17.5266 11.092
17.5418 10.977
17.5570 10.923
17.5722 11.135
17.5873 11.283
17.6025 11.152
17.6177 11.167
17.6329 11.329
17.6480 11.363
17.6632 11.393
17.6784 11.533
17.6936 11.483
17.7087 11.427
17.7239 11.275
17.7391 10.964
17.7543 10.850
17.7694 10.967
17.7846 10.892
17.7998 10.746
17.8150 10.695
17.8301 10.418
17.8453 10.257
17.8605 10.394
17.8757 10.510
17.8908 10.311
17.9060 10.210
17.9212 10.170
17.9364 9.940
17.9515 9.939
17.9667 10.096
17.9819 10.319
17.9971 10.271
18.0122 10.220
18.0274 10.271
18.0426 10.288
18.0578 10.237
18.0729 10.321
18.0881 10.263
18.1033 10.041
18.1185 10.083
18.1336 10.289
18.1488 10.050
18.1640 9.821
18.1792 9.853
18.1943 9.958
18.2095 9.992
18.2247 9.883
18.2399 9.952
18.2550 10.127
18.2702 9.941
18.2854 10.011
18.3006 9.810
18.3157 9.612
18.3309 9.592
18.3461 9.778
18.3613 9.939
18.3764 9.936
18.3916 10.071
18.4068 9.917
18.4220 9.829
18.4371 9.854
18.4523 9.946
18.4675 9.770
18.4827 9.613
18.4978 9.803
18.5130 9.798
18.5282 9.918
18.5434 9.792
18.5585 9.740
18.5737 9.656
18.5889 9.589
18.6041 9.640
18.6192 9.806
18.6344 9.803
18.6496 9.750
18.6648 9.728
18.6799 9.690
18.6951 9.804
18.7103 9.975
18.7255 9.888
18.7406 9.672
18.7558 9.981
18.7710 10.155
18.7862 10.189
18.8013 10.030
18.8165 9.746
18.8317 9.816
18.8469 9.765
18.8620 9.777
18.8772 10.023
18.8924 10.054
18.9076 9.854
18.9227 10.066
18.9379 10.161
18.9531 10.143
18.9683 10.000
18.9834 9.854
18.9986 10.069
19.0138 10.022
19.0290 9.874
19.0441 10.090
19.0593 10.204
19.0745 10.185
19.0897 10.294
19.1048 10.351
19.1200 10.208
19.1352 10.258
19.1504 10.536
19.1655 10.628
19.1807 10.446
19.1959 10.496
19.2111 10.583
19.2262 10.721
19.2414 10.944
19.2566 10.840
19.2718 10.917
19.2869 10.886
19.3021 10.948
19.3173 11.135
19.3325 11.068
19.3476 11.032
19.3628 11.039
19.3780 10.844
19.3932 11.030
19.4083 11.271
19.4235 11.071
19.4387 11.021
19.4539 11.223
19.4690 11.249
19.4842 11.089
19.4994 11.245
19.5146 11.402
19.5297 11.496
19.5449 11.868
19.5601 11.641
19.5753 11.290
19.5904 11.424
19.6056 11.490
19.6208 11.667
19.6360 11.823
19.6511 11.767
19.6663 11.830
19.6815 11.692
19.6967 11.573
19.7118 11.627
19.7270 11.716
19.7422 11.703
19.7574 11.703
19.7725 11.691
19.7877 11.725
19.8029 11.943
19.8180 11.963
19.8332 12.100
19.8484 12.158
19.8636 12.351
19.8787 12.800
19.8939 12.912
19.9091 13.023
19.9243 13.480
19.9394 13.900
19.9546 14.259
19.9698 14.349
19.9850 14.346
20.0001 14.285
20.0153 14.198
20.0305 14.091
20.0457 13.919
20.0608 13.858
20.0760 13.731
20.0912 13.637
20.1064 13.449
20.1215 13.302
20.1367 13.312
20.1519 13.229
20.1671 13.001
20.1822 13.059
20.1974 13.051
20.2126 12.901
20.2278 12.830
20.2429 12.903
20.2581 12.522
20.2733 12.074
20.2885 11.864
20.3036 11.827
20.3188 11.737
20.3340 11.881
20.3492 12.147
20.3643 12.153
20.3795 11.921
20.3947 11.816
20.4099 11.932
20.4250 12.018
20.4402 11.918
20.4554 12.175
20.4706 12.007
20.4857 11.749
20.5009 11.730
20.5161 11.476
20.5313 11.516
20.5464 11.480
20.5616 11.409
20.5768 11.261
20.5920 11.138
20.6071 11.105
20.6223 10.773
20.6375 10.570
20.6527 10.539
20.6678 10.606
20.6830 10.676
20.6982 10.778
20.7134 10.499
20.7285 10.376
20.7437 10.190
20.7589 10.248
20.7741 10.044
20.7892 10.281
20.8044 10.274
20.8196 10.259
20.8348 10.078
20.8499 10.232
20.8651 10.256
20.8803 10.163
20.8955 10.333
20.9106 10.381
20.9258 10.213
20.9410 10.217
20.9562 9.944
20.9713 10.108
20.9865 10.061
21.0017 10.076
21.0169 10.194
21.0320 10.335
21.0472 9.994
21.0624 9.841
21.0776 10.006
21.0927 10.103
21.1079 9.974
21.1231 9.973
21.1383 10.036
21.1534 9.978
21.1686 9.892
21.1838 9.360
21.1990 10.189
21.2141 9.411
21.2293 9.757
21.2445 9.392
21.2597 9.716
21.2748 9.641
21.2900 9.799
21.3052 9.503
21.3204 9.347
21.3355 9.592
21.3507 9.540
21.3659 9.879
21.3811 9.537
21.3962 9.321
21.4114 9.706
21.4266 9.628
21.4418 9.357
21.4569 9.265
21.4721 9.533
21.4873 9.174
21.5025 9.345
21.5176 9.448
21.5328 9.625
21.5480 9.034
21.5632 9.239
21.5783 9.350
21.5935 9.394
21.6087 9.186
21.6239 9.133
21.6390 9.153
21.6542 9.400
21.6694 9.007
21.6846 9.149
21.6997 9.151
21.7149 9.143
21.7301 9.123
21.7453 9.116
21.7604 9.202
21.7756 9.105
21.7908 9.023
21.8060 8.908
21.8211 8.821
21.8363 9.058
21.8515 9.078
21.8667 8.994
21.8818 8.964
21.8970 8.810
21.9122 8.945
21.9274 8.964
21.9425 8.930
21.9577 8.864
21.9729 8.761
21.9881 8.879
22.0032 8.823
22.0184 8.713
22.0336 8.659
22.0488 8.814
22.0639 8.904
22.0791 8.843
22.0943 8.732
22.1095 8.684
22.1246 8.557
22.1398 8.487
22.1550 8.640
22.1702 8.722
22.1853 8.591
22.2005 8.512
22.2157 8.539
22.2309 8.651
22.2460 8.692
22.2612 8.786
22.2764 8.642
22.2916 8.458
22.3067 8.295
22.3219 8.511
22.3371 8.472
22.3523 8.670
22.3674 8.704
22.3826 8.591
22.3978 8.507
22.4130 8.762
22.4281 8.465
22.4433 8.665
22.4585 8.605
22.4737 8.544
22.4888 8.331
22.5040 8.251
22.5192 8.393
22.5344 8.599
22.5495 8.539
22.5647 8.336
22.5799 8.386
22.5951 8.301
22.6102 8.258
22.6254 8.425
22.6406 8.393
22.6558 8.551
22.6709 8.467
22.6861 8.342
22.7013 8.355
22.7165 7.922
22.7316 6.515
