'Id: "" Comment: "" Operator: "Lab Manager" Anode: "Mo" Scantype: "Still (Eiger2R_500K (1D mode))" TimePerStep: "300" X: "11.8" Y: "9.4" Z: "11.284" 
7.2532 18.959
7.2684 18.871
7.2836 18.963
7.2987 19.405
7.3139 19.506
7.3291 19.137
7.3443 19.178
7.3594 19.742
7.3746 19.536
7.3898 19.692
7.4050 19.970
7.4201 19.928
7.4353 19.604
7.4505 19.395
7.4657 19.409
7.4808 19.556
7.4960 19.741
7.5112 19.491
7.5264 19.994
7.5415 20.081
7.5567 20.046
7.5719 20.301
7.5871 20.204
7.6022 20.071
7.6174 20.283
7.6326 20.023
7.6478 20.319
7.6629 20.254
7.6781 19.854
7.6933 20.314
7.7085 20.514
7.7236 20.319
7.7388 20.642
7.7540 20.355
7.7692 20.168
7.7843 20.420
7.7995 20.392
7.8147 20.431
7.8299 20.690
7.8450 20.916
7.8602 20.892
7.8754 20.818
7.8905 20.924
7.9057 20.715
7.9209 20.914
7.9361 20.925
7.9512 20.832
7.9664 21.226
7.9816 21.183
7.9968 20.990
8.0119 21.346
8.0271 21.376
8.0423 21.164
8.0575 21.237
8.0726 21.559
8.0878 21.473
8.1030 21.397
8.1182 21.811
8.1333 21.514
8.1485 21.626
8.1637 21.520
8.1789 21.301
8.1940 21.829
8.2092 21.962
8.2244 21.516
8.2396 21.854
8.2547 21.741
8.2699 21.587
8.2851 22.077
8.3003 21.838
8.3154 21.688
8.3306 21.937
8.3458 22.092
8.3610 21.658
8.3761 22.154
8.3913 21.714
8.4065 22.155
8.4217 21.849
8.4368 21.883
8.4520 22.006
8.4672 22.424
8.4824 22.354
8.4975 22.087
8.5127 22.137
8.5279 21.997
8.5431 22.520
8.5582 21.990
8.5734 22.575
8.5886 21.736
8.6038 22.377
8.6189 22.649
8.6341 22.601
8.6493 22.293
8.6645 22.113
8.6796 22.959
8.6948 22.568
8.7100 22.362
8.7252 22.272
8.7403 22.236
8.7555 22.240
8.7707 22.251
8.7859 22.971
8.8010 22.353
8.8162 22.186
8.8314 22.207
8.8466 22.239
8.8617 22.379
8.8769 22.763
8.8921 22.945
8.9073 22.858
8.9224 22.568
8.9376 22.597
8.9528 22.678
8.9680 22.942
8.9831 22.785
8.9983 22.661
9.0135 22.822
9.0287 23.078
9.0438 22.876
9.0590 22.762
9.0742 22.638
9.0894 22.697
9.1045 22.769
9.1197 23.018
9.1349 22.613
9.1501 22.691
9.1652 22.643
9.1804 22.660
9.1956 22.965
9.2108 22.959
9.2259 22.671
9.2411 23.277
9.2563 23.109
9.2715 23.225
9.2866 23.088
9.3018 23.115
9.3170 23.052
9.3322 23.190
9.3473 23.122
9.3625 23.314
9.3777 23.044
9.3929 22.819
9.4080 23.232
9.4232 23.270
9.4384 22.943
9.4536 23.088
9.4687 23.206
9.4839 23.194
9.4991 23.355
9.5143 23.255
9.5294 23.283
9.5446 23.508
9.5598 23.599
9.5750 23.340
9.5901 23.295
9.6053 23.536
9.6205 23.637
9.6357 23.825
9.6508 23.544
9.6660 23.230
9.6812 23.545
9.6964 23.699
9.7115 23.801
9.7267 24.175
9.7419 24.052
9.7571 23.746
9.7722 24.003
9.7874 24.035
9.8026 24.074
9.8178 24.114
9.8329 23.682
9.8481 23.610
9.8633 23.919
9.8785 23.859
9.8936 23.759
9.9088 24.246
9.9240 24.431
9.9392 24.096
9.9543 24.288
9.9695 24.014
9.9847 23.677
9.9999 23.640
10.0150 23.451
10.0302 23.430
10.0454 23.629
10.0606 23.888
10.0757 24.062
10.0909 23.549
10.1061 23.489
10.1213 23.666
10.1364 23.608
10.1516 23.668
10.1668 23.921
10.1820 23.708
10.1971 23.345
10.2123 23.324
10.2275 23.604
10.2427 23.666
10.2578 23.469
10.2730 23.619
10.2882 23.626
10.3034 23.679
10.3185 23.549
10.3337 23.248
10.3489 23.209
10.3641 23.340
10.3792 23.271
10.3944 23.033
10.4096 23.426
10.4248 23.457
10.4399 23.222
10.4551 23.064
10.4703 23.122
10.4855 23.030
10.5006 23.359
10.5158 23.091
10.5310 22.981
10.5462 22.773
10.5613 22.453
10.5765 22.598
10.5917 22.597
10.6069 22.531
10.6220 22.671
10.6372 22.829
10.6524 22.788
10.6676 22.723
10.6827 22.902
10.6979 22.622
10.7131 22.456
10.7283 22.409
10.7434 22.124
10.7586 22.271
10.7738 22.412
10.7890 22.683
10.8041 22.490
10.8193 22.458
10.8345 22.363
10.8497 22.348
10.8648 22.361
10.8800 22.467
10.8952 22.262
10.9104 22.383
10.9255 21.919
10.9407 22.042
10.9559 22.028
10.9711 21.854
10.9862 21.940
11.0014 22.349
11.0166 22.216
11.0318 22.116
11.0469 21.910
11.0621 21.940
11.0773 21.892
11.0925 21.941
11.1076 22.138
11.1228 22.116
11.1380 21.945
11.1532 21.907
11.1683 21.397
11.1835 21.765
11.1987 21.946
11.2139 21.855
11.2290 21.766
11.2442 21.799
11.2594 21.468
11.2746 21.541
11.2897 21.278
11.3049 21.157
11.3201 21.461
11.3353 21.298
11.3504 21.454
11.3656 21.601
11.3808 21.349
11.3960 21.368
11.4111 21.488
11.4263 21.807
11.4415 21.470
11.4567 21.080
11.4718 21.574
11.4870 21.328
11.5022 20.958
11.5174 21.015
11.5325 21.124
11.5477 21.101
11.5629 21.214
11.5781 21.158
11.5932 21.425
11.6084 21.302
11.6236 21.181
11.6388 20.596
11.6539 20.571
11.6691 20.625
11.6843 20.715
11.6995 20.763
11.7146 20.515
11.7298 20.457
11.7450 20.390
11.7602 20.499
11.7753 20.132
11.7905 19.840
11.8057 19.788
11.8209 20.269
11.8360 20.129
11.8512 19.912
11.8664 19.698
11.8816 19.638
11.8967 19.780
11.9119 19.707
11.9271 19.536
11.9423 19.482
11.9574 19.614
11.9726 19.336
11.9878 19.098
12.0030 19.377
12.0181 19.644
12.0333 19.185
12.0485 19.126
12.0637 19.119
12.0788 18.698
12.0940 18.935
12.1092 18.757
12.1244 18.297
12.1395 18.194
12.1547 18.316
12.1699 18.297
12.1851 18.186
12.2002 18.417
12.2154 17.967
12.2306 17.719
12.2458 17.904
12.2609 17.986
12.2761 17.963
12.2913 17.710
12.3065 17.704
12.3216 17.425
12.3368 17.296
12.3520 17.291
12.3672 17.338
12.3823 17.384
12.3975 17.174
12.4127 17.025
12.4279 17.124
12.4430 16.914
12.4582 16.821
12.4734 16.871
12.4886 16.852
12.5037 16.788
12.5189 16.751
12.5341 16.801
12.5493 16.503
12.5644 16.260
12.5796 16.570
12.5948 16.399
12.6100 16.220
12.6251 16.006
12.6403 15.682
12.6555 15.976
12.6707 15.942
12.6858 15.573
12.7010 15.534
12.7162 15.412
12.7314 15.167
12.7465 15.328
12.7617 15.459
12.7769 15.335
12.7921 15.264
12.8072 15.116
12.8224 14.993
12.8376 14.857
12.8528 14.558
12.8679 14.603
12.8831 14.392
12.8983 14.512
12.9135 14.694
12.9286 14.610
12.9438 14.557
12.9590 14.478
12.9742 14.261
12.9893 14.120
13.0045 14.212
13.0197 14.244
13.0349 14.062
13.0500 13.929
13.0652 13.905
13.0804 13.806
13.0956 13.651
13.1107 13.647
13.1259 13.811
13.1411 13.684
13.1563 13.589
13.1714 13.645
13.1866 13.429
13.2018 13.356
13.2170 13.519
13.2321 13.287
13.2473 13.174
13.2625 13.319
13.2777 13.268
13.2928 13.174
13.3080 12.981
13.3232 13.012
13.3384 13.162
13.3535 13.169
13.3687 12.923
13.3839 12.731
13.3991 12.799
13.4142 12.843
13.4294 12.850
13.4446 13.058
13.4598 12.989
13.4749 12.503
13.4901 12.667
13.5053 12.841
13.5205 12.759
13.5356 12.768
13.5508 12.629
13.5660 12.316
13.5812 12.377
13.5963 12.363
13.6115 12.122
13.6267 12.023
13.6419 11.998
13.6570 12.009
13.6722 12.234
13.6874 12.100
13.7026 11.864
13.7177 11.881
13.7329 12.091
13.7481 11.927
13.7633 11.976
13.7784 12.070
13.7936 12.221
13.8088 12.231
13.8239 12.007
13.8391 12.191
13.8543 12.112
13.8695 12.057
13.8846 12.179
13.8998 12.050
13.9150 11.907
13.9302 12.010
13.9453 11.902
13.9605 11.555
13.9757 11.663
13.9909 11.518
14.0060 11.352
14.0212 11.462
14.0364 11.452
14.0516 11.281
14.0667 11.413
14.0819 11.549
14.0971 11.464
14.1123 11.394
14.1274 11.235
14.1426 11.158
14.1578 11.359
14.1730 11.496
14.1881 11.286
14.2033 11.418
14.2185 11.611
14.2337 11.197
14.2488 10.942
14.2640 11.155
14.2792 11.522
14.2944 11.337
14.3095 11.424
14.3247 11.576
14.3399 11.916
14.3551 12.074
14.3702 12.493
14.3854 12.661
14.4006 12.942
14.4158 13.244
14.4309 13.155
14.4461 13.603
14.4613 13.692
14.4765 13.270
14.4916 13.216
14.5068 13.745
14.5220 13.625
14.5372 13.299
14.5523 12.973
14.5675 12.928
14.5827 12.804
14.5979 12.700
14.6130 12.503
14.6282 12.065
14.6434 11.847
14.6586 11.750
14.6737 11.769
14.6889 11.539
14.7041 11.377
14.7193 11.287
14.7344 11.636
14.7496 11.379
14.7648 11.308
14.7800 11.355
14.7951 11.331
14.8103 11.679
14.8255 11.568
14.8407 11.279
14.8558 11.414
14.8710 11.173
14.8862 11.104
14.9014 11.153
14.9165 11.337
14.9317 11.129
14.9469 10.636
14.9621 10.970
14.9772 10.993
14.9924 10.632
15.0076 10.616
15.0228 10.804
15.0379 10.889
15.0531 10.484
15.0683 10.835
15.0835 10.215
15.0986 10.628
15.1138 10.717
15.1290 10.732
15.1442 10.500
15.1593 10.166
15.1745 10.259
15.1897 10.670
15.2049 10.143
15.2200 10.503
15.2352 10.458
15.2504 10.355
15.2656 10.667
15.2807 10.239
15.2959 10.407
15.3111 10.319
15.3263 10.216
15.3414 10.466
15.3566 10.550
15.3718 10.211
15.3870 10.130
15.4021 10.468
15.4173 10.723
15.4325 10.378
15.4477 10.349
15.4628 10.599
15.4780 10.611
15.4932 10.391
15.5084 10.071
15.5235 10.367
15.5387 10.758
15.5539 10.486
15.5691 10.005
15.5842 10.173
15.5994 10.096
15.6146 10.180
15.6298 10.301
15.6449 10.098
15.6601 10.034
15.6753 9.988
15.6905 10.328
15.7056 10.094
15.7208 10.056
15.7360 10.151
15.7512 10.007
15.7663 10.182
15.7815 10.180
15.7967 9.881
15.8119 9.836
15.8270 9.846
15.8422 10.022
15.8574 9.822
15.8726 9.649
15.8877 9.641
15.9029 9.709
15.9181 9.860
15.9333 10.085
15.9484 9.805
15.9636 9.796
15.9788 9.906
15.9940 9.943
16.0091 9.576
16.0243 9.520
16.0395 9.536
16.0547 9.713
16.0698 9.847
16.0850 9.726
16.1002 9.746
16.1154 9.674
16.1305 9.831
16.1457 9.588
16.1609 9.451
16.1761 9.595
16.1912 9.630
16.2064 9.555
16.2216 9.723
16.2368 9.973
16.2519 9.936
16.2671 10.006
16.2823 10.063
16.2975 10.113
16.3126 10.033
16.3278 10.155
16.3430 10.016
16.3582 10.312
16.3733 10.555
16.3885 10.524
16.4037 10.415
16.4189 10.149
16.4340 10.148
16.4492 10.033
16.4644 9.952
16.4796 9.518
16.4947 9.742
16.5099 10.060
16.5251 9.676
16.5403 9.868
16.5554 9.831
16.5706 9.935
16.5858 9.734
16.6010 9.386
16.6161 9.663
16.6313 9.911
16.6465 9.588
16.6617 9.528
16.6768 9.925
16.6920 10.101
16.7072 10.278
16.7224 10.274
16.7375 10.182
16.7527 10.290
16.7679 10.095
16.7831 10.012
16.7982 10.163
16.8134 10.191
16.8286 10.208
16.8438 9.943
16.8589 9.805
16.8741 9.950
16.8893 10.097
16.9045 9.958
16.9196 9.963
16.9348 10.145
16.9500 9.980
16.9652 9.756
16.9803 10.044
16.9955 10.186
17.0107 9.819
17.0259 9.925
17.0410 10.035
17.0562 10.074
17.0714 10.120
17.0866 10.289
17.1017 10.479
17.1169 10.586
17.1321 10.908
17.1473 11.465
17.1624 11.974
17.1776 12.315
17.1928 13.005
17.2080 13.873
17.2231 14.809
17.2383 16.108
17.2535 17.624
17.2687 18.643
17.2838 18.876
17.2990 18.156
17.3142 17.220
17.3294 16.492
17.3445 16.124
17.3597 16.369
17.3749 16.163
17.3901 15.230
17.4052 14.050
17.4204 12.929
17.4356 12.023
17.4508 11.707
17.4659 11.460
17.4811 11.180
17.4963 11.328
17.5115 11.140
17.5266 10.671
17.5418 10.575
17.5570 10.612
17.5722 10.497
17.5873 10.367
17.6025 10.260
17.6177 10.180
17.6329 10.103
17.6480 10.077
17.6632 10.022
17.6784 10.122
17.6936 10.130
17.7087 10.054
17.7239 10.276
17.7391 10.664
17.7543 10.792
17.7694 10.696
17.7846 11.055
17.7998 11.262
17.8150 11.657
17.8301 12.371
17.8453 12.642
17.8605 12.754
17.8757 12.919
17.8908 12.981
17.9060 12.665
17.9212 12.287
17.9364 12.044
17.9515 11.940
17.9667 11.862
17.9819 11.720
17.9971 11.307
18.0122 11.278
18.0274 10.988
18.0426 10.583
18.0578 10.270
18.0729 10.080
18.0881 9.965
18.1033 10.057
18.1185 10.194
18.1336 10.107
18.1488 10.051
18.1640 10.123
18.1792 10.150
18.1943 10.115
18.2095 9.892
18.2247 9.899
18.2399 10.117
18.2550 9.975
18.2702 9.880
18.2854 9.998
18.3006 10.166
18.3157 10.173
18.3309 10.213
18.3461 9.962
18.3613 9.891
18.3764 9.930
18.3916 9.816
18.4068 9.958
18.4220 10.044
18.4371 9.852
18.4523 9.746
18.4675 9.900
18.4827 10.355
18.4978 10.132
18.5130 9.807
18.5282 10.134
18.5434 10.168
18.5585 10.054
18.5737 10.213
18.5889 10.166
18.6041 10.199
18.6192 9.965
18.6344 9.998
18.6496 10.038
18.6648 9.855
18.6799 9.997
18.6951 9.945
18.7103 9.940
18.7255 10.045
18.7406 9.988
18.7558 9.878
18.7710 10.027
18.7862 10.075
18.8013 9.935
18.8165 9.737
18.8317 9.728
18.8469 9.830
18.8620 9.863
18.8772 10.046
18.8924 10.010
18.9076 9.865
18.9227 9.912
18.9379 10.054
18.9531 10.013
18.9683 10.124
18.9834 10.195
18.9986 10.218
19.0138 10.013
19.0290 10.051
19.0441 10.185
19.0593 10.445
19.0745 10.480
19.0897 10.510
19.1048 10.620
19.1200 10.597
19.1352 10.613
19.1504 10.582
19.1655 10.522
19.1807 10.475
19.1959 10.491
19.2111 10.644
19.2262 10.912
19.2414 10.901
19.2566 10.856
19.2718 10.968
19.2869 11.015
19.3021 10.956
19.3173 10.967
19.3325 11.206
19.3476 11.529
19.3628 11.320
19.3780 11.207
19.3932 11.345
19.4083 11.264
19.4235 11.392
19.4387 11.411
19.4539 11.379
19.4690 11.279
19.4842 11.127
19.4994 11.186
19.5146 11.408
19.5297 11.455
19.5449 11.527
19.5601 11.689
19.5753 11.526
19.5904 11.623
19.6056 11.781
19.6208 11.709
19.6360 11.811
19.6511 11.718
19.6663 11.629
19.6815 11.720
19.6967 11.650
19.7118 11.405
19.7270 11.594
19.7422 11.841
19.7574 11.754
19.7725 11.764
19.7877 11.749
19.8029 11.942
19.8180 12.167
19.8332 12.093
19.8484 12.244
19.8636 12.474
19.8787 12.769
19.8939 12.872
19.9091 13.208
19.9243 13.613
19.9394 13.797
19.9546 14.229
19.9698 14.440
19.9850 14.531
20.0001 14.597
20.0153 14.467
20.0305 14.292
20.0457 14.117
20.0608 13.942
20.0760 13.892
20.0912 13.964
20.1064 13.798
20.1215 13.562
20.1367 13.331
20.1519 13.037
20.1671 12.774
20.1822 12.635
20.1974 12.589
20.2126 12.512
20.2278 12.468
20.2429 12.407
20.2581 12.342
20.2733 11.892
20.2885 11.572
20.3036 11.662
20.3188 11.441
20.3340 11.504
20.3492 11.436
20.3643 11.476
20.3795 11.235
20.3947 11.089
20.4099 11.119
20.4250 10.994
20.4402 10.797
20.4554 10.989
20.4706 10.804
20.4857 10.646
20.5009 10.918
20.5161 11.082
20.5313 10.839
20.5464 10.676
20.5616 10.901
20.5768 11.055
20.5920 10.912
20.6071 10.804
20.6223 10.654
20.6375 10.613
20.6527 10.778
20.6678 10.787
20.6830 10.717
20.6982 10.752
20.7134 10.609
20.7285 10.756
20.7437 10.972
20.7589 10.715
20.7741 10.541
20.7892 10.812
20.8044 10.616
20.8196 10.850
20.8348 10.697
20.8499 10.547
20.8651 10.652
20.8803 10.543
20.8955 10.653
20.9106 10.797
20.9258 10.575
20.9410 10.391
20.9562 10.905
20.9713 10.753
20.9865 10.401
21.0017 10.706
21.0169 10.491
21.0320 10.495
21.0472 10.587
21.0624 10.479
21.0776 10.615
21.0927 10.504
21.1079 10.109
21.1231 10.489
21.1383 10.291
21.1534 10.175
21.1686 9.830
21.1838 9.907
21.1990 9.885
21.2141 9.630
21.2293 9.720
21.2445 9.901
21.2597 9.819
21.2748 9.814
21.2900 9.802
21.3052 9.583
21.3204 9.548
21.3355 9.534
21.3507 9.353
21.3659 9.449
21.3811 9.547
21.3962 9.545
21.4114 9.447
21.4266 9.347
21.4418 9.169
21.4569 9.460
21.4721 9.559
21.4873 9.311
21.5025 9.327
21.5176 9.357
21.5328 9.318
21.5480 9.045
21.5632 9.287
21.5783 9.418
21.5935 9.414
21.6087 9.020
21.6239 9.077
21.6390 9.101
21.6542 9.029
21.6694 9.164
21.6846 8.972
21.6997 9.109
21.7149 9.155
21.7301 9.239
21.7453 8.987
21.7604 8.859
21.7756 8.774
21.7908 9.013
21.8060 8.765
21.8211 8.966
21.8363 8.798
21.8515 8.803
21.8667 9.034
21.8818 9.096
21.8970 8.959
21.9122 9.006
21.9274 9.212
21.9425 9.009
21.9577 8.982
21.9729 9.016
21.9881 9.031
22.0032 8.833
22.0184 8.750
22.0336 8.736
22.0488 8.778
22.0639 8.628
22.0791 8.542
22.0943 8.646
22.1095 8.723
22.1246 8.670
22.1398 8.510
22.1550 8.678
22.1702 8.793
22.1853 8.547
22.2005 8.655
22.2157 8.642
22.2309 8.778
22.2460 8.585
22.2612 8.282
22.2764 8.370
22.2916 8.547
22.3067 8.699
22.3219 8.539
22.3371 8.518
22.3523 8.769
22.3674 8.896
22.3826 8.773
22.3978 8.507
22.4130 8.318
22.4281 8.556
22.4433 8.089
22.4585 8.298
22.4737 8.663
22.4888 8.453
22.5040 8.387
22.5192 8.618
22.5344 8.108
22.5495 8.681
22.5647 8.455
22.5799 8.590
22.5951 8.920
22.6102 8.695
22.6254 8.605
22.6406 8.544
22.6558 8.441
22.6709 8.380
22.6861 7.976
22.7013 8.262
22.7165 7.829
22.7316 6.532
