'Id: "" Comment: "" Operator: "Lab Manager" Anode: "Mo" Scantype: "Still (Eiger2R_500K (1D mode))" TimePerStep: "300" X: "11.8" Y: "9.4" Z: "11.284" 
7.2532 18.850
7.2684 18.412
7.2836 18.556
7.2987 18.550
7.3139 18.969
7.3291 19.297
7.3443 18.669
7.3594 19.540
7.3746 19.185
7.3898 19.189
7.4050 19.130
7.4201 19.592
7.4353 19.306
7.4505 18.957
7.4657 19.237
7.4808 19.345
7.4960 19.518
7.5112 19.843
7.5264 19.987
7.5415 19.826
7.5567 19.346
7.5719 19.513
7.5871 19.590
7.6022 19.790
7.6174 19.695
7.6326 19.846
7.6478 19.942
7.6629 19.679
7.6781 20.069
7.6933 20.040
7.7085 20.020
7.7236 20.379
7.7388 20.660
7.7540 20.468
7.7692 20.352
7.7843 20.306
7.7995 20.567
7.8147 21.040
7.8299 20.668
7.8450 20.311
7.8602 20.474
7.8754 20.858
7.8905 21.053
7.9057 20.714
7.9209 20.756
7.9361 20.894
7.9512 20.866
7.9664 20.764
7.9816 20.963
7.9968 21.258
8.0119 21.296
8.0271 20.935
8.0423 20.820
8.0575 21.090
8.0726 21.216
8.0878 21.056
8.1030 21.125
8.1182 21.177
8.1333 21.059
8.1485 21.170
8.1637 21.170
8.1789 21.477
8.1940 21.359
8.2092 21.553
8.2244 21.341
8.2396 21.332
8.2547 21.490
8.2699 21.534
8.2851 21.548
8.3003 21.501
8.3154 21.402
8.3306 21.585
8.3458 21.767
8.3610 21.440
8.3761 21.999
8.3913 21.580
8.4065 21.615
8.4217 21.863
8.4368 22.322
8.4520 21.349
8.4672 21.846
8.4824 21.746
8.4975 21.899
8.5127 22.260
8.5279 21.823
8.5431 21.943
8.5582 21.815
8.5734 21.875
8.5886 21.747
8.6038 22.612
8.6189 21.984
8.6341 21.824
8.6493 21.876
8.6645 21.915
8.6796 22.608
8.6948 22.411
8.7100 22.277
8.7252 22.434
8.7403 22.231
8.7555 22.162
8.7707 22.167
8.7859 21.953
8.8010 22.358
8.8162 22.174
8.8314 22.324
8.8466 22.346
8.8617 22.268
8.8769 22.188
8.8921 22.481
8.9073 22.360
8.9224 22.359
8.9376 22.630
8.9528 22.358
8.9680 22.389
8.9831 22.282
8.9983 21.970
9.0135 22.226
9.0287 22.609
9.0438 22.480
9.0590 22.497
9.0742 22.995
9.0894 22.937
9.1045 22.810
9.1197 22.508
9.1349 22.735
9.1501 22.595
9.1652 22.772
9.1804 22.787
9.1956 22.964
9.2108 22.952
9.2259 23.279
9.2411 22.720
9.2563 22.649
9.2715 23.127
9.2866 23.138
9.3018 22.857
9.3170 22.993
9.3322 23.302
9.3473 23.190
9.3625 23.035
9.3777 23.196
9.3929 23.079
9.4080 22.707
9.4232 22.657
9.4384 22.844
9.4536 22.690
9.4687 22.558
9.4839 22.858
9.4991 23.125
9.5143 22.938
9.5294 23.219
9.5446 23.030
9.5598 22.573
9.5750 23.193
9.5901 23.411
9.6053 23.326
9.6205 23.342
9.6357 23.321
9.6508 23.096
9.6660 23.114
9.6812 23.155
9.6964 23.330
9.7115 23.811
9.7267 23.687
9.7419 23.592
9.7571 23.831
9.7722 23.548
9.7874 23.406
9.8026 23.621
9.8178 23.538
9.8329 23.188
9.8481 23.249
9.8633 23.513
9.8785 23.737
9.8936 23.404
9.9088 23.072
9.9240 23.169
9.9392 22.875
9.9543 22.875
9.9695 23.069
9.9847 23.061
9.9999 23.155
10.0150 23.518
10.0302 23.367
10.0454 22.940
10.0606 22.995
10.0757 23.031
10.0909 23.041
10.1061 22.993
10.1213 23.173
10.1364 23.260
10.1516 23.335
10.1668 23.449
10.1820 23.684
10.1971 23.667
10.2123 23.116
10.2275 22.935
10.2427 22.927
10.2578 22.987
10.2730 22.897
10.2882 22.886
10.3034 22.839
10.3185 22.965
10.3337 22.693
10.3489 22.657
10.3641 22.719
10.3792 22.710
10.3944 22.755
10.4096 22.644
10.4248 22.413
10.4399 22.648
10.4551 22.466
10.4703 22.131
10.4855 22.432
10.5006 22.538
10.5158 22.437
10.5310 22.839
10.5462 22.499
10.5613 22.232
10.5765 22.227
10.5917 22.216
10.6069 22.437
10.6220 22.791
10.6372 22.578
10.6524 22.509
10.6676 22.381
10.6827 22.505
10.6979 22.351
10.7131 22.440
10.7283 22.267
10.7434 22.525
10.7586 22.642
10.7738 22.130
10.7890 22.197
10.8041 22.199
10.8193 22.172
10.8345 22.126
10.8497 21.854
10.8648 22.335
10.8800 22.339
10.8952 22.318
10.9104 22.244
10.9255 22.053
10.9407 22.135
10.9559 22.290
10.9711 21.890
10.9862 22.033
11.0014 22.123
11.0166 22.145
11.0318 22.168
11.0469 21.762
11.0621 21.590
11.0773 21.753
11.0925 21.610
11.1076 21.384
11.1228 21.559
11.1380 21.713
11.1532 21.993
11.1683 21.679
11.1835 21.828
11.1987 21.842
11.2139 21.658
11.2290 21.695
11.2442 21.434
11.2594 21.446
11.2746 21.408
11.2897 21.347
11.3049 21.395
11.3201 21.165
11.3353 21.281
11.3504 21.771
11.3656 21.744
11.3808 21.562
11.3960 21.370
11.4111 21.188
11.4263 20.981
11.4415 20.941
11.4567 21.234
11.4718 21.204
11.4870 21.281
11.5022 21.216
11.5174 20.864
11.5325 20.552
11.5477 21.042
11.5629 20.942
11.5781 20.936
11.5932 20.867
11.6084 20.693
11.6236 20.686
11.6388 20.786
11.6539 20.821
11.6691 20.788
11.6843 20.439
11.6995 20.504
11.7146 20.389
11.7298 20.440
11.7450 20.117
11.7602 20.309
11.7753 20.253
11.7905 20.318
11.8057 20.049
11.8209 19.829
11.8360 19.680
11.8512 19.609
11.8664 19.706
11.8816 19.609
11.8967 19.769
11.9119 19.599
11.9271 19.248
11.9423 19.447
11.9574 19.555
11.9726 19.326
11.9878 19.352
12.0030 19.260
12.0181 18.905
12.0333 18.890
12.0485 18.654
12.0637 18.538
12.0788 18.750
12.0940 18.801
12.1092 18.510
12.1244 18.309
12.1395 18.367
12.1547 18.298
12.1699 18.381
12.1851 18.224
12.2002 18.258
12.2154 18.110
12.2306 17.960
12.2458 18.096
12.2609 18.227
12.2761 17.717
12.2913 17.668
12.3065 17.715
12.3216 17.530
12.3368 17.165
12.3520 17.376
12.3672 17.404
12.3823 17.115
12.3975 16.874
12.4127 17.238
12.4279 16.997
12.4430 16.883
12.4582 17.053
12.4734 17.086
12.4886 16.728
12.5037 16.625
12.5189 16.520
12.5341 16.080
12.5493 16.274
12.5644 16.298
12.5796 16.159
12.5948 16.280
12.6100 16.172
12.6251 16.149
12.6403 15.893
12.6555 15.625
12.6707 15.589
12.6858 15.827
12.7010 15.791
12.7162 15.552
12.7314 15.461
12.7465 15.224
12.7617 15.325
12.7769 15.393
12.7921 15.479
12.8072 15.245
12.8224 15.006
12.8376 14.971
12.8528 14.840
12.8679 14.812
12.8831 14.896
12.8983 14.712
12.9135 14.502
12.9286 14.385
12.9438 14.442
12.9590 14.325
12.9742 14.158
12.9893 14.190
13.0045 14.031
13.0197 13.925
13.0349 13.912
13.0500 13.742
13.0652 13.892
13.0804 13.924
13.0956 13.721
13.1107 13.885
13.1259 14.102
13.1411 13.848
13.1563 13.479
13.1714 13.446
13.1866 13.360
13.2018 13.215
13.2170 13.324
13.2321 13.408
13.2473 13.341
13.2625 13.385
13.2777 13.267
13.2928 13.278
13.3080 13.367
13.3232 13.183
13.3384 13.061
13.3535 12.946
13.3687 12.742
13.3839 12.754
13.3991 12.939
13.4142 13.043
13.4294 12.942
13.4446 12.658
13.4598 12.715
13.4749 12.711
13.4901 12.820
13.5053 12.610
13.5205 12.413
13.5356 12.471
13.5508 12.292
13.5660 12.243
13.5812 12.180
13.5963 12.010
13.6115 11.966
13.6267 12.019
13.6419 12.002
13.6570 12.172
13.6722 11.954
13.6874 12.094
13.7026 12.008
13.7177 11.875
13.7329 11.769
13.7481 12.060
13.7633 12.101
13.7784 12.244
13.7936 12.008
13.8088 12.108
13.8239 12.236
13.8391 12.284
13.8543 12.325
13.8695 12.328
13.8846 12.083
13.8998 12.012
13.9150 11.969
13.9302 12.025
13.9453 12.092
13.9605 12.130
13.9757 11.802
13.9909 11.680
14.0060 11.451
14.0212 11.622
14.0364 11.643
14.0516 11.720
14.0667 11.512
14.0819 11.569
14.0971 11.572
14.1123 11.479
14.1274 11.320
14.1426 11.256
14.1578 11.652
14.1730 11.513
14.1881 11.435
14.2033 11.426
14.2185 11.519
14.2337 11.617
14.2488 11.780
14.2640 11.464
14.2792 11.925
14.2944 12.059
14.3095 12.164
14.3247 12.210
14.3399 12.153
14.3551 12.579
14.3702 12.875
14.3854 13.251
14.4006 13.544
14.4158 13.292
14.4309 13.397
14.4461 13.111
14.4613 12.831
14.4765 12.579
14.4916 12.679
14.5068 12.261
14.5220 12.155
14.5372 11.578
14.5523 11.353
14.5675 11.041
14.5827 11.459
14.5979 11.098
14.6130 10.975
14.6282 10.847
14.6434 10.444
14.6586 10.757
14.6737 11.029
14.6889 10.749
14.7041 10.729
14.7193 10.661
14.7344 10.733
14.7496 10.713
14.7648 10.775
14.7800 10.472
14.7951 10.562
14.8103 10.343
14.8255 10.457
14.8407 10.475
14.8558 10.354
14.8710 10.295
14.8862 10.386
14.9014 10.526
14.9165 10.666
14.9317 10.513
14.9469 10.547
14.9621 10.580
14.9772 10.070
14.9924 10.109
15.0076 10.504
15.0228 10.098
15.0379 10.185
15.0531 10.348
15.0683 10.342
15.0835 10.455
15.0986 9.889
15.1138 10.245
15.1290 9.933
15.1442 10.396
15.1593 10.084
15.1745 10.435
15.1897 10.063
15.2049 10.039
15.2200 10.082
15.2352 10.291
15.2504 10.357
15.2656 9.909
15.2807 10.065
15.2959 9.997
15.3111 10.094
15.3263 9.707
15.3414 10.152
15.3566 9.981
15.3718 9.870
15.3870 9.830
15.4021 9.907
15.4173 10.417
15.4325 10.301
15.4477 10.343
15.4628 10.164
15.4780 10.307
15.4932 10.016
15.5084 9.818
15.5235 9.624
15.5387 9.696
15.5539 9.797
15.5691 9.912
15.5842 9.974
15.5994 9.850
15.6146 10.041
15.6298 9.912
15.6449 9.580
15.6601 9.649
15.6753 9.904
15.6905 9.783
15.7056 9.775
15.7208 9.500
15.7360 9.824
15.7512 9.736
15.7663 9.812
15.7815 10.050
15.7967 9.739
15.8119 9.773
15.8270 9.488
15.8422 9.448
15.8574 9.528
15.8726 9.682
15.8877 9.715
15.9029 9.563
15.9181 9.125
15.9333 9.403
15.9484 9.529
15.9636 9.469
15.9788 9.693
15.9940 9.996
16.0091 9.677
16.0243 9.559
16.0395 9.527
16.0547 9.480
16.0698 9.368
16.0850 9.650
16.1002 9.616
16.1154 9.595
16.1305 9.540
16.1457 9.337
16.1609 9.608
16.1761 9.602
16.1912 9.792
16.2064 9.947
16.2216 10.159
16.2368 9.876
16.2519 9.788
16.2671 9.689
16.2823 9.517
16.2975 9.642
16.3126 9.867
16.3278 9.828
16.3430 10.001
16.3582 9.888
16.3733 9.538
16.3885 9.620
16.4037 9.550
16.4189 9.854
16.4340 9.759
16.4492 9.639
16.4644 9.569
16.4796 9.690
16.4947 9.768
16.5099 9.730
16.5251 9.653
16.5403 9.584
16.5554 9.607
16.5706 9.587
16.5858 9.911
16.6010 9.710
16.6161 9.683
16.6313 9.681
16.6465 9.583
16.6617 9.763
16.6768 9.660
16.6920 9.485
16.7072 9.874
16.7224 9.931
16.7375 10.021
16.7527 9.887
16.7679 9.716
16.7831 9.694
16.7982 9.707
16.8134 9.876
16.8286 9.950
16.8438 9.806
16.8589 9.636
16.8741 9.492
16.8893 9.622
16.9045 9.649
16.9196 9.688
16.9348 9.783
16.9500 9.852
16.9652 9.715
16.9803 9.868
16.9955 10.180
17.0107 9.969
17.0259 9.779
17.0410 9.903
17.0562 10.094
17.0714 10.245
17.0866 10.451
17.1017 10.718
17.1169 10.910
17.1321 10.976
17.1473 11.146
17.1624 11.661
17.1776 12.175
17.1928 13.166
17.2080 13.986
17.2231 14.873
17.2383 16.276
17.2535 17.229
17.2687 18.075
17.2838 18.370
17.2990 17.695
17.3142 16.862
17.3294 16.144
17.3445 15.753
17.3597 15.773
17.3749 15.563
17.3901 15.175
17.4052 14.419
17.4204 13.334
17.4356 12.361
17.4508 11.782
17.4659 11.743
17.4811 11.622
17.4963 11.485
17.5115 11.267
17.5266 10.998
17.5418 10.676
17.5570 10.788
17.5722 11.074
17.5873 10.958
17.6025 11.134
17.6177 11.116
17.6329 11.184
17.6480 11.314
17.6632 11.355
17.6784 11.836
17.6936 11.943
17.7087 11.747
17.7239 11.616
17.7391 11.469
17.7543 11.512
17.7694 11.285
17.7846 11.172
17.7998 11.170
17.8150 11.091
17.8301 10.886
17.8453 10.681
17.8605 10.408
17.8757 10.098
17.8908 10.220
17.9060 10.458
17.9212 10.232
17.9364 10.022
17.9515 10.053
17.9667 10.130
17.9819 10.273
17.9971 10.113
18.0122 10.084
18.0274 10.083
18.0426 10.167
18.0578 10.042
18.0729 9.966
18.0881 9.864
18.1033 9.791
18.1185 9.981
18.1336 9.837
18.1488 9.886
18.1640 9.836
18.1792 9.969
18.1943 10.165
18.2095 9.973
18.2247 9.883
18.2399 10.071
18.2550 10.026
18.2702 10.131
18.2854 10.203
18.3006 10.157
18.3157 9.977
18.3309 9.797
18.3461 9.655
18.3613 9.945
18.3764 9.957
18.3916 9.630
18.4068 9.687
18.4220 9.896
18.4371 9.771
18.4523 9.553
18.4675 9.797
18.4827 9.822
18.4978 9.812
18.5130 9.826
18.5282 9.747
18.5434 9.688
18.5585 9.740
18.5737 9.704
18.5889 9.516
18.6041 9.623
18.6192 9.811
18.6344 9.815
18.6496 9.828
18.6648 9.691
18.6799 9.780
18.6951 9.846
18.7103 9.776
18.7255 9.799
18.7406 9.751
18.7558 10.057
18.7710 10.096
18.7862 9.892
18.8013 9.801
18.8165 9.887
18.8317 9.882
18.8469 9.854
18.8620 9.886
18.8772 10.053
18.8924 9.997
18.9076 9.968
18.9227 9.904
18.9379 9.928
18.9531 10.029
18.9683 9.967
18.9834 10.050
18.9986 10.178
19.0138 10.041
19.0290 9.878
19.0441 10.011
19.0593 10.343
19.0745 10.181
19.0897 10.189
19.1048 10.244
19.1200 10.371
19.1352 10.482
19.1504 10.470
19.1655 10.469
19.1807 10.696
19.1959 10.727
19.2111 10.663
19.2262 10.637
19.2414 10.723
19.2566 10.914
19.2718 10.751
19.2869 10.656
19.3021 10.885
19.3173 11.000
19.3325 10.950
19.3476 11.000
19.3628 10.965
19.3780 11.026
19.3932 11.074
19.4083 11.083
19.4235 11.182
19.4387 11.222
19.4539 11.255
19.4690 11.236
19.4842 11.177
19.4994 11.306
19.5146 11.644
19.5297 11.462
19.5449 11.498
19.5601 11.611
19.5753 11.528
19.5904 11.615
19.6056 11.551
19.6208 11.561
19.6360 11.759
19.6511 11.806
19.6663 11.746
19.6815 11.684
19.6967 11.843
19.7118 12.022
19.7270 11.881
19.7422 11.718
19.7574 11.632
19.7725 11.906
19.7877 11.965
19.8029 11.938
19.8180 12.152
19.8332 12.272
19.8484 12.148
19.8636 12.197
19.8787 12.547
19.8939 12.941
19.9091 13.223
19.9243 13.369
19.9394 13.804
19.9546 13.969
19.9698 14.079
19.9850 14.453
20.0001 14.303
20.0153 14.034
20.0305 13.777
20.0457 13.598
20.0608 13.615
20.0760 13.621
20.0912 13.763
20.1064 13.707
20.1215 13.530
20.1367 13.210
20.1519 12.933
20.1671 13.006
20.1822 12.824
20.1974 12.619
20.2126 12.966
20.2278 12.928
20.2429 12.726
20.2581 12.339
20.2733 12.120
20.2885 12.233
20.3036 12.052
20.3188 12.098
20.3340 11.971
20.3492 11.896
20.3643 11.943
20.3795 11.883
20.3947 11.800
20.4099 11.927
20.4250 11.770
20.4402 11.870
20.4554 11.765
20.4706 11.883
20.4857 11.999
20.5009 11.929
20.5161 11.897
20.5313 11.520
20.5464 11.715
20.5616 11.655
20.5768 11.274
20.5920 11.705
20.6071 11.464
20.6223 11.294
20.6375 11.179
20.6527 10.869
20.6678 10.816
20.6830 10.971
20.6982 10.993
20.7134 10.252
20.7285 10.303
20.7437 10.474
20.7589 10.833
20.7741 10.481
20.7892 10.427
20.8044 10.459
20.8196 10.493
20.8348 10.103
20.8499 10.319
20.8651 10.436
20.8803 10.580
20.8955 10.270
20.9106 10.327
20.9258 10.362
20.9410 10.185
20.9562 9.947
20.9713 9.833
20.9865 9.874
21.0017 9.900
21.0169 10.124
21.0320 9.775
21.0472 10.028
21.0624 9.954
21.0776 9.983
21.0927 10.200
21.1079 9.751
21.1231 10.046
21.1383 10.106
21.1534 9.605
21.1686 10.083
21.1838 9.980
21.1990 9.643
21.2141 9.915
21.2293 9.921
21.2445 9.688
21.2597 9.672
21.2748 9.495
21.2900 9.830
21.3052 9.713
21.3204 9.693
21.3355 9.646
21.3507 9.713
21.3659 9.667
21.3811 9.439
21.3962 9.363
21.4114 9.504
21.4266 9.471
21.4418 9.489
21.4569 9.179
21.4721 9.529
21.4873 9.313
21.5025 9.355
21.5176 9.445
21.5328 9.343
21.5480 9.308
21.5632 9.417
21.5783 9.111
21.5935 9.292
21.6087 9.309
21.6239 9.403
21.6390 9.415
21.6542 9.316
21.6694 9.228
21.6846 9.143
21.6997 9.217
21.7149 9.123
21.7301 9.184
21.7453 9.126
21.7604 8.820
21.7756 8.720
21.7908 8.900
21.8060 9.025
21.8211 9.033
21.8363 9.056
21.8515 8.922
21.8667 9.028
21.8818 9.216
21.8970 9.291
21.9122 9.233
21.9274 9.137
21.9425 8.937
21.9577 8.824
21.9729 8.942
21.9881 8.882
22.0032 8.774
22.0184 8.853
22.0336 8.986
22.0488 8.878
22.0639 8.833
22.0791 8.865
22.0943 8.726
22.1095 8.703
22.1246 8.656
22.1398 8.722
22.1550 8.655
22.1702 8.863
22.1853 8.869
22.2005 8.750
22.2157 8.653
22.2309 8.566
22.2460 8.392
22.2612 8.517
22.2764 8.564
22.2916 8.574
22.3067 8.680
22.3219 8.639
22.3371 8.619
22.3523 8.667
22.3674 8.575
22.3826 8.479
22.3978 8.352
22.4130 8.194
22.4281 8.371
22.4433 8.622
22.4585 8.449
22.4737 8.116
22.4888 8.348
22.5040 8.217
22.5192 8.506
22.5344 8.231
22.5495 8.220
22.5647 8.298
22.5799 8.478
22.5951 8.374
22.6102 8.189
22.6254 8.489
22.6406 8.173
22.6558 8.205
22.6709 8.510
22.6861 8.394
22.7013 8.333
22.7165 8.066
22.7316 6.584
