'Id: "" Comment: "" Operator: "Lab Manager" Anode: "Mo" Scantype: "Still (Eiger2R_500K (1D mode))" TimePerStep: "300" X: "11.8" Y: "9.4" Z: "11.284" 
7.2532 19.150
7.2684 18.798
7.2836 19.207
7.2987 18.957
7.3139 19.143
7.3291 19.046
7.3443 19.534
7.3594 19.293
7.3746 19.385
7.3898 19.453
7.4050 19.810
7.4201 19.552
7.4353 19.549
7.4505 19.544
7.4657 19.757
7.4808 19.820
7.4960 19.912
7.5112 19.769
7.5264 19.461
7.5415 19.982
7.5567 19.999
7.5719 19.798
7.5871 19.672
7.6022 19.934
7.6174 20.125
7.6326 20.189
7.6478 20.116
7.6629 20.214
7.6781 20.114
7.6933 20.129
7.7085 20.156
7.7236 19.894
7.7388 20.163
7.7540 20.625
7.7692 20.619
7.7843 20.677
7.7995 20.737
7.8147 20.737
7.8299 21.133
7.8450 21.209
7.8602 20.774
7.8754 20.890
7.8905 20.844
7.9057 20.676
7.9209 20.785
7.9361 20.914
7.9512 20.993
7.9664 20.934
7.9816 21.137
7.9968 21.012
8.0119 21.087
8.0271 21.225
8.0423 20.864
8.0575 21.104
8.0726 21.474
8.0878 21.392
8.1030 21.713
8.1182 21.494
8.1333 21.628
8.1485 21.423
8.1637 21.596
8.1789 21.558
8.1940 21.774
8.2092 21.736
8.2244 21.781
8.2396 21.838
8.2547 21.758
8.2699 21.597
8.2851 21.410
8.3003 21.893
8.3154 21.672
8.3306 21.962
8.3458 21.875
8.3610 21.666
8.3761 21.775
8.3913 22.234
8.4065 21.925
8.4217 21.995
8.4368 22.031
8.4520 21.734
8.4672 22.277
8.4824 22.522
8.4975 22.156
8.5127 22.135
8.5279 22.531
8.5431 22.108
8.5582 22.152
8.5734 22.171
8.5886 22.668
8.6038 22.513
8.6189 22.272
8.6341 21.976
8.6493 21.925
8.6645 22.239
8.6796 22.249
8.6948 22.128
8.7100 22.868
8.7252 22.346
8.7403 22.153
8.7555 22.554
8.7707 22.377
8.7859 23.001
8.8010 22.788
8.8162 22.785
8.8314 22.526
8.8466 22.573
8.8617 22.411
8.8769 22.733
8.8921 22.675
8.9073 22.466
8.9224 22.841
8.9376 22.675
8.9528 22.896
8.9680 22.750
8.9831 22.740
8.9983 22.481
9.0135 22.806
9.0287 23.112
9.0438 22.828
9.0590 22.905
9.0742 22.504
9.0894 22.709
9.1045 23.080
9.1197 22.845
9.1349 22.545
9.1501 23.295
9.1652 22.788
9.1804 22.911
9.1956 23.307
9.2108 22.936
9.2259 22.730
9.2411 23.191
9.2563 23.414
9.2715 23.446
9.2866 22.973
9.3018 22.894
9.3170 23.117
9.3322 22.845
9.3473 22.922
9.3625 22.769
9.3777 22.722
9.3929 23.143
9.4080 23.043
9.4232 23.039
9.4384 23.312
9.4536 23.362
9.4687 23.375
9.4839 23.394
9.4991 23.422
9.5143 23.248
9.5294 23.338
9.5446 23.582
9.5598 23.341
9.5750 23.269
9.5901 23.360
9.6053 23.120
9.6205 23.023
9.6357 23.520
9.6508 23.771
9.6660 23.723
9.6812 23.801
9.6964 23.824
9.7115 23.905
9.7267 24.114
9.7419 24.219
9.7571 24.158
9.7722 23.923
9.7874 23.688
9.8026 23.622
9.8178 23.991
9.8329 24.177
9.8481 23.756
9.8633 23.659
9.8785 23.632
9.8936 23.599
9.9088 23.885
9.9240 23.842
9.9392 23.600
9.9543 23.397
9.9695 23.310
9.9847 23.435
9.9999 23.380
10.0150 23.499
10.0302 23.287
10.0454 23.274
10.0606 23.110
10.0757 22.974
10.0909 23.113
10.1061 22.964
10.1213 23.297
10.1364 23.383
10.1516 23.142
10.1668 23.181
10.1820 23.268
10.1971 23.215
10.2123 23.154
10.2275 23.046
10.2427 23.194
10.2578 23.231
10.2730 23.286
10.2882 23.482
10.3034 23.258
10.3185 23.128
10.3337 23.006
10.3489 22.980
10.3641 23.195
10.3792 23.464
10.3944 23.287
10.4096 23.443
10.4248 22.891
10.4399 22.608
10.4551 23.033
10.4703 23.010
10.4855 22.961
10.5006 23.051
10.5158 22.555
10.5310 22.133
10.5462 22.681
10.5613 22.581
10.5765 22.578
10.5917 22.509
10.6069 22.814
10.6220 22.772
10.6372 22.876
10.6524 22.953
10.6676 22.749
10.6827 22.621
10.6979 22.583
10.7131 22.952
10.7283 22.597
10.7434 22.344
10.7586 22.265
10.7738 22.022
10.7890 22.171
10.8041 22.207
10.8193 22.256
10.8345 21.879
10.8497 22.094
10.8648 22.376
10.8800 22.101
10.8952 21.977
10.9104 22.465
10.9255 22.443
10.9407 22.580
10.9559 22.264
10.9711 22.038
10.9862 21.793
11.0014 21.847
11.0166 22.169
11.0318 22.829
11.0469 22.395
11.0621 22.262
11.0773 22.361
11.0925 22.124
11.1076 21.960
11.1228 21.792
11.1380 22.219
11.1532 21.960
11.1683 21.741
11.1835 21.878
11.1987 21.901
11.2139 21.593
11.2290 21.557
11.2442 21.837
11.2594 22.153
11.2746 21.593
11.2897 21.511
11.3049 21.649
11.3201 21.673
11.3353 21.662
11.3504 21.839
11.3656 21.702
11.3808 21.822
11.3960 21.888
11.4111 21.117
11.4263 21.067
11.4415 21.346
11.4567 21.464
11.4718 21.269
11.4870 21.578
11.5022 21.144
11.5174 21.063
11.5325 21.534
11.5477 21.437
11.5629 20.970
11.5781 21.029
11.5932 20.924
11.6084 20.801
11.6236 20.568
11.6388 20.928
11.6539 20.800
11.6691 20.848
11.6843 20.847
11.6995 20.858
11.7146 20.637
11.7298 20.262
11.7450 20.565
11.7602 20.460
11.7753 20.353
11.7905 20.431
11.8057 20.145
11.8209 20.053
11.8360 19.915
11.8512 19.853
11.8664 19.738
11.8816 19.645
11.8967 19.375
11.9119 19.308
11.9271 19.778
11.9423 19.582
11.9574 19.346
11.9726 19.370
11.9878 19.427
12.0030 19.267
12.0181 18.956
12.0333 18.861
12.0485 18.862
12.0637 18.894
12.0788 19.091
12.0940 19.188
12.1092 19.174
12.1244 18.807
12.1395 18.696
12.1547 18.942
12.1699 18.927
12.1851 18.630
12.2002 18.374
12.2154 18.278
12.2306 18.291
12.2458 18.478
12.2609 18.193
12.2761 17.697
12.2913 17.490
12.3065 17.734
12.3216 17.830
12.3368 17.815
12.3520 17.742
12.3672 17.280
12.3823 17.403
12.3975 17.401
12.4127 17.256
12.4279 17.060
12.4430 16.992
12.4582 16.910
12.4734 16.930
12.4886 17.064
12.5037 16.933
12.5189 16.551
12.5341 16.458
12.5493 16.336
12.5644 16.449
12.5796 16.476
12.5948 16.377
12.6100 16.126
12.6251 16.010
12.6403 15.749
12.6555 15.576
12.6707 15.706
12.6858 15.948
12.7010 16.071
12.7162 15.784
12.7314 15.380
12.7465 15.344
12.7617 15.190
12.7769 15.180
12.7921 15.229
12.8072 15.164
12.8224 15.136
12.8376 15.050
12.8528 14.797
12.8679 14.985
12.8831 15.110
12.8983 14.879
12.9135 14.613
12.9286 14.783
12.9438 14.875
12.9590 14.517
12.9742 14.359
12.9893 14.418
13.0045 14.255
13.0197 14.134
13.0349 14.167
13.0500 14.235
13.0652 14.093
13.0804 13.936
13.0956 13.926
13.1107 13.990
13.1259 13.907
13.1411 13.598
13.1563 13.549
13.1714 13.568
13.1866 13.454
13.2018 13.581
13.2170 13.628
13.2321 13.490
13.2473 13.366
13.2625 13.322
13.2777 13.430
13.2928 13.273
13.3080 12.965
13.3232 12.863
13.3384 13.104
13.3535 13.248
13.3687 13.174
13.3839 13.032
13.3991 12.997
13.4142 13.030
13.4294 12.814
13.4446 12.860
13.4598 12.996
13.4749 12.650
13.4901 12.691
13.5053 12.486
13.5205 12.361
13.5356 12.380
13.5508 12.392
13.5660 12.530
13.5812 12.547
13.5963 12.457
13.6115 12.392
13.6267 12.610
13.6419 12.346
13.6570 12.134
13.6722 12.191
13.6874 12.107
13.7026 11.962
13.7177 12.184
13.7329 12.248
13.7481 12.190
13.7633 12.333
13.7784 12.203
13.7936 12.220
13.8088 12.189
13.8239 12.121
13.8391 12.382
13.8543 12.508
13.8695 12.317
13.8846 12.257
13.8998 12.245
13.9150 12.001
13.9302 12.124
13.9453 11.896
13.9605 11.918
13.9757 11.824
13.9909 11.531
14.0060 11.729
14.0212 11.806
14.0364 11.645
14.0516 11.525
14.0667 11.794
14.0819 11.728
14.0971 11.673
14.1123 11.513
14.1274 11.304
14.1426 11.351
14.1578 11.451
14.1730 11.337
14.1881 11.409
14.2033 11.470
14.2185 11.286
14.2337 11.345
14.2488 11.540
14.2640 11.458
14.2792 11.289
14.2944 11.320
14.3095 11.653
14.3247 11.632
14.3399 11.992
14.3551 11.844
14.3702 11.993
14.3854 12.565
14.4006 12.750
14.4158 12.692
14.4309 13.115
14.4461 12.728
14.4613 12.441
14.4765 12.345
14.4916 12.210
14.5068 12.275
14.5220 12.285
14.5372 11.695
14.5523 11.455
14.5675 11.637
14.5827 11.720
14.5979 11.559
14.6130 11.299
14.6282 11.175
14.6434 10.964
14.6586 10.874
14.6737 11.266
14.6889 11.107
14.7041 11.527
14.7193 10.985
14.7344 10.954
14.7496 10.992
14.7648 10.876
14.7800 11.359
14.7951 10.921
14.8103 11.247
14.8255 11.073
14.8407 10.760
14.8558 10.766
14.8710 11.190
14.8862 10.951
14.9014 10.903
14.9165 10.980
14.9317 11.031
14.9469 11.042
14.9621 10.970
14.9772 10.500
14.9924 10.530
15.0076 10.678
15.0228 10.688
15.0379 10.364
15.0531 10.535
15.0683 10.499
15.0835 10.104
15.0986 10.332
15.1138 10.516
15.1290 10.725
15.1442 10.598
15.1593 10.478
15.1745 10.651
15.1897 10.805
15.2049 10.622
15.2200 10.263
15.2352 10.355
15.2504 10.520
15.2656 10.172
15.2807 10.578
15.2959 10.078
15.3111 10.514
15.3263 10.558
15.3414 10.302
15.3566 10.477
15.3718 10.169
15.3870 10.412
15.4021 10.435
15.4173 10.396
15.4325 10.191
15.4477 10.205
15.4628 10.288
15.4780 10.591
15.4932 10.448
15.5084 10.173
15.5235 10.318
15.5387 10.469
15.5539 10.217
15.5691 10.332
15.5842 10.062
15.5994 10.615
15.6146 10.140
15.6298 10.213
15.6449 10.009
15.6601 10.262
15.6753 10.028
15.6905 10.191
15.7056 10.367
15.7208 9.991
15.7360 9.890
15.7512 9.855
15.7663 9.693
15.7815 9.906
15.7967 9.821
15.8119 9.901
15.8270 9.907
15.8422 10.134
15.8574 10.045
15.8726 9.946
15.8877 9.809
15.9029 9.570
15.9181 9.790
15.9333 9.786
15.9484 9.629
15.9636 10.077
15.9788 9.858
15.9940 9.638
16.0091 9.827
16.0243 9.679
16.0395 9.887
16.0547 9.914
16.0698 9.803
16.0850 9.967
16.1002 9.754
16.1154 9.793
16.1305 9.906
16.1457 9.825
16.1609 9.672
16.1761 9.927
16.1912 9.804
16.2064 9.767
16.2216 9.930
16.2368 9.898
16.2519 9.672
16.2671 9.938
16.2823 9.992
16.2975 9.875
16.3126 9.768
16.3278 9.654
16.3430 9.763
16.3582 9.991
16.3733 10.081
16.3885 10.057
16.4037 10.023
16.4189 10.028
16.4340 9.917
16.4492 9.980
16.4644 10.018
16.4796 9.931
16.4947 10.208
16.5099 10.071
16.5251 10.021
16.5403 9.910
16.5554 10.122
16.5706 9.782
16.5858 9.805
16.6010 9.741
16.6161 9.690
16.6313 9.784
16.6465 10.108
16.6617 10.130
16.6768 10.102
16.6920 10.047
16.7072 10.299
16.7224 10.274
16.7375 10.157
16.7527 10.111
16.7679 10.064
16.7831 9.806
16.7982 9.949
16.8134 10.117
16.8286 10.157
16.8438 10.064
16.8589 9.897
16.8741 9.763
16.8893 9.881
16.9045 10.014
16.9196 10.065
16.9348 9.932
16.9500 9.937
16.9652 9.988
16.9803 10.260
16.9955 10.333
17.0107 10.238
17.0259 10.237
17.0410 10.141
17.0562 10.223
17.0714 10.489
17.0866 10.558
17.1017 10.561
17.1169 10.818
17.1321 11.099
17.1473 11.550
17.1624 12.219
17.1776 12.633
17.1928 13.199
17.2080 14.312
17.2231 15.253
17.2383 16.479
17.2535 17.895
17.2687 18.710
17.2838 18.887
17.2990 18.190
17.3142 17.197
17.3294 16.498
17.3445 16.167
17.3597 16.124
17.3749 15.842
17.3901 15.243
17.4052 14.288
17.4204 13.095
17.4356 12.322
17.4508 11.878
17.4659 11.458
17.4811 11.116
17.4963 10.890
17.5115 10.854
17.5266 10.879
17.5418 10.698
17.5570 10.435
17.5722 10.286
17.5873 10.282
17.6025 10.389
17.6177 10.235
17.6329 10.106
17.6480 10.319
17.6632 10.488
17.6784 10.482
17.6936 10.345
17.7087 10.273
17.7239 10.277
17.7391 10.450
17.7543 10.605
17.7694 10.450
17.7846 10.484
17.7998 10.742
17.8150 10.897
17.8301 11.245
17.8453 11.271
17.8605 11.150
17.8757 11.331
17.8908 11.399
17.9060 11.428
17.9212 11.165
17.9364 10.877
17.9515 10.632
17.9667 10.776
17.9819 10.902
17.9971 10.489
18.0122 10.487
18.0274 10.714
18.0426 10.399
18.0578 10.271
18.0729 10.135
18.0881 10.081
18.1033 10.160
18.1185 10.088
18.1336 9.888
18.1488 10.132
18.1640 10.129
18.1792 9.946
18.1943 10.126
18.2095 10.166
18.2247 10.052
18.2399 9.900
18.2550 9.790
18.2702 9.769
18.2854 9.605
18.3006 9.566
18.3157 9.844
18.3309 10.062
18.3461 9.960
18.3613 9.782
18.3764 9.872
18.3916 9.896
18.4068 9.878
18.4220 9.815
18.4371 9.718
18.4523 9.822
18.4675 9.838
18.4827 9.760
18.4978 9.609
18.5130 9.502
18.5282 9.652
18.5434 9.473
18.5585 9.663
18.5737 9.874
18.5889 9.694
18.6041 9.611
18.6192 9.663
18.6344 9.840
18.6496 9.893
18.6648 9.940
18.6799 9.972
18.6951 9.876
18.7103 9.932
18.7255 9.823
18.7406 9.601
18.7558 9.788
18.7710 10.008
18.7862 9.923
18.8013 9.689
18.8165 9.543
18.8317 9.662
18.8469 9.780
18.8620 10.099
18.8772 10.271
18.8924 10.039
18.9076 9.866
18.9227 9.973
18.9379 10.009
18.9531 9.994
18.9683 9.986
18.9834 9.888
18.9986 9.979
19.0138 10.064
19.0290 10.164
19.0441 10.357
19.0593 10.155
19.0745 9.998
19.0897 10.196
19.1048 10.278
19.1200 10.260
19.1352 10.210
19.1504 10.318
19.1655 10.823
19.1807 10.963
19.1959 10.675
19.2111 10.470
19.2262 10.681
19.2414 10.826
19.2566 10.640
19.2718 10.751
19.2869 11.087
19.3021 10.998
19.3173 10.985
19.3325 11.137
19.3476 11.153
19.3628 11.241
19.3780 11.176
19.3932 11.229
19.4083 11.149
19.4235 11.149
19.4387 11.296
19.4539 11.444
19.4690 11.619
19.4842 11.623
19.4994 11.526
19.5146 11.363
19.5297 11.627
19.5449 11.766
19.5601 11.573
19.5753 11.661
19.5904 11.669
19.6056 11.724
19.6208 11.736
19.6360 11.604
19.6511 11.544
19.6663 11.589
19.6815 11.700
19.6967 11.613
19.7118 11.805
19.7270 12.221
19.7422 12.145
19.7574 11.822
19.7725 11.692
19.7877 11.610
19.8029 11.837
19.8180 12.042
19.8332 11.897
19.8484 12.175
19.8636 12.697
19.8787 12.776
19.8939 12.833
19.9091 13.152
19.9243 13.514
19.9394 13.985
19.9546 14.343
19.9698 14.505
19.9850 14.699
20.0001 14.689
20.0153 14.409
20.0305 14.101
20.0457 14.067
20.0608 13.905
20.0760 13.797
20.0912 13.763
20.1064 13.631
20.1215 13.468
20.1367 12.926
20.1519 12.782
20.1671 12.784
20.1822 12.479
20.1974 12.851
20.2126 12.670
20.2278 12.528
20.2429 12.516
20.2581 12.217
20.2733 12.081
20.2885 11.759
20.3036 11.702
20.3188 11.724
20.3340 11.575
20.3492 11.678
20.3643 11.612
20.3795 11.185
20.3947 11.005
20.4099 10.878
20.4250 10.826
20.4402 10.780
20.4554 10.707
20.4706 10.873
20.4857 11.046
20.5009 10.791
20.5161 10.812
20.5313 10.691
20.5464 10.679
20.5616 10.463
20.5768 10.545
20.5920 10.661
20.6071 10.587
20.6223 10.625
20.6375 10.756
20.6527 10.407
20.6678 10.464
20.6830 10.298
20.6982 10.449
20.7134 10.344
20.7285 10.178
20.7437 10.425
20.7589 10.629
20.7741 10.230
20.7892 10.220
20.8044 10.170
20.8196 10.366
20.8348 10.310
20.8499 10.031
20.8651 10.247
20.8803 10.597
20.8955 10.324
20.9106 10.316
20.9258 10.168
20.9410 10.450
20.9562 10.555
20.9713 10.488
20.9865 10.447
21.0017 10.250
21.0169 10.431
21.0320 10.288
21.0472 10.238
21.0624 10.213
21.0776 10.061
21.0927 10.183
21.1079 9.778
21.1231 9.970
21.1383 10.400
21.1534 9.905
21.1686 9.806
21.1838 10.059
21.1990 9.924
21.2141 9.626
21.2293 9.660
21.2445 9.805
21.2597 9.811
21.2748 10.070
21.2900 9.733
21.3052 9.882
21.3204 9.533
21.3355 9.441
21.3507 9.669
21.3659 9.615
21.3811 9.595
21.3962 9.580
21.4114 9.526
21.4266 9.656
21.4418 9.446
21.4569 9.360
21.4721 9.318
21.4873 9.137
21.5025 9.309
21.5176 9.402
21.5328 9.457
21.5480 9.275
21.5632 9.427
21.5783 9.513
21.5935 8.995
21.6087 9.272
21.6239 9.097
21.6390 9.180
21.6542 9.338
21.6694 9.108
21.6846 9.159
21.6997 9.232
21.7149 9.186
21.7301 9.084
21.7453 9.121
21.7604 9.081
21.7756 8.843
21.7908 9.008
21.8060 9.292
21.8211 9.235
21.8363 9.132
21.8515 8.952
21.8667 9.063
21.8818 9.308
21.8970 9.202
21.9122 9.158
21.9274 9.104
21.9425 9.102
21.9577 8.977
21.9729 8.997
21.9881 8.908
22.0032 8.845
22.0184 8.978
22.0336 8.938
22.0488 8.633
22.0639 8.737
22.0791 8.631
22.0943 8.556
22.1095 8.424
22.1246 8.408
22.1398 8.578
22.1550 8.556
22.1702 8.514
22.1853 8.683
22.2005 8.539
22.2157 8.639
22.2309 8.809
22.2460 8.605
22.2612 8.409
22.2764 8.429
22.2916 8.608
22.3067 8.654
22.3219 8.774
22.3371 8.826
22.3523 8.859
22.3674 8.556
22.3826 8.523
22.3978 8.655
22.4130 8.671
22.4281 8.724
22.4433 8.427
22.4585 8.641
22.4737 8.579
22.4888 8.422
22.5040 8.792
22.5192 8.530
22.5344 8.611
22.5495 8.595
22.5647 8.590
22.5799 8.404
22.5951 8.538
22.6102 8.524
22.6254 8.633
22.6406 8.325
22.6558 8.375
22.6709 8.500
22.6861 8.572
22.7013 8.336
22.7165 8.057
22.7316 6.307
