'Id: "" Comment: "" Operator: "Lab Manager" Anode: "Mo" Scantype: "Still (Eiger2R_500K (1D mode))" TimePerStep: "300" X: "11.8" Y: "9.4" Z: "11.284" 
7.2532 19.130
7.2684 18.826
7.2836 18.430
7.2987 18.732
7.3139 19.306
7.3291 18.953
7.3443 18.822
7.3594 18.957
7.3746 18.812
7.3898 19.430
7.4050 19.462
7.4201 19.334
7.4353 19.509
7.4505 19.454
7.4657 19.685
7.4808 19.502
7.4960 19.491
7.5112 19.488
7.5264 19.817
7.5415 19.928
7.5567 19.859
7.5719 19.976
7.5871 19.992
7.6022 20.128
7.6174 20.058
7.6326 20.076
7.6478 20.158
7.6629 20.352
7.6781 20.062
7.6933 19.958
7.7085 20.233
7.7236 20.421
7.7388 20.508
7.7540 20.474
7.7692 20.715
7.7843 20.760
7.7995 20.343
7.8147 20.507
7.8299 20.411
7.8450 20.178
7.8602 20.448
7.8754 20.753
7.8905 20.728
7.9057 20.816
7.9209 20.766
7.9361 20.722
7.9512 20.803
7.9664 20.990
7.9816 20.800
7.9968 20.631
8.0119 20.539
8.0271 20.756
8.0423 21.060
8.0575 21.092
8.0726 21.245
8.0878 21.006
8.1030 20.937
8.1182 21.120
8.1333 21.775
8.1485 21.286
8.1637 21.053
8.1789 21.266
8.1940 21.660
8.2092 21.242
8.2244 21.551
8.2396 21.546
8.2547 21.656
8.2699 21.627
8.2851 21.466
8.3003 21.560
8.3154 21.663
8.3306 21.829
8.3458 21.748
8.3610 21.561
8.3761 21.376
8.3913 21.713
8.4065 22.108
8.4217 22.130
8.4368 21.704
8.4520 21.873
8.4672 22.311
8.4824 21.780
8.4975 22.058
8.5127 22.108
8.5279 22.259
8.5431 21.493
8.5582 21.967
8.5734 21.734
8.5886 22.106
8.6038 21.864
8.6189 22.187
8.6341 21.841
8.6493 22.179
8.6645 22.128
8.6796 22.159
8.6948 22.422
8.7100 22.258
8.7252 22.108
8.7403 22.223
8.7555 22.222
8.7707 22.823
8.7859 22.223
8.8010 22.700
8.8162 22.563
8.8314 22.452
8.8466 22.751
8.8617 22.765
8.8769 22.339
8.8921 22.304
8.9073 22.352
8.9224 22.536
8.9376 22.505
8.9528 23.016
8.9680 22.596
8.9831 22.246
8.9983 22.569
9.0135 22.564
9.0287 22.744
9.0438 22.677
9.0590 22.597
9.0742 22.389
9.0894 22.704
9.1045 23.219
9.1197 23.057
9.1349 22.824
9.1501 23.203
9.1652 22.955
9.1804 23.004
9.1956 23.207
9.2108 23.355
9.2259 22.931
9.2411 23.325
9.2563 23.024
9.2715 22.644
9.2866 22.760
9.3018 22.849
9.3170 22.815
9.3322 22.915
9.3473 23.061
9.3625 22.903
9.3777 22.932
9.3929 23.050
9.4080 23.158
9.4232 22.818
9.4384 22.927
9.4536 23.241
9.4687 23.082
9.4839 23.099
9.4991 23.218
9.5143 23.304
9.5294 23.371
9.5446 23.461
9.5598 23.632
9.5750 23.629
9.5901 23.528
9.6053 23.523
9.6205 23.357
9.6357 23.355
9.6508 23.411
9.6660 23.556
9.6812 23.473
9.6964 23.394
9.7115 23.916
9.7267 24.175
9.7419 24.065
9.7571 24.229
9.7722 23.877
9.7874 23.042
9.8026 23.236
9.8178 23.508
9.8329 23.413
9.8481 23.220
9.8633 23.198
9.8785 23.148
9.8936 23.084
9.9088 23.421
9.9240 23.230
9.9392 22.878
9.9543 23.096
9.9695 23.288
9.9847 23.176
9.9999 23.392
10.0150 23.613
10.0302 23.385
10.0454 23.054
10.0606 22.987
10.0757 23.443
10.0909 23.392
10.1061 23.260
10.1213 23.493
10.1364 23.094
10.1516 23.144
10.1668 23.449
10.1820 23.324
10.1971 23.271
10.2123 23.337
10.2275 23.087
10.2427 22.939
10.2578 22.825
10.2730 22.528
10.2882 22.784
10.3034 23.079
10.3185 23.001
10.3337 22.872
10.3489 22.515
10.3641 22.505
10.3792 22.603
10.3944 22.624
10.4096 22.662
10.4248 22.602
10.4399 22.382
10.4551 22.703
10.4703 22.902
10.4855 22.615
10.5006 22.547
10.5158 22.529
10.5310 22.928
10.5462 22.651
10.5613 22.235
10.5765 22.539
10.5917 22.611
10.6069 22.600
10.6220 22.546
10.6372 22.528
10.6524 22.601
10.6676 22.801
10.6827 22.696
10.6979 22.499
10.7131 22.569
10.7283 22.325
10.7434 22.307
10.7586 22.437
10.7738 22.315
10.7890 21.793
10.8041 21.987
10.8193 22.424
10.8345 22.192
10.8497 22.457
10.8648 22.422
10.8800 22.434
10.8952 21.961
10.9104 21.866
10.9255 21.971
10.9407 21.988
10.9559 22.478
10.9711 22.236
10.9862 21.738
11.0014 21.902
11.0166 22.024
11.0318 22.082
11.0469 22.088
11.0621 21.940
11.0773 21.892
11.0925 22.385
11.1076 21.634
11.1228 22.001
11.1380 21.772
11.1532 21.788
11.1683 21.698
11.1835 21.805
11.1987 21.909
11.2139 21.564
11.2290 21.891
11.2442 21.771
11.2594 21.728
11.2746 22.040
11.2897 21.444
11.3049 21.430
11.3201 21.426
11.3353 21.761
11.3504 21.592
11.3656 21.578
11.3808 21.441
11.3960 21.076
11.4111 21.337
11.4263 21.353
11.4415 21.085
11.4567 20.855
11.4718 20.835
11.4870 21.040
11.5022 21.304
11.5174 21.490
11.5325 20.820
11.5477 20.668
11.5629 21.423
11.5781 21.092
11.5932 20.933
11.6084 21.309
11.6236 21.171
11.6388 20.989
11.6539 20.670
11.6691 20.760
11.6843 20.452
11.6995 20.302
11.7146 20.668
11.7298 20.593
11.7450 20.472
11.7602 20.294
11.7753 20.179
11.7905 20.070
11.8057 20.103
11.8209 20.287
11.8360 20.103
11.8512 19.866
11.8664 19.959
11.8816 19.792
11.8967 19.676
11.9119 19.452
11.9271 19.680
11.9423 19.222
11.9574 19.096
11.9726 19.232
11.9878 19.485
12.0030 19.320
12.0181 19.211
12.0333 19.265
12.0485 19.347
12.0637 19.388
12.0788 19.134
12.0940 18.869
12.1092 18.856
12.1244 18.620
12.1395 18.447
12.1547 18.583
12.1699 18.417
12.1851 18.481
12.2002 18.261
12.2154 18.390
12.2306 18.285
12.2458 17.951
12.2609 18.124
12.2761 17.764
12.2913 17.834
12.3065 17.554
12.3216 17.172
12.3368 17.104
12.3520 17.262
12.3672 17.637
12.3823 17.541
12.3975 17.329
12.4127 16.978
12.4279 17.040
12.4430 17.075
12.4582 16.962
12.4734 16.610
12.4886 16.446
12.5037 16.812
12.5189 16.807
12.5341 16.564
12.5493 16.448
12.5644 16.444
12.5796 16.407
12.5948 16.163
12.6100 16.284
12.6251 15.958
12.6403 15.734
12.6555 16.044
12.6707 16.183
12.6858 16.005
12.7010 15.703
12.7162 15.434
12.7314 15.414
12.7465 15.469
12.7617 15.219
12.7769 15.137
12.7921 15.199
12.8072 15.132
12.8224 15.100
12.8376 14.805
12.8528 14.631
12.8679 14.634
12.8831 14.860
12.8983 14.863
12.9135 14.877
12.9286 14.882
12.9438 14.743
12.9590 14.707
12.9742 14.515
12.9893 14.339
13.0045 14.130
13.0197 14.016
13.0349 14.168
13.0500 13.986
13.0652 13.863
13.0804 13.731
13.0956 13.586
13.1107 13.802
13.1259 14.084
13.1411 13.937
13.1563 13.575
13.1714 13.448
13.1866 13.462
13.2018 13.511
13.2170 13.470
13.2321 13.476
13.2473 13.352
13.2625 13.351
13.2777 13.344
13.2928 13.333
13.3080 13.402
13.3232 13.142
13.3384 12.842
13.3535 12.977
13.3687 13.403
13.3839 13.319
13.3991 13.027
13.4142 13.120
13.4294 13.127
13.4446 12.791
13.4598 12.726
13.4749 12.793
13.4901 12.703
13.5053 12.641
13.5205 12.703
13.5356 12.296
13.5508 12.436
13.5660 12.528
13.5812 12.089
13.5963 12.287
13.6115 12.196
13.6267 12.136
13.6419 12.219
13.6570 12.216
13.6722 12.341
13.6874 12.286
13.7026 12.154
13.7177 12.211
13.7329 12.150
13.7481 12.018
13.7633 12.096
13.7784 12.167
13.7936 12.100
13.8088 12.095
13.8239 12.292
13.8391 12.590
13.8543 12.416
13.8695 12.370
13.8846 12.207
13.8998 12.158
13.9150 12.344
13.9302 12.347
13.9453 12.046
13.9605 11.999
13.9757 11.657
13.9909 11.443
14.0060 11.558
14.0212 11.764
14.0364 11.821
14.0516 11.603
14.0667 11.720
14.0819 11.679
14.0971 11.555
14.1123 11.805
14.1274 11.832
14.1426 11.918
14.1578 11.546
14.1730 11.451
14.1881 11.565
14.2033 11.477
14.2185 11.668
14.2337 11.976
14.2488 11.995
14.2640 11.854
14.2792 11.973
14.2944 12.280
14.3095 12.289
14.3247 12.242
14.3399 12.219
14.3551 12.626
14.3702 12.968
14.3854 12.952
14.4006 13.003
14.4158 13.201
14.4309 12.946
14.4461 12.877
14.4613 12.499
14.4765 12.414
14.4916 12.492
14.5068 12.371
14.5220 11.622
14.5372 11.312
14.5523 11.084
14.5675 11.181
14.5827 11.253
14.5979 11.098
14.6130 10.943
14.6282 10.891
14.6434 11.019
14.6586 11.293
14.6737 10.724
14.6889 10.781
14.7041 10.739
14.7193 10.774
14.7344 10.904
14.7496 10.781
14.7648 10.769
14.7800 10.697
14.7951 10.510
14.8103 10.493
14.8255 10.524
14.8407 10.298
14.8558 10.748
14.8710 10.533
14.8862 10.472
14.9014 10.787
14.9165 10.678
14.9317 10.688
14.9469 10.747
14.9621 10.370
14.9772 10.304
14.9924 10.059
15.0076 10.367
15.0228 10.311
15.0379 10.229
15.0531 10.340
15.0683 10.248
15.0835 10.724
15.0986 10.224
15.1138 10.424
15.1290 10.225
15.1442 10.038
15.1593 10.206
15.1745 10.038
15.1897 9.974
15.2049 10.089
15.2200 10.243
15.2352 10.132
15.2504 10.236
15.2656 9.959
15.2807 9.962
15.2959 10.157
15.3111 10.317
15.3263 9.987
15.3414 10.029
15.3566 9.994
15.3718 10.244
15.3870 10.525
15.4021 10.193
15.4173 10.456
15.4325 10.025
15.4477 10.184
15.4628 10.186
15.4780 10.012
15.4932 10.096
15.5084 10.069
15.5235 10.157
15.5387 10.022
15.5539 9.936
15.5691 10.112
15.5842 9.880
15.5994 10.020
15.6146 9.804
15.6298 9.991
15.6449 10.020
15.6601 9.662
15.6753 9.706
15.6905 9.840
15.7056 9.866
15.7208 9.791
15.7360 9.796
15.7512 9.490
15.7663 9.992
15.7815 10.082
15.7967 9.881
15.8119 9.822
15.8270 9.902
15.8422 9.524
15.8574 9.697
15.8726 9.826
15.8877 9.348
15.9029 9.443
15.9181 9.521
15.9333 9.474
15.9484 9.320
15.9636 9.597
15.9788 9.649
15.9940 9.650
16.0091 9.561
16.0243 9.508
16.0395 9.862
16.0547 9.823
16.0698 9.758
16.0850 9.759
16.1002 9.623
16.1154 9.679
16.1305 9.832
16.1457 9.631
16.1609 9.518
16.1761 9.715
16.1912 9.732
16.2064 9.873
16.2216 9.666
16.2368 9.778
16.2519 9.781
16.2671 9.670
16.2823 9.924
16.2975 10.170
16.3126 10.009
16.3278 9.841
16.3430 9.679
16.3582 10.006
16.3733 10.067
16.3885 9.852
16.4037 9.777
16.4189 9.861
16.4340 9.736
16.4492 9.799
16.4644 9.861
16.4796 9.841
16.4947 9.552
16.5099 9.340
16.5251 9.519
16.5403 9.683
16.5554 9.671
16.5706 9.663
16.5858 9.782
16.6010 9.764
16.6161 9.826
16.6313 9.732
16.6465 9.644
16.6617 9.689
16.6768 10.001
16.6920 9.934
16.7072 9.938
16.7224 9.938
16.7375 9.949
16.7527 9.982
16.7679 9.948
16.7831 10.048
16.7982 9.890
16.8134 10.012
16.8286 10.123
16.8438 10.060
16.8589 9.797
16.8741 9.584
16.8893 9.499
16.9045 9.706
16.9196 10.020
16.9348 10.206
16.9500 9.818
16.9652 9.632
16.9803 9.857
16.9955 9.847
17.0107 9.703
17.0259 9.849
17.0410 9.889
17.0562 10.136
17.0714 10.564
17.0866 10.335
17.1017 10.206
17.1169 10.484
17.1321 10.885
17.1473 11.405
17.1624 11.866
17.1776 12.364
17.1928 13.067
17.2080 13.967
17.2231 15.158
17.2383 16.622
17.2535 18.030
17.2687 18.718
17.2838 18.795
17.2990 18.167
17.3142 17.058
17.3294 16.585
17.3445 16.225
17.3597 15.752
17.3749 15.632
17.3901 15.161
17.4052 14.290
17.4204 13.409
17.4356 12.817
17.4508 12.329
17.4659 11.718
17.4811 11.390
17.4963 11.399
17.5115 11.436
17.5266 11.097
17.5418 11.012
17.5570 11.137
17.5722 11.142
17.5873 11.137
17.6025 11.130
17.6177 11.089
17.6329 10.945
17.6480 11.129
17.6632 11.546
17.6784 11.647
17.6936 11.604
17.7087 11.597
17.7239 11.134
17.7391 10.894
17.7543 10.846
17.7694 10.971
17.7846 11.103
17.7998 10.990
17.8150 10.812
17.8301 10.434
17.8453 10.188
17.8605 10.266
17.8757 10.352
17.8908 10.464
17.9060 10.328
17.9212 10.197
17.9364 9.921
17.9515 9.916
17.9667 9.938
17.9819 9.908
17.9971 10.284
18.0122 10.255
18.0274 10.124
18.0426 10.329
18.0578 10.268
18.0729 10.172
18.0881 10.000
18.1033 9.691
18.1185 9.831
18.1336 9.951
18.1488 9.949
18.1640 10.246
18.1792 9.993
18.1943 9.805
18.2095 9.833
18.2247 10.009
18.2399 10.040
18.2550 9.917
18.2702 9.861
18.2854 10.007
18.3006 10.180
18.3157 10.085
18.3309 10.019
18.3461 10.027
18.3613 10.149
18.3764 10.023
18.3916 9.811
18.4068 9.690
18.4220 9.766
18.4371 9.837
18.4523 9.851
18.4675 9.795
18.4827 9.899
18.4978 9.883
18.5130 9.920
18.5282 9.750
18.5434 9.772
18.5585 9.745
18.5737 9.508
18.5889 9.582
18.6041 9.624
18.6192 9.631
18.6344 9.520
18.6496 9.873
18.6648 9.730
18.6799 9.794
18.6951 10.142
18.7103 10.010
18.7255 9.740
18.7406 9.767
18.7558 9.832
18.7710 9.872
18.7862 9.850
18.8013 9.793
18.8165 9.774
18.8317 9.913
18.8469 10.061
18.8620 10.047
18.8772 10.025
18.8924 9.732
18.9076 9.592
18.9227 9.763
18.9379 9.952
18.9531 10.172
18.9683 10.164
18.9834 10.131
18.9986 10.099
19.0138 10.172
19.0290 10.177
19.0441 10.140
19.0593 10.218
19.0745 10.194
19.0897 10.417
19.1048 10.624
19.1200 10.469
19.1352 10.458
19.1504 10.600
19.1655 10.366
19.1807 10.202
19.1959 10.134
19.2111 10.486
19.2262 10.806
19.2414 10.801
19.2566 10.782
19.2718 10.959
19.2869 11.009
19.3021 11.080
19.3173 11.032
19.3325 11.048
19.3476 11.031
19.3628 11.043
19.3780 11.127
19.3932 11.154
19.4083 11.243
19.4235 11.265
19.4387 11.325
19.4539 11.078
19.4690 11.282
19.4842 11.344
19.4994 11.383
19.5146 11.526
19.5297 11.536
19.5449 11.429
19.5601 11.511
19.5753 11.582
19.5904 11.498
19.6056 11.557
19.6208 11.683
19.6360 11.693
19.6511 11.492
19.6663 11.744
19.6815 11.800
19.6967 11.830
19.7118 11.693
19.7270 11.562
19.7422 11.588
19.7574 11.492
19.7725 11.828
19.7877 12.035
19.8029 12.089
19.8180 12.117
19.8332 12.184
19.8484 12.401
19.8636 12.507
19.8787 12.628
19.8939 12.865
19.9091 12.904
19.9243 13.187
19.9394 13.461
19.9546 13.630
19.9698 14.124
19.9850 14.533
20.0001 14.521
20.0153 14.150
20.0305 13.905
20.0457 13.825
20.0608 13.750
20.0760 13.759
20.0912 13.696
20.1064 13.531
20.1215 13.416
20.1367 13.197
20.1519 13.233
20.1671 13.101
20.1822 12.745
20.1974 12.873
20.2126 12.701
20.2278 12.673
20.2429 12.902
20.2581 12.725
20.2733 12.120
20.2885 11.944
20.3036 11.877
20.3188 12.134
20.3340 12.087
20.3492 12.025
20.3643 11.970
20.3795 11.687
20.3947 11.810
20.4099 11.827
20.4250 11.683
20.4402 11.957
20.4554 12.023
20.4706 11.992
20.4857 11.818
20.5009 11.767
20.5161 11.465
20.5313 11.314
20.5464 11.235
20.5616 11.386
20.5768 11.276
20.5920 11.442
20.6071 11.253
20.6223 11.053
20.6375 10.886
20.6527 10.507
20.6678 10.385
20.6830 10.600
20.6982 10.457
20.7134 10.411
20.7285 10.212
20.7437 10.336
20.7589 10.555
20.7741 10.391
20.7892 10.339
20.8044 10.205
20.8196 10.192
20.8348 10.335
20.8499 10.285
20.8651 10.288
20.8803 10.138
20.8955 10.284
20.9106 10.295
20.9258 9.937
20.9410 10.244
20.9562 10.443
20.9713 10.100
20.9865 9.974
21.0017 9.891
21.0169 10.283
21.0320 10.076
21.0472 10.377
21.0624 10.300
21.0776 9.928
21.0927 10.025
21.1079 9.913
21.1231 9.968
21.1383 10.048
21.1534 9.759
21.1686 9.982
21.1838 9.525
21.1990 9.427
21.2141 9.911
21.2293 9.941
21.2445 9.558
21.2597 9.527
21.2748 9.603
21.2900 9.651
21.3052 9.579
21.3204 9.594
21.3355 9.646
21.3507 9.560
21.3659 9.582
21.3811 9.770
21.3962 9.746
21.4114 9.378
21.4266 9.339
21.4418 9.511
21.4569 9.722
21.4721 9.593
21.4873 9.454
21.5025 9.496
21.5176 9.515
21.5328 9.179
21.5480 9.379
21.5632 9.423
21.5783 9.276
21.5935 9.102
21.6087 9.259
21.6239 9.029
21.6390 9.117
21.6542 9.240
21.6694 9.109
21.6846 9.151
21.6997 9.231
21.7149 9.143
21.7301 9.406
21.7453 9.151
21.7604 8.985
21.7756 9.009
21.7908 9.067
21.8060 9.094
21.8211 9.033
21.8363 9.178
21.8515 9.298
21.8667 9.081
21.8818 9.094
21.8970 8.993
21.9122 8.884
21.9274 8.664
21.9425 8.922
21.9577 9.114
21.9729 8.946
21.9881 8.779
22.0032 8.732
22.0184 8.946
22.0336 8.908
22.0488 8.802
22.0639 8.795
22.0791 8.680
22.0943 8.541
22.1095 8.631
22.1246 8.742
22.1398 8.783
22.1550 8.688
22.1702 8.684
22.1853 8.493
22.2005 8.511
22.2157 8.548
22.2309 8.725
22.2460 8.498
22.2612 8.322
22.2764 8.507
22.2916 8.527
22.3067 8.386
22.3219 8.487
22.3371 8.525
22.3523 8.376
22.3674 8.191
22.3826 8.267
22.3978 8.241
22.4130 8.323
22.4281 8.540
22.4433 8.392
22.4585 8.541
22.4737 8.105
22.4888 8.366
22.5040 8.226
22.5192 8.255
22.5344 8.334
22.5495 8.260
22.5647 8.423
22.5799 8.288
22.5951 8.347
22.6102 8.530
22.6254 8.208
22.6406 8.252
22.6558 8.368
22.6709 8.252
22.6861 8.300
22.7013 8.333
22.7165 7.944
22.7316 6.454
