'Id: "" Comment: "" Operator: "Lab Manager" Anode: "Mo" Scantype: "Still (Eiger2R_500K (1D mode))" TimePerStep: "300" X: "11.8" Y: "9.4" Z: "11.284" 
7.2532 19.086
7.2684 18.999
7.2836 19.108
7.2987 18.857
7.3139 18.516
7.3291 19.225
7.3443 19.005
7.3594 18.825
7.3746 19.088
7.3898 19.199
7.4050 19.447
7.4201 19.335
7.4353 19.279
7.4505 19.674
7.4657 19.469
7.4808 19.691
7.4960 19.696
7.5112 19.420
7.5264 19.699
7.5415 19.760
7.5567 19.850
7.5719 19.806
7.5871 19.829
7.6022 20.206
7.6174 20.140
7.6326 19.965
7.6478 19.824
7.6629 20.002
7.6781 20.127
7.6933 19.945
7.7085 20.022
7.7236 20.316
7.7388 20.168
7.7540 20.167
7.7692 20.476
7.7843 20.455
7.7995 20.272
7.8147 20.369
7.8299 20.728
7.8450 20.911
7.8602 20.508
7.8754 20.442
7.8905 20.411
7.9057 20.567
7.9209 20.898
7.9361 20.722
7.9512 20.809
7.9664 20.979
7.9816 21.056
7.9968 21.139
8.0119 21.038
8.0271 21.137
8.0423 21.290
8.0575 21.219
8.0726 21.163
8.0878 21.234
8.1030 21.311
8.1182 21.201
8.1333 20.888
8.1485 20.990
8.1637 21.570
8.1789 21.338
8.1940 21.376
8.2092 21.752
8.2244 21.363
8.2396 21.525
8.2547 21.346
8.2699 21.454
8.2851 21.445
8.3003 21.338
8.3154 21.313
8.3306 21.131
8.3458 21.211
8.3610 21.670
8.3761 21.319
8.3913 21.510
8.4065 21.962
8.4217 21.877
8.4368 21.851
8.4520 21.781
8.4672 21.841
8.4824 21.639
8.4975 22.164
8.5127 21.758
8.5279 22.194
8.5431 22.166
8.5582 21.659
8.5734 21.734
8.5886 22.335
8.6038 21.706
8.6189 21.852
8.6341 22.213
8.6493 21.875
8.6645 22.108
8.6796 22.334
8.6948 22.423
8.7100 22.349
8.7252 21.719
8.7403 21.752
8.7555 22.551
8.7707 22.601
8.7859 22.153
8.8010 22.457
8.8162 22.185
8.8314 22.481
8.8466 22.086
8.8617 22.330
8.8769 22.603
8.8921 22.818
8.9073 22.498
8.9224 22.438
8.9376 22.522
8.9528 22.144
8.9680 22.652
8.9831 22.680
8.9983 22.781
9.0135 22.671
9.0287 22.674
9.0438 22.555
9.0590 22.671
9.0742 22.425
9.0894 22.515
9.1045 22.608
9.1197 22.719
9.1349 22.746
9.1501 22.890
9.1652 23.054
9.1804 22.824
9.1956 22.594
9.2108 22.297
9.2259 22.772
9.2411 22.542
9.2563 23.013
9.2715 23.062
9.2866 22.949
9.3018 22.891
9.3170 23.220
9.3322 23.143
9.3473 22.949
9.3625 22.744
9.3777 23.089
9.3929 22.928
9.4080 23.050
9.4232 23.063
9.4384 22.690
9.4536 22.727
9.4687 22.955
9.4839 22.927
9.4991 22.598
9.5143 22.873
9.5294 23.140
9.5446 22.996
9.5598 22.967
9.5750 23.115
9.5901 23.104
9.6053 23.316
9.6205 23.136
9.6357 23.072
9.6508 23.514
9.6660 23.405
9.6812 23.627
9.6964 23.737
9.7115 23.725
9.7267 23.899
9.7419 23.932
9.7571 23.919
9.7722 23.883
9.7874 23.995
9.8026 23.747
9.8178 23.418
9.8329 23.644
9.8481 23.696
9.8633 23.519
9.8785 23.636
9.8936 23.650
9.9088 23.366
9.9240 22.938
9.9392 22.782
9.9543 23.258
9.9695 23.049
9.9847 22.981
9.9999 23.285
10.0150 23.040
10.0302 22.936
10.0454 23.027
10.0606 23.102
10.0757 23.292
10.0909 23.203
10.1061 23.399
10.1213 23.579
10.1364 23.443
10.1516 23.319
10.1668 22.997
10.1820 22.969
10.1971 23.554
10.2123 23.561
10.2275 23.116
10.2427 22.881
10.2578 23.080
10.2730 23.205
10.2882 23.262
10.3034 22.875
10.3185 22.765
10.3337 22.900
10.3489 22.631
10.3641 22.507
10.3792 22.403
10.3944 22.554
10.4096 22.508
10.4248 22.706
10.4399 22.488
10.4551 22.543
10.4703 22.761
10.4855 22.515
10.5006 22.578
10.5158 22.616
10.5310 22.707
10.5462 22.633
10.5613 22.602
10.5765 22.609
10.5917 22.110
10.6069 22.164
10.6220 22.563
10.6372 23.039
10.6524 22.675
10.6676 22.359
10.6827 22.346
10.6979 22.593
10.7131 22.798
10.7283 22.263
10.7434 22.114
10.7586 22.403
10.7738 22.342
10.7890 22.360
10.8041 21.980
10.8193 22.026
10.8345 21.947
10.8497 21.979
10.8648 22.024
10.8800 22.027
10.8952 22.178
10.9104 21.970
10.9255 22.444
10.9407 22.305
10.9559 22.141
10.9711 21.948
10.9862 21.942
11.0014 21.849
11.0166 21.893
11.0318 21.910
11.0469 21.840
11.0621 21.580
11.0773 21.590
11.0925 21.601
11.1076 21.775
11.1228 21.917
11.1380 21.881
11.1532 21.533
11.1683 21.688
11.1835 21.365
11.1987 21.394
11.2139 21.377
11.2290 21.690
11.2442 21.513
11.2594 21.311
11.2746 21.389
11.2897 21.872
11.3049 21.777
11.3201 21.082
11.3353 21.197
11.3504 21.349
11.3656 21.350
11.3808 21.333
11.3960 21.335
11.4111 21.390
11.4263 21.190
11.4415 21.077
11.4567 21.284
11.4718 21.078
11.4870 21.228
11.5022 21.123
11.5174 20.983
11.5325 20.810
11.5477 20.705
11.5629 21.088
11.5781 20.956
11.5932 20.832
11.6084 21.029
11.6236 20.754
11.6388 20.954
11.6539 20.721
11.6691 20.547
11.6843 20.210
11.6995 20.295
11.7146 20.334
11.7298 20.251
11.7450 20.426
11.7602 20.635
11.7753 20.411
11.7905 20.200
11.8057 20.061
11.8209 20.305
11.8360 20.161
11.8512 20.089
11.8664 19.938
11.8816 19.827
11.8967 19.393
11.9119 19.421
11.9271 19.616
11.9423 19.664
11.9574 19.423
11.9726 19.465
11.9878 19.450
12.0030 19.528
12.0181 19.458
12.0333 19.128
12.0485 19.087
12.0637 19.189
12.0788 18.718
12.0940 18.697
12.1092 18.940
12.1244 18.653
12.1395 18.561
12.1547 18.462
12.1699 18.289
12.1851 18.644
12.2002 18.474
12.2154 18.308
12.2306 18.061
12.2458 17.952
12.2609 18.207
12.2761 18.264
12.2913 17.763
12.3065 17.748
12.3216 17.769
12.3368 17.950
12.3520 17.607
12.3672 17.208
12.3823 17.213
12.3975 17.291
12.4127 17.232
12.4279 16.986
12.4430 16.862
12.4582 16.767
12.4734 16.734
12.4886 16.737
12.5037 16.952
12.5189 16.691
12.5341 16.351
12.5493 16.479
12.5644 16.474
12.5796 16.539
12.5948 16.412
12.6100 15.985
12.6251 15.819
12.6403 15.896
12.6555 15.969
12.6707 15.746
12.6858 15.787
12.7010 15.764
12.7162 15.629
12.7314 15.628
12.7465 15.652
12.7617 15.513
12.7769 15.441
12.7921 15.139
12.8072 14.900
12.8224 15.016
12.8376 15.049
12.8528 15.054
12.8679 14.688
12.8831 14.601
12.8983 14.640
12.9135 14.357
12.9286 14.338
12.9438 14.569
12.9590 14.572
12.9742 14.644
12.9893 14.561
13.0045 14.341
13.0197 14.141
13.0349 14.004
13.0500 13.974
13.0652 14.018
13.0804 13.952
13.0956 13.741
13.1107 13.663
13.1259 13.476
13.1411 13.566
13.1563 13.804
13.1714 13.528
13.1866 13.283
13.2018 13.493
13.2170 13.685
13.2321 13.532
13.2473 13.238
13.2625 13.013
13.2777 13.073
13.2928 13.071
13.3080 12.790
13.3232 12.877
13.3384 13.053
13.3535 13.107
13.3687 13.315
13.3839 13.372
13.3991 13.107
13.4142 12.888
13.4294 12.900
13.4446 12.894
13.4598 12.780
13.4749 12.523
13.4901 12.606
13.5053 12.670
13.5205 12.720
13.5356 12.624
13.5508 12.527
13.5660 12.378
13.5812 12.211
13.5963 12.247
13.6115 12.103
13.6267 12.241
13.6419 12.255
13.6570 12.209
13.6722 12.008
13.6874 11.931
13.7026 12.101
13.7177 12.366
13.7329 12.111
13.7481 11.826
13.7633 11.767
13.7784 12.064
13.7936 12.238
13.8088 12.393
13.8239 12.366
13.8391 12.340
13.8543 12.455
13.8695 12.576
13.8846 12.290
13.8998 12.226
13.9150 12.285
13.9302 11.987
13.9453 12.131
13.9605 11.911
13.9757 11.793
13.9909 11.793
14.0060 11.775
14.0212 11.613
14.0364 11.557
14.0516 11.596
14.0667 11.479
14.0819 11.504
14.0971 11.482
14.1123 11.584
14.1274 11.726
14.1426 11.516
14.1578 11.762
14.1730 11.947
14.1881 11.793
14.2033 12.018
14.2185 11.987
14.2337 11.626
14.2488 11.937
14.2640 11.717
14.2792 11.631
14.2944 11.766
14.3095 12.265
14.3247 12.241
14.3399 12.273
14.3551 12.366
14.3702 12.690
14.3854 12.508
14.4006 13.109
14.4158 13.364
14.4309 12.985
14.4461 12.766
14.4613 12.403
14.4765 12.127
14.4916 12.088
14.5068 12.216
14.5220 11.397
14.5372 11.549
14.5523 11.458
14.5675 11.352
14.5827 11.350
14.5979 10.908
14.6130 11.204
14.6282 10.695
14.6434 10.562
14.6586 10.856
14.6737 10.994
14.6889 10.770
14.7041 10.421
14.7193 10.796
14.7344 10.799
14.7496 10.804
14.7648 10.815
14.7800 10.147
14.7951 10.622
14.8103 10.645
14.8255 10.323
14.8407 10.386
14.8558 10.236
14.8710 10.553
14.8862 10.136
14.9014 10.523
14.9165 10.786
14.9317 10.661
14.9469 10.610
14.9621 10.529
14.9772 10.352
14.9924 10.186
15.0076 10.238
15.0228 10.383
15.0379 10.188
15.0531 10.318
15.0683 10.307
15.0835 10.480
15.0986 10.689
15.1138 10.438
15.1290 10.289
15.1442 10.189
15.1593 10.201
15.1745 9.859
15.1897 10.468
15.2049 10.479
15.2200 9.919
15.2352 10.012
15.2504 9.967
15.2656 10.103
15.2807 9.922
15.2959 10.320
15.3111 10.327
15.3263 10.622
15.3414 10.425
15.3566 10.151
15.3718 10.285
15.3870 10.228
15.4021 10.061
15.4173 10.228
15.4325 10.054
15.4477 10.279
15.4628 10.294
15.4780 10.119
15.4932 10.288
15.5084 9.938
15.5235 10.272
15.5387 10.045
15.5539 10.059
15.5691 9.953
15.5842 10.185
15.5994 9.988
15.6146 9.820
15.6298 9.896
15.6449 9.877
15.6601 9.753
15.6753 9.889
15.6905 9.867
15.7056 9.636
15.7208 9.787
15.7360 9.500
15.7512 9.824
15.7663 9.757
15.7815 9.711
15.7967 9.738
15.8119 9.580
15.8270 9.611
15.8422 9.592
15.8574 9.786
15.8726 9.334
15.8877 9.375
15.9029 9.482
15.9181 9.334
15.9333 9.646
15.9484 9.529
15.9636 9.710
15.9788 9.616
15.9940 9.579
16.0091 9.435
16.0243 9.537
16.0395 9.718
16.0547 9.745
16.0698 9.847
16.0850 9.572
16.1002 9.682
16.1154 9.802
16.1305 9.523
16.1457 9.547
16.1609 9.795
16.1761 9.833
16.1912 9.655
16.2064 9.691
16.2216 9.728
16.2368 9.676
16.2519 9.513
16.2671 9.842
16.2823 9.866
16.2975 9.855
16.3126 9.745
16.3278 9.779
16.3430 9.644
16.3582 9.600
16.3733 9.958
16.3885 10.107
16.4037 9.824
16.4189 9.851
16.4340 9.651
16.4492 9.596
16.4644 9.858
16.4796 9.841
16.4947 9.678
16.5099 9.689
16.5251 9.480
16.5403 9.704
16.5554 9.746
16.5706 9.800
16.5858 9.639
16.6010 9.582
16.6161 9.933
16.6313 9.972
16.6465 9.911
16.6617 9.749
16.6768 9.761
16.6920 9.805
16.7072 9.876
16.7224 9.947
16.7375 9.925
16.7527 9.916
16.7679 9.916
16.7831 9.997
16.7982 9.854
16.8134 9.826
16.8286 9.991
16.8438 9.878
16.8589 9.586
16.8741 9.694
16.8893 9.726
16.9045 9.795
16.9196 9.730
16.9348 9.700
16.9500 9.763
16.9652 9.978
16.9803 9.990
16.9955 9.761
17.0107 9.817
17.0259 9.918
17.0410 10.046
17.0562 10.179
17.0714 10.273
17.0866 10.397
17.1017 10.491
17.1169 10.680
17.1321 10.789
17.1473 11.131
17.1624 11.917
17.1776 12.465
17.1928 13.067
17.2080 14.024
17.2231 14.943
17.2383 16.344
17.2535 17.810
17.2687 18.445
17.2838 18.488
17.2990 17.948
17.3142 17.131
17.3294 16.465
17.3445 15.959
17.3597 16.003
17.3749 16.224
17.3901 15.700
17.4052 14.618
17.4204 13.415
17.4356 12.644
17.4508 12.261
17.4659 11.820
17.4811 11.747
17.4963 11.655
17.5115 11.298
17.5266 11.103
17.5418 11.018
17.5570 10.989
17.5722 10.864
17.5873 10.865
17.6025 11.061
17.6177 10.953
17.6329 10.851
17.6480 11.165
17.6632 11.472
17.6784 11.564
17.6936 11.510
17.7087 11.477
17.7239 11.447
17.7391 11.218
17.7543 11.017
17.7694 11.022
17.7846 11.053
17.7998 10.971
17.8150 10.701
17.8301 10.560
17.8453 10.452
17.8605 10.430
17.8757 10.487
17.8908 10.291
17.9060 10.179
17.9212 10.134
17.9364 10.165
17.9515 10.079
17.9667 10.129
17.9819 10.320
17.9971 10.230
18.0122 10.278
18.0274 10.355
18.0426 10.327
18.0578 10.296
18.0729 10.124
18.0881 10.110
18.1033 10.026
18.1185 9.884
18.1336 9.910
18.1488 9.876
18.1640 9.720
18.1792 9.960
18.1943 10.086
18.2095 9.818
18.2247 9.664
18.2399 9.851
18.2550 10.033
18.2702 10.203
18.2854 10.207
18.3006 9.957
18.3157 9.870
18.3309 9.887
18.3461 9.761
18.3613 9.884
18.3764 9.871
18.3916 9.814
18.4068 9.909
18.4220 9.878
18.4371 9.870
18.4523 9.957
18.4675 9.910
18.4827 9.963
18.4978 9.966
18.5130 10.017
18.5282 9.807
18.5434 9.895
18.5585 9.833
18.5737 9.640
18.5889 9.706
18.6041 9.801
18.6192 9.888
18.6344 9.707
18.6496 9.613
18.6648 9.715
18.6799 9.844
18.6951 9.710
18.7103 9.684
18.7255 9.607
18.7406 9.758
18.7558 9.935
18.7710 9.900
18.7862 9.653
18.8013 9.529
18.8165 9.454
18.8317 9.739
18.8469 9.787
18.8620 9.940
18.8772 10.219
18.8924 10.144
18.9076 9.887
18.9227 9.976
18.9379 10.051
18.9531 9.973
18.9683 9.853
18.9834 9.737
18.9986 9.919
19.0138 9.950
19.0290 10.049
19.0441 10.242
19.0593 10.245
19.0745 10.253
19.0897 10.238
19.1048 10.306
19.1200 10.377
19.1352 10.324
19.1504 10.470
19.1655 10.557
19.1807 10.513
19.1959 10.529
19.2111 10.749
19.2262 10.635
19.2414 10.515
19.2566 10.936
19.2718 10.980
19.2869 10.822
19.3021 10.881
19.3173 10.918
19.3325 10.993
19.3476 11.067
19.3628 11.079
19.3780 11.062
19.3932 11.163
19.4083 11.177
19.4235 11.136
19.4387 11.157
19.4539 11.162
19.4690 11.348
19.4842 11.418
19.4994 11.437
19.5146 11.456
19.5297 11.557
19.5449 11.708
19.5601 11.765
19.5753 11.683
19.5904 11.659
19.6056 11.578
19.6208 11.643
19.6360 11.646
19.6511 11.642
19.6663 11.654
19.6815 11.592
19.6967 11.485
19.7118 11.611
19.7270 11.685
19.7422 11.637
19.7574 11.698
19.7725 11.811
19.7877 12.202
19.8029 12.129
19.8180 12.038
19.8332 12.127
19.8484 12.214
19.8636 12.521
19.8787 12.797
19.8939 13.085
19.9091 13.237
19.9243 13.319
19.9394 13.730
19.9546 14.275
19.9698 14.732
19.9850 14.864
20.0001 14.574
20.0153 14.329
20.0305 13.967
20.0457 14.059
20.0608 13.877
20.0760 13.579
20.0912 13.515
20.1064 13.452
20.1215 13.388
20.1367 13.228
20.1519 13.034
20.1671 12.987
20.1822 13.151
20.1974 12.942
20.2126 12.698
20.2278 12.597
20.2429 12.782
20.2581 12.724
20.2733 12.265
20.2885 11.954
20.3036 11.958
20.3188 12.129
20.3340 12.146
20.3492 12.122
20.3643 11.896
20.3795 11.981
20.3947 11.842
20.4099 11.594
20.4250 11.725
20.4402 11.970
20.4554 11.831
20.4706 12.025
20.4857 11.707
20.5009 11.615
20.5161 11.556
20.5313 11.521
20.5464 11.618
20.5616 11.418
20.5768 11.195
20.5920 11.219
20.6071 11.342
20.6223 10.927
20.6375 10.965
20.6527 10.726
20.6678 10.693
20.6830 10.685
20.6982 10.464
20.7134 10.560
20.7285 10.420
20.7437 10.396
20.7589 10.434
20.7741 10.592
20.7892 10.434
20.8044 10.615
20.8196 10.348
20.8348 10.185
20.8499 10.477
20.8651 10.340
20.8803 10.253
20.8955 10.452
20.9106 10.297
20.9258 10.151
20.9410 10.192
20.9562 10.229
20.9713 10.040
20.9865 10.185
21.0017 9.852
21.0169 10.086
21.0320 10.019
21.0472 9.820
21.0624 10.174
21.0776 10.356
21.0927 10.512
21.1079 9.887
21.1231 9.950
21.1383 9.831
21.1534 9.818
21.1686 9.862
21.1838 9.985
21.1990 9.661
21.2141 9.391
21.2293 9.977
21.2445 9.968
21.2597 10.039
21.2748 9.805
21.2900 9.446
21.3052 9.619
21.3204 9.455
21.3355 9.715
21.3507 9.301
21.3659 9.300
21.3811 9.780
21.3962 9.357
21.4114 9.206
21.4266 9.591
21.4418 9.341
21.4569 9.079
21.4721 9.247
21.4873 9.150
21.5025 9.313
21.5176 9.555
21.5328 9.204
21.5480 9.391
21.5632 9.395
21.5783 9.121
21.5935 9.369
21.6087 9.082
21.6239 9.229
21.6390 9.378
21.6542 9.146
21.6694 9.062
21.6846 9.170
21.6997 9.140
21.7149 9.007
21.7301 9.365
21.7453 9.170
21.7604 9.163
21.7756 9.218
21.7908 9.356
21.8060 9.139
21.8211 8.937
21.8363 9.164
21.8515 9.032
21.8667 8.969
21.8818 8.966
21.8970 9.035
21.9122 9.156
21.9274 9.144
21.9425 9.106
21.9577 9.060
21.9729 9.080
21.9881 8.947
22.0032 8.773
22.0184 8.698
22.0336 8.639
22.0488 8.637
22.0639 8.874
22.0791 8.752
22.0943 8.571
22.1095 8.749
22.1246 8.723
22.1398 8.534
22.1550 8.419
22.1702 8.528
22.1853 8.718
22.2005 8.813
22.2157 8.739
22.2309 8.579
22.2460 8.375
22.2612 8.507
22.2764 8.464
22.2916 8.581
22.3067 8.268
22.3219 8.543
22.3371 8.281
22.3523 8.243
22.3674 8.609
22.3826 8.537
22.3978 8.446
22.4130 8.421
22.4281 8.768
22.4433 8.646
22.4585 8.484
22.4737 8.619
22.4888 8.418
22.5040 8.540
22.5192 8.406
22.5344 8.565
22.5495 8.661
22.5647 8.592
22.5799 8.550
22.5951 8.286
22.6102 8.587
22.6254 8.381
22.6406 8.312
22.6558 8.209
22.6709 8.226
22.6861 7.986
22.7013 8.030
22.7165 8.027
22.7316 6.366
