'Id: "" Comment: "" Operator: "Lab Manager" Anode: "Mo" Scantype: "Still (Eiger2R_500K (1D mode))" TimePerStep: "300" X: "11.8" Y: "9.4" Z: "11.284" 
7.2532 18.798
7.2684 18.431
7.2836 18.601
7.2987 19.042
7.3139 19.019
7.3291 19.214
7.3443 19.104
7.3594 19.282
7.3746 19.419
7.3898 19.268
7.4050 19.321
7.4201 19.348
7.4353 19.209
7.4505 19.017
7.4657 19.383
7.4808 19.273
7.4960 19.425
7.5112 19.325
7.5264 19.293
7.5415 19.411
7.5567 19.776
7.5719 19.444
7.5871 19.537
7.6022 20.005
7.6174 20.279
7.6326 20.234
7.6478 20.290
7.6629 19.764
7.6781 19.581
7.6933 19.944
7.7085 20.336
7.7236 20.205
7.7388 20.045
7.7540 20.084
7.7692 19.967
7.7843 20.023
7.7995 19.892
7.8147 20.058
7.8299 20.292
7.8450 20.268
7.8602 20.436
7.8754 20.372
7.8905 20.374
7.9057 20.704
7.9209 20.693
7.9361 20.567
7.9512 20.890
7.9664 20.956
7.9816 20.758
7.9968 21.008
8.0119 21.351
8.0271 21.196
8.0423 21.011
8.0575 20.795
8.0726 21.050
8.0878 21.278
8.1030 21.319
8.1182 21.328
8.1333 21.465
8.1485 21.575
8.1637 21.222
8.1789 21.233
8.1940 21.476
8.2092 21.310
8.2244 21.296
8.2396 21.502
8.2547 21.470
8.2699 21.537
8.2851 21.643
8.3003 21.362
8.3154 21.668
8.3306 21.569
8.3458 21.589
8.3610 21.613
8.3761 21.771
8.3913 21.977
8.4065 21.858
8.4217 21.447
8.4368 22.312
8.4520 21.696
8.4672 22.054
8.4824 21.774
8.4975 22.054
8.5127 21.894
8.5279 21.835
8.5431 21.922
8.5582 21.835
8.5734 21.527
8.5886 22.580
8.6038 22.005
8.6189 21.937
8.6341 21.749
8.6493 22.033
8.6645 21.986
8.6796 21.548
8.6948 21.985
8.7100 22.737
8.7252 22.167
8.7403 22.329
8.7555 21.931
8.7707 21.874
8.7859 22.349
8.8010 22.553
8.8162 22.620
8.8314 22.461
8.8466 22.540
8.8617 22.901
8.8769 22.497
8.8921 22.428
8.9073 22.669
8.9224 22.435
8.9376 22.463
8.9528 22.628
8.9680 22.581
8.9831 22.075
8.9983 21.957
9.0135 22.202
9.0287 22.418
9.0438 23.120
9.0590 22.705
9.0742 22.205
9.0894 22.765
9.1045 23.132
9.1197 23.130
9.1349 22.731
9.1501 22.284
9.1652 22.512
9.1804 22.403
9.1956 22.564
9.2108 22.525
9.2259 22.618
9.2411 22.749
9.2563 22.851
9.2715 22.955
9.2866 22.833
9.3018 22.939
9.3170 22.865
9.3322 22.773
9.3473 23.081
9.3625 22.972
9.3777 22.831
9.3929 22.559
9.4080 22.541
9.4232 22.637
9.4384 22.720
9.4536 23.033
9.4687 23.195
9.4839 23.028
9.4991 22.995
9.5143 22.928
9.5294 22.920
9.5446 23.001
9.5598 22.968
9.5750 22.761
9.5901 22.832
9.6053 22.927
9.6205 22.866
9.6357 23.015
9.6508 23.196
9.6660 23.330
9.6812 23.285
9.6964 23.448
9.7115 23.552
9.7267 23.701
9.7419 23.944
9.7571 23.951
9.7722 23.756
9.7874 23.640
9.8026 23.318
9.8178 23.540
9.8329 23.224
9.8481 22.838
9.8633 23.067
9.8785 23.113
9.8936 23.283
9.9088 23.266
9.9240 23.086
9.9392 23.311
9.9543 22.974
9.9695 22.869
9.9847 22.998
9.9999 22.812
10.0150 23.342
10.0302 23.386
10.0454 23.467
10.0606 23.296
10.0757 22.868
10.0909 22.880
10.1061 23.197
10.1213 23.466
10.1364 23.596
10.1516 23.568
10.1668 23.245
10.1820 23.234
10.1971 23.103
10.2123 23.061
10.2275 23.240
10.2427 23.060
10.2578 22.757
10.2730 22.761
10.2882 22.743
10.3034 22.924
10.3185 23.141
10.3337 22.710
10.3489 22.378
10.3641 22.576
10.3792 22.709
10.3944 22.372
10.4096 22.719
10.4248 23.043
10.4399 22.476
10.4551 22.740
10.4703 22.753
10.4855 22.648
10.5006 22.436
10.5158 22.426
10.5310 22.509
10.5462 22.567
10.5613 22.278
10.5765 22.384
10.5917 22.357
10.6069 22.056
10.6220 21.975
10.6372 22.566
10.6524 22.790
10.6676 22.617
10.6827 22.653
10.6979 22.514
10.7131 22.329
10.7283 22.035
10.7434 22.187
10.7586 22.573
10.7738 22.468
10.7890 21.981
10.8041 22.070
10.8193 22.011
10.8345 21.991
10.8497 21.969
10.8648 22.057
10.8800 21.949
10.8952 21.914
10.9104 22.421
10.9255 22.218
10.9407 21.993
10.9559 21.883
10.9711 21.689
10.9862 21.696
11.0014 22.056
11.0166 22.245
11.0318 22.358
11.0469 22.066
11.0621 21.875
11.0773 21.718
11.0925 21.676
11.1076 21.971
11.1228 21.845
11.1380 21.473
11.1532 21.570
11.1683 21.750
11.1835 21.862
11.1987 22.113
11.2139 21.804
11.2290 21.599
11.2442 21.369
11.2594 21.431
11.2746 21.260
11.2897 21.024
11.3049 21.256
11.3201 21.058
11.3353 21.319
11.3504 21.487
11.3656 21.524
11.3808 21.241
11.3960 21.056
11.4111 20.995
11.4263 20.865
11.4415 20.458
11.4567 21.091
11.4718 21.228
11.4870 21.046
11.5022 20.829
11.5174 20.841
11.5325 20.955
11.5477 21.042
11.5629 20.836
11.5781 20.592
11.5932 20.391
11.6084 20.204
11.6236 20.369
11.6388 20.473
11.6539 20.421
11.6691 20.319
11.6843 20.327
11.6995 20.459
11.7146 20.416
11.7298 20.309
11.7450 20.351
11.7602 20.312
11.7753 20.337
11.7905 20.301
11.8057 19.759
11.8209 20.065
11.8360 19.906
11.8512 19.724
11.8664 19.537
11.8816 19.838
11.8967 19.949
11.9119 19.364
11.9271 19.350
11.9423 19.280
11.9574 19.377
11.9726 19.544
11.9878 19.515
12.0030 19.017
12.0181 18.693
12.0333 18.950
12.0485 18.960
12.0637 18.788
12.0788 18.728
12.0940 18.859
12.1092 18.964
12.1244 18.807
12.1395 18.217
12.1547 18.285
12.1699 18.172
12.1851 18.377
12.2002 18.443
12.2154 17.869
12.2306 17.898
12.2458 18.009
12.2609 17.792
12.2761 17.847
12.2913 17.653
12.3065 17.571
12.3216 17.566
12.3368 17.687
12.3520 17.668
12.3672 17.343
12.3823 17.098
12.3975 16.896
12.4127 16.981
12.4279 17.065
12.4430 17.000
12.4582 17.180
12.4734 16.742
12.4886 16.721
12.5037 16.676
12.5189 16.632
12.5341 16.748
12.5493 16.663
12.5644 16.472
12.5796 16.162
12.5948 16.007
12.6100 15.987
12.6251 16.204
12.6403 16.377
12.6555 15.886
12.6707 15.826
12.6858 15.704
12.7010 15.694
12.7162 15.652
12.7314 15.540
12.7465 15.508
12.7617 15.247
12.7769 15.291
12.7921 15.194
12.8072 15.324
12.8224 15.608
12.8376 15.177
12.8528 14.895
12.8679 14.688
12.8831 14.678
12.8983 14.751
12.9135 14.715
12.9286 14.614
12.9438 14.332
12.9590 14.460
12.9742 14.744
12.9893 14.673
13.0045 14.440
13.0197 14.291
13.0349 14.009
13.0500 13.967
13.0652 14.174
13.0804 13.882
13.0956 13.906
13.1107 13.977
13.1259 13.709
13.1411 13.580
13.1563 13.412
13.1714 13.279
13.1866 13.522
13.2018 13.539
13.2170 13.260
13.2321 13.259
13.2473 13.203
13.2625 13.173
13.2777 13.246
13.2928 13.127
13.3080 13.011
13.3232 13.154
13.3384 13.022
13.3535 12.886
13.3687 12.707
13.3839 12.590
13.3991 12.770
13.4142 12.671
13.4294 12.713
13.4446 13.029
13.4598 12.838
13.4749 12.599
13.4901 12.570
13.5053 12.481
13.5205 12.536
13.5356 12.601
13.5508 12.513
13.5660 12.181
13.5812 12.164
13.5963 12.421
13.6115 12.241
13.6267 12.402
13.6419 12.377
13.6570 12.292
13.6722 12.243
13.6874 11.997
13.7026 11.965
13.7177 12.206
13.7329 11.964
13.7481 11.941
13.7633 12.082
13.7784 11.871
13.7936 11.746
13.8088 12.030
13.8239 12.006
13.8391 12.343
13.8543 12.281
13.8695 12.170
13.8846 12.004
13.8998 12.019
13.9150 11.942
13.9302 12.090
13.9453 12.095
13.9605 11.830
13.9757 11.499
13.9909 11.365
14.0060 11.489
14.0212 11.509
14.0364 11.544
14.0516 11.790
14.0667 11.683
14.0819 11.759
14.0971 11.688
14.1123 11.427
14.1274 11.456
14.1426 11.603
14.1578 11.558
14.1730 11.689
14.1881 11.664
14.2033 11.735
14.2185 12.044
14.2337 11.949
14.2488 11.876
14.2640 11.977
14.2792 11.755
14.2944 11.817
14.3095 12.324
14.3247 12.042
14.3399 11.958
14.3551 12.396
14.3702 12.669
14.3854 13.020
14.4006 13.101
14.4158 12.686
14.4309 12.862
14.4461 12.837
14.4613 12.708
14.4765 12.316
14.4916 12.251
14.5068 11.943
14.5220 12.027
14.5372 11.253
14.5523 11.202
14.5675 11.398
14.5827 11.100
14.5979 10.812
14.6130 10.567
14.6282 11.112
14.6434 10.964
14.6586 10.668
14.6737 10.970
14.6889 10.704
14.7041 10.589
14.7193 10.687
14.7344 10.634
14.7496 10.762
14.7648 10.673
14.7800 10.704
14.7951 10.396
14.8103 10.410
14.8255 10.344
14.8407 10.387
14.8558 10.381
14.8710 10.506
14.8862 10.773
14.9014 10.733
14.9165 10.885
14.9317 10.866
14.9469 10.342
14.9621 10.385
14.9772 10.206
14.9924 10.083
15.0076 10.584
15.0228 10.504
15.0379 10.203
15.0531 10.183
15.0683 10.220
15.0835 10.240
15.0986 10.137
15.1138 10.100
15.1290 10.397
15.1442 10.328
15.1593 10.322
15.1745 10.269
15.1897 10.476
15.2049 10.321
15.2200 10.240
15.2352 10.031
15.2504 10.264
15.2656 10.137
15.2807 10.141
15.2959 10.004
15.3111 9.770
15.3263 9.747
15.3414 9.885
15.3566 10.186
15.3718 10.247
15.3870 10.289
15.4021 9.644
15.4173 10.051
15.4325 10.222
15.4477 10.210
15.4628 10.087
15.4780 10.020
15.4932 9.880
15.5084 9.983
15.5235 9.820
15.5387 10.282
15.5539 9.770
15.5691 9.813
15.5842 9.855
15.5994 9.881
15.6146 9.683
15.6298 9.963
15.6449 9.738
15.6601 9.754
15.6753 9.634
15.6905 9.535
15.7056 9.482
15.7208 9.788
15.7360 9.733
15.7512 9.702
15.7663 9.803
15.7815 9.711
15.7967 9.697
15.8119 9.621
15.8270 9.611
15.8422 9.412
15.8574 9.570
15.8726 9.912
15.8877 9.768
15.9029 9.488
15.9181 9.449
15.9333 9.516
15.9484 9.553
15.9636 9.524
15.9788 9.564
15.9940 9.673
16.0091 9.433
16.0243 9.655
16.0395 9.371
16.0547 9.549
16.0698 9.679
16.0850 9.428
16.1002 9.207
16.1154 9.603
16.1305 9.520
16.1457 9.558
16.1609 9.686
16.1761 9.743
16.1912 9.597
16.2064 9.495
16.2216 9.554
16.2368 9.692
16.2519 9.525
16.2671 9.748
16.2823 9.731
16.2975 9.783
16.3126 9.797
16.3278 9.594
16.3430 9.978
16.3582 9.997
16.3733 9.865
16.3885 9.828
16.4037 10.009
16.4189 10.137
16.4340 9.877
16.4492 9.799
16.4644 9.822
16.4796 9.769
16.4947 9.619
16.5099 9.624
16.5251 9.769
16.5403 9.972
16.5554 9.761
16.5706 9.811
16.5858 9.850
16.6010 9.551
16.6161 9.469
16.6313 9.781
16.6465 9.665
16.6617 9.525
16.6768 9.751
16.6920 9.742
16.7072 9.581
16.7224 9.686
16.7375 10.068
16.7527 10.016
16.7679 9.778
16.7831 9.713
16.7982 9.680
16.8134 9.839
16.8286 9.856
16.8438 9.772
16.8589 9.792
16.8741 9.833
16.8893 9.875
16.9045 9.790
16.9196 9.852
16.9348 9.864
16.9500 9.806
16.9652 9.751
16.9803 9.661
16.9955 9.907
17.0107 9.919
17.0259 9.927
17.0410 10.037
17.0562 10.030
17.0714 10.116
17.0866 10.319
17.1017 10.502
17.1169 10.667
17.1321 10.867
17.1473 11.285
17.1624 11.876
17.1776 12.383
17.1928 13.025
17.2080 13.959
17.2231 15.209
17.2383 16.248
17.2535 17.407
17.2687 18.298
17.2838 18.447
17.2990 17.748
17.3142 16.603
17.3294 16.216
17.3445 16.035
17.3597 15.947
17.3749 16.109
17.3901 15.445
17.4052 14.378
17.4204 13.545
17.4356 12.705
17.4508 12.401
17.4659 12.214
17.4811 11.713
17.4963 11.544
17.5115 11.373
17.5266 10.987
17.5418 10.717
17.5570 10.672
17.5722 11.012
17.5873 11.181
17.6025 10.996
17.6177 11.158
17.6329 11.315
17.6480 11.070
17.6632 11.219
17.6784 11.542
17.6936 11.584
17.7087 11.366
17.7239 11.344
17.7391 11.337
17.7543 10.815
17.7694 10.708
17.7846 10.958
17.7998 10.748
17.8150 10.557
17.8301 10.680
17.8453 10.345
17.8605 10.230
17.8757 10.299
17.8908 10.139
17.9060 10.210
17.9212 10.130
17.9364 10.088
17.9515 9.995
17.9667 10.074
17.9819 10.218
17.9971 10.022
18.0122 10.220
18.0274 10.271
18.0426 9.973
18.0578 10.005
18.0729 10.053
18.0881 10.079
18.1033 9.849
18.1185 9.774
18.1336 9.971
18.1488 9.945
18.1640 9.814
18.1792 9.862
18.1943 10.005
18.2095 9.928
18.2247 9.860
18.2399 9.816
18.2550 9.671
18.2702 9.805
18.2854 9.944
18.3006 9.827
18.3157 9.850
18.3309 9.716
18.3461 9.613
18.3613 9.769
18.3764 9.988
18.3916 9.875
18.4068 9.849
18.4220 9.693
18.4371 9.523
18.4523 9.637
18.4675 9.607
18.4827 9.831
18.4978 9.944
18.5130 9.984
18.5282 9.785
18.5434 9.871
18.5585 9.727
18.5737 9.702
18.5889 9.611
18.6041 9.718
18.6192 9.835
18.6344 9.750
18.6496 9.560
18.6648 9.547
18.6799 9.671
18.6951 9.937
18.7103 9.673
18.7255 9.571
18.7406 9.886
18.7558 9.833
18.7710 9.766
18.7862 10.029
18.8013 9.746
18.8165 9.576
18.8317 9.841
18.8469 10.023
18.8620 9.928
18.8772 9.896
18.8924 9.844
18.9076 9.807
18.9227 9.873
18.9379 9.817
18.9531 10.080
18.9683 10.203
18.9834 10.080
18.9986 9.939
19.0138 10.000
19.0290 9.828
19.0441 9.901
19.0593 10.184
19.0745 10.346
19.0897 10.415
19.1048 10.383
19.1200 10.334
19.1352 10.288
19.1504 10.479
19.1655 10.469
19.1807 10.511
19.1959 10.665
19.2111 10.509
19.2262 10.511
19.2414 10.774
19.2566 10.806
19.2718 10.830
19.2869 10.843
19.3021 10.708
19.3173 10.741
19.3325 10.825
19.3476 10.868
19.3628 10.995
19.3780 11.160
19.3932 11.138
19.4083 11.155
19.4235 11.109
19.4387 11.198
19.4539 11.437
19.4690 11.563
19.4842 11.323
19.4994 11.138
19.5146 11.054
19.5297 11.280
19.5449 11.451
19.5601 11.529
19.5753 11.483
19.5904 11.384
19.6056 11.515
19.6208 11.461
19.6360 11.538
19.6511 11.615
19.6663 11.500
19.6815 11.787
19.6967 11.809
19.7118 11.647
19.7270 11.687
19.7422 11.604
19.7574 11.567
19.7725 11.779
19.7877 12.079
19.8029 12.055
19.8180 11.792
19.8332 11.826
19.8484 12.078
19.8636 12.419
19.8787 12.564
19.8939 12.723
19.9091 13.053
19.9243 13.431
19.9394 13.647
19.9546 13.781
19.9698 14.171
19.9850 14.235
20.0001 14.047
20.0153 13.838
20.0305 13.811
20.0457 13.672
20.0608 13.699
20.0760 13.638
20.0912 13.639
20.1064 13.505
20.1215 13.124
20.1367 13.086
20.1519 12.835
20.1671 12.622
20.1822 12.639
20.1974 12.666
20.2126 12.809
20.2278 12.884
20.2429 12.619
20.2581 12.274
20.2733 12.115
20.2885 11.955
20.3036 11.900
20.3188 11.921
20.3340 12.032
20.3492 12.084
20.3643 11.694
20.3795 11.826
20.3947 11.592
20.4099 11.782
20.4250 11.943
20.4402 12.138
20.4554 12.102
20.4706 11.930
20.4857 11.887
20.5009 11.545
20.5161 11.604
20.5313 11.395
20.5464 11.280
20.5616 11.520
20.5768 11.156
20.5920 11.151
20.6071 11.008
20.6223 10.987
20.6375 10.890
20.6527 10.975
20.6678 10.706
20.6830 10.406
20.6982 10.386
20.7134 10.529
20.7285 10.729
20.7437 10.456
20.7589 10.309
20.7741 10.274
20.7892 10.290
20.8044 10.059
20.8196 10.430
20.8348 10.523
20.8499 10.360
20.8651 10.159
20.8803 10.159
20.8955 10.265
20.9106 10.039
20.9258 10.395
20.9410 10.219
20.9562 10.229
20.9713 10.488
20.9865 10.235
21.0017 10.228
21.0169 10.255
21.0320 9.967
21.0472 10.263
21.0624 9.689
21.0776 9.784
21.0927 9.864
21.1079 10.044
21.1231 9.829
21.1383 9.737
21.1534 9.608
21.1686 9.793
21.1838 9.925
21.1990 9.717
21.2141 9.614
21.2293 9.631
21.2445 9.850
21.2597 9.653
21.2748 9.940
21.2900 9.832
21.3052 9.377
21.3204 9.566
21.3355 9.806
21.3507 9.528
21.3659 9.573
21.3811 9.419
21.3962 9.292
21.4114 9.260
21.4266 9.415
21.4418 9.240
21.4569 9.733
21.4721 9.403
21.4873 9.391
21.5025 9.200
21.5176 9.201
21.5328 9.252
21.5480 9.358
21.5632 9.512
21.5783 9.456
21.5935 9.252
21.6087 9.213
21.6239 9.163
21.6390 9.222
21.6542 9.157
21.6694 9.154
21.6846 9.046
21.6997 8.850
21.7149 8.925
21.7301 9.014
21.7453 8.961
21.7604 8.927
21.7756 9.059
21.7908 9.061
21.8060 8.928
21.8211 9.195
21.8363 9.163
21.8515 8.705
21.8667 8.700
21.8818 8.942
21.8970 9.192
21.9122 9.197
21.9274 8.941
21.9425 8.953
21.9577 9.121
21.9729 8.959
21.9881 8.835
22.0032 8.758
22.0184 8.681
22.0336 8.787
22.0488 9.069
22.0639 8.913
22.0791 8.663
22.0943 8.728
22.1095 8.821
22.1246 8.617
22.1398 8.429
22.1550 8.460
22.1702 8.323
22.1853 8.481
22.2005 8.762
22.2157 8.434
22.2309 8.459
22.2460 8.441
22.2612 8.319
22.2764 8.690
22.2916 8.678
22.3067 8.409
22.3219 8.554
22.3371 8.476
22.3523 8.284
22.3674 8.217
22.3826 8.352
22.3978 8.321
22.4130 8.210
22.4281 8.440
22.4433 8.380
22.4585 8.466
22.4737 8.425
22.4888 8.280
22.5040 8.436
22.5192 8.784
22.5344 8.812
22.5495 8.510
22.5647 8.131
22.5799 8.391
22.5951 8.613
22.6102 8.269
22.6254 8.645
22.6406 8.307
22.6558 8.514
22.6709 8.456
22.6861 8.368
22.7013 8.255
22.7165 7.937
22.7316 6.492
