'Id: "" Comment: "" Operator: "Lab Manager" Anode: "Mo" Scantype: "Still (Eiger2R_500K (1D mode))" TimePerStep: "300" X: "11.8" Y: "9.4" Z: "11.284" 
7.2532 18.717
7.2684 18.845
7.2836 18.774
7.2987 19.059
7.3139 19.040
7.3291 18.887
7.3443 18.913
7.3594 19.055
7.3746 18.959
7.3898 19.215
7.4050 19.259
7.4201 19.324
7.4353 19.236
7.4505 19.545
7.4657 19.808
7.4808 19.583
7.4960 19.399
7.5112 19.718
7.5264 20.163
7.5415 20.019
7.5567 19.943
7.5719 19.963
7.5871 20.236
7.6022 20.099
7.6174 20.040
7.6326 20.038
7.6478 19.856
7.6629 20.059
7.6781 20.550
7.6933 20.394
7.7085 20.055
7.7236 19.783
7.7388 20.215
7.7540 20.565
7.7692 20.411
7.7843 20.466
7.7995 20.348
7.8147 20.296
7.8299 20.548
7.8450 20.743
7.8602 20.737
7.8754 20.148
7.8905 20.248
7.9057 20.470
7.9209 20.474
7.9361 20.600
7.9512 20.761
7.9664 20.949
7.9816 20.773
7.9968 20.664
8.0119 21.001
8.0271 20.669
8.0423 20.887
8.0575 21.151
8.0726 21.238
8.0878 21.110
8.1030 21.224
8.1182 21.247
8.1333 21.423
8.1485 21.365
8.1637 21.244
8.1789 21.499
8.1940 21.541
8.2092 21.362
8.2244 21.203
8.2396 21.302
8.2547 21.732
8.2699 21.615
8.2851 21.696
8.3003 21.422
8.3154 21.839
8.3306 21.873
8.3458 21.958
8.3610 21.833
8.3761 21.308
8.3913 21.562
8.4065 21.498
8.4217 21.483
8.4368 22.034
8.4520 22.116
8.4672 22.239
8.4824 21.788
8.4975 21.665
8.5127 22.063
8.5279 22.037
8.5431 21.621
8.5582 21.425
8.5734 22.356
8.5886 22.039
8.6038 21.994
8.6189 21.896
8.6341 22.227
8.6493 22.141
8.6645 21.831
8.6796 22.426
8.6948 22.212
8.7100 22.197
8.7252 21.950
8.7403 22.519
8.7555 22.843
8.7707 22.530
8.7859 21.971
8.8010 22.738
8.8162 22.726
8.8314 22.347
8.8466 22.503
8.8617 22.364
8.8769 22.552
8.8921 22.523
8.9073 22.545
8.9224 22.974
8.9376 22.651
8.9528 22.634
8.9680 22.606
8.9831 22.476
8.9983 22.560
9.0135 22.801
9.0287 22.557
9.0438 22.455
9.0590 22.586
9.0742 22.705
9.0894 22.838
9.1045 22.677
9.1197 22.676
9.1349 22.728
9.1501 22.948
9.1652 22.891
9.1804 22.469
9.1956 22.932
9.2108 22.663
9.2259 22.679
9.2411 22.730
9.2563 22.769
9.2715 22.935
9.2866 22.962
9.3018 22.773
9.3170 22.815
9.3322 23.039
9.3473 22.964
9.3625 22.795
9.3777 22.714
9.3929 22.689
9.4080 23.064
9.4232 23.018
9.4384 22.747
9.4536 22.484
9.4687 22.895
9.4839 22.896
9.4991 22.912
9.5143 22.821
9.5294 22.735
9.5446 23.191
9.5598 23.219
9.5750 23.233
9.5901 23.105
9.6053 22.906
9.6205 22.927
9.6357 22.830
9.6508 23.149
9.6660 22.885
9.6812 22.927
9.6964 23.685
9.7115 24.135
9.7267 24.217
9.7419 23.975
9.7571 23.907
9.7722 23.604
9.7874 23.269
9.8026 23.529
9.8178 23.516
9.8329 23.290
9.8481 23.288
9.8633 23.053
9.8785 22.945
9.8936 23.098
9.9088 23.227
9.9240 23.334
9.9392 23.388
9.9543 23.101
9.9695 22.866
9.9847 23.117
9.9999 23.083
10.0150 23.084
10.0302 23.327
10.0454 23.535
10.0606 23.221
10.0757 23.022
10.0909 23.050
10.1061 23.049
10.1213 23.068
10.1364 23.127
10.1516 23.322
10.1668 23.053
10.1820 23.240
10.1971 23.416
10.2123 23.135
10.2275 23.088
10.2427 23.530
10.2578 23.126
10.2730 22.872
10.2882 22.929
10.3034 22.938
10.3185 22.656
10.3337 22.506
10.3489 22.711
10.3641 22.912
10.3792 22.999
10.3944 23.009
10.4096 22.520
10.4248 22.844
10.4399 22.737
10.4551 22.710
10.4703 22.689
10.4855 22.644
10.5006 22.787
10.5158 22.627
10.5310 22.418
10.5462 22.570
10.5613 22.514
10.5765 22.739
10.5917 22.595
10.6069 21.995
10.6220 22.226
10.6372 22.655
10.6524 22.445
10.6676 22.068
10.6827 22.355
10.6979 22.557
10.7131 22.490
10.7283 22.551
10.7434 22.496
10.7586 22.107
10.7738 22.160
10.7890 22.651
10.8041 22.651
10.8193 22.105
10.8345 22.299
10.8497 21.919
10.8648 21.890
10.8800 22.076
10.8952 22.158
10.9104 21.816
10.9255 21.905
10.9407 22.124
10.9559 21.929
10.9711 22.087
10.9862 22.296
11.0014 22.322
11.0166 22.331
11.0318 21.800
11.0469 21.468
11.0621 21.765
11.0773 21.766
11.0925 21.775
11.1076 21.731
11.1228 21.600
11.1380 21.336
11.1532 21.157
11.1683 21.787
11.1835 21.761
11.1987 21.558
11.2139 21.531
11.2290 21.393
11.2442 21.640
11.2594 21.652
11.2746 21.714
11.2897 21.665
11.3049 21.711
11.3201 21.219
11.3353 20.867
11.3504 21.210
11.3656 21.497
11.3808 21.590
11.3960 21.216
11.4111 21.023
11.4263 20.876
11.4415 21.041
11.4567 20.816
11.4718 21.008
11.4870 20.847
11.5022 20.742
11.5174 20.516
11.5325 20.645
11.5477 21.026
11.5629 21.040
11.5781 20.687
11.5932 20.651
11.6084 20.924
11.6236 20.356
11.6388 20.200
11.6539 20.455
11.6691 20.718
11.6843 20.692
11.6995 20.275
11.7146 20.622
11.7298 20.047
11.7450 19.988
11.7602 20.124
11.7753 20.412
11.7905 20.527
11.8057 20.562
11.8209 20.496
11.8360 20.268
11.8512 19.953
11.8664 19.560
11.8816 19.954
11.8967 19.903
11.9119 19.326
11.9271 19.235
11.9423 19.408
11.9574 19.409
11.9726 19.374
11.9878 19.081
12.0030 19.497
12.0181 19.727
12.0333 19.272
12.0485 19.080
12.0637 18.857
12.0788 18.835
12.0940 18.509
12.1092 18.379
12.1244 18.614
12.1395 18.481
12.1547 18.430
12.1699 18.343
12.1851 18.301
12.2002 18.361
12.2154 18.328
12.2306 18.376
12.2458 18.258
12.2609 17.819
12.2761 18.024
12.2913 17.988
12.3065 17.855
12.3216 17.588
12.3368 17.334
12.3520 17.539
12.3672 17.240
12.3823 17.046
12.3975 17.057
12.4127 17.232
12.4279 17.027
12.4430 17.030
12.4582 17.158
12.4734 16.700
12.4886 16.537
12.5037 16.411
12.5189 16.386
12.5341 16.356
12.5493 16.472
12.5644 16.315
12.5796 16.278
12.5948 16.177
12.6100 15.974
12.6251 15.815
12.6403 16.068
12.6555 15.973
12.6707 15.522
12.6858 15.450
12.7010 15.574
12.7162 15.468
12.7314 15.424
12.7465 15.287
12.7617 15.259
12.7769 14.956
12.7921 14.885
12.8072 15.204
12.8224 15.299
12.8376 15.050
12.8528 14.922
12.8679 14.908
12.8831 14.875
12.8983 14.634
12.9135 14.631
12.9286 14.603
12.9438 14.448
12.9590 14.345
12.9742 14.170
12.9893 14.099
13.0045 14.069
13.0197 14.139
13.0349 14.168
13.0500 14.156
13.0652 13.823
13.0804 13.690
13.0956 13.799
13.1107 13.782
13.1259 13.717
13.1411 13.551
13.1563 13.446
13.1714 13.347
13.1866 13.411
13.2018 13.446
13.2170 13.254
13.2321 13.370
13.2473 13.374
13.2625 13.201
13.2777 13.365
13.2928 13.149
13.3080 13.091
13.3232 13.101
13.3384 12.885
13.3535 12.906
13.3687 13.023
13.3839 13.152
13.3991 13.024
13.4142 12.995
13.4294 12.759
13.4446 12.571
13.4598 12.766
13.4749 12.798
13.4901 12.664
13.5053 12.834
13.5205 12.722
13.5356 12.501
13.5508 12.611
13.5660 12.576
13.5812 12.294
13.5963 12.262
13.6115 12.365
13.6267 12.133
13.6419 11.881
13.6570 12.167
13.6722 12.373
13.6874 12.048
13.7026 12.133
13.7177 12.122
13.7329 11.807
13.7481 11.979
13.7633 12.224
13.7784 12.225
13.7936 12.115
13.8088 12.110
13.8239 12.160
13.8391 12.174
13.8543 12.260
13.8695 12.276
13.8846 12.304
13.8998 12.165
13.9150 12.227
13.9302 11.803
13.9453 11.753
13.9605 11.929
13.9757 12.042
13.9909 11.802
14.0060 11.621
14.0212 11.417
14.0364 11.614
14.0516 11.486
14.0667 11.341
14.0819 11.560
14.0971 11.361
14.1123 11.370
14.1274 11.433
14.1426 11.508
14.1578 11.475
14.1730 11.438
14.1881 11.351
14.2033 11.417
14.2185 11.518
14.2337 11.367
14.2488 11.566
14.2640 11.372
14.2792 11.608
14.2944 11.767
14.3095 11.766
14.3247 12.282
14.3399 12.399
14.3551 12.261
14.3702 12.413
14.3854 12.879
14.4006 13.241
14.4158 13.346
14.4309 13.277
14.4461 13.238
14.4613 12.884
14.4765 12.589
14.4916 12.921
14.5068 12.476
14.5220 12.170
14.5372 11.981
14.5523 11.740
14.5675 11.733
14.5827 11.578
14.5979 11.384
14.6130 10.967
14.6282 10.695
14.6434 10.711
14.6586 10.568
14.6737 10.767
14.6889 10.710
14.7041 10.492
14.7193 10.521
14.7344 10.806
14.7496 10.591
14.7648 10.612
14.7800 10.323
14.7951 10.571
14.8103 10.874
14.8255 10.772
14.8407 10.470
14.8558 10.664
14.8710 10.125
14.8862 10.277
14.9014 10.654
14.9165 10.617
14.9317 10.473
14.9469 10.641
14.9621 10.547
14.9772 10.439
14.9924 10.083
15.0076 10.260
15.0228 10.245
15.0379 10.500
15.0531 10.633
15.0683 10.080
15.0835 10.322
15.0986 10.229
15.1138 10.260
15.1290 10.270
15.1442 10.435
15.1593 10.394
15.1745 9.857
15.1897 9.911
15.2049 10.149
15.2200 10.221
15.2352 10.132
15.2504 10.554
15.2656 9.920
15.2807 10.347
15.2959 10.320
15.3111 10.249
15.3263 10.114
15.3414 9.779
15.3566 10.134
15.3718 10.036
15.3870 10.091
15.4021 10.334
15.4173 10.291
15.4325 10.327
15.4477 10.339
15.4628 9.895
15.4780 10.134
15.4932 9.800
15.5084 9.897
15.5235 9.818
15.5387 10.280
15.5539 10.158
15.5691 10.170
15.5842 9.777
15.5994 9.869
15.6146 9.721
15.6298 9.863
15.6449 9.867
15.6601 9.720
15.6753 9.658
15.6905 9.400
15.7056 9.699
15.7208 9.899
15.7360 9.893
15.7512 9.638
15.7663 9.677
15.7815 9.472
15.7967 9.758
15.8119 9.745
15.8270 9.664
15.8422 9.707
15.8574 9.687
15.8726 9.598
15.8877 9.688
15.9029 9.511
15.9181 9.541
15.9333 9.632
15.9484 9.398
15.9636 9.717
15.9788 9.351
15.9940 9.503
16.0091 9.676
16.0243 9.536
16.0395 9.603
16.0547 9.725
16.0698 9.565
16.0850 9.502
16.1002 9.645
16.1154 9.852
16.1305 9.675
16.1457 9.588
16.1609 9.520
16.1761 9.686
16.1912 9.670
16.2064 9.644
16.2216 9.863
16.2368 9.977
16.2519 9.775
16.2671 9.824
16.2823 9.622
16.2975 9.744
16.3126 9.556
16.3278 9.638
16.3430 9.772
16.3582 9.661
16.3733 9.996
16.3885 9.895
16.4037 9.857
16.4189 9.833
16.4340 9.544
16.4492 9.485
16.4644 9.608
16.4796 9.820
16.4947 9.815
16.5099 9.774
16.5251 9.895
16.5403 9.716
16.5554 9.574
16.5706 9.637
16.5858 9.545
16.6010 9.589
16.6161 9.757
16.6313 9.722
16.6465 9.539
16.6617 9.828
16.6768 9.888
16.6920 9.799
16.7072 10.019
16.7224 10.163
16.7375 10.026
16.7527 9.980
16.7679 9.790
16.7831 9.782
16.7982 9.920
16.8134 9.968
16.8286 10.057
16.8438 9.985
16.8589 9.831
16.8741 9.834
16.8893 9.710
16.9045 9.634
16.9196 9.698
16.9348 9.717
16.9500 9.915
16.9652 9.845
16.9803 9.823
16.9955 9.705
17.0107 9.695
17.0259 9.772
17.0410 9.922
17.0562 10.120
17.0714 10.132
17.0866 10.194
17.1017 10.425
17.1169 10.566
17.1321 10.730
17.1473 11.183
17.1624 11.611
17.1776 11.944
17.1928 12.676
17.2080 13.943
17.2231 15.157
17.2383 16.219
17.2535 17.424
17.2687 18.342
17.2838 18.470
17.2990 17.817
17.3142 16.877
17.3294 16.186
17.3445 15.798
17.3597 15.836
17.3749 15.826
17.3901 15.118
17.4052 13.902
17.4204 12.832
17.4356 12.190
17.4508 11.894
17.4659 11.607
17.4811 11.310
17.4963 11.242
17.5115 10.960
17.5266 10.509
17.5418 10.552
17.5570 10.841
17.5722 10.760
17.5873 10.752
17.6025 10.761
17.6177 10.762
17.6329 10.860
17.6480 10.885
17.6632 11.291
17.6784 11.938
17.6936 12.041
17.7087 12.017
17.7239 12.070
17.7391 11.809
17.7543 11.573
17.7694 11.478
17.7846 11.467
17.7998 11.489
17.8150 11.445
17.8301 11.108
17.8453 10.897
17.8605 10.789
17.8757 10.487
17.8908 10.243
17.9060 10.373
17.9212 10.361
17.9364 10.233
17.9515 10.367
17.9667 10.387
17.9819 10.328
17.9971 10.253
18.0122 10.119
18.0274 10.005
18.0426 10.173
18.0578 10.433
18.0729 10.305
18.0881 10.100
18.1033 10.053
18.1185 9.882
18.1336 9.754
18.1488 9.745
18.1640 9.843
18.1792 9.786
18.1943 9.951
18.2095 9.994
18.2247 9.924
18.2399 9.798
18.2550 9.946
18.2702 9.879
18.2854 9.686
18.3006 9.637
18.3157 9.759
18.3309 9.576
18.3461 9.513
18.3613 9.811
18.3764 9.831
18.3916 9.836
18.4068 9.672
18.4220 9.590
18.4371 9.779
18.4523 9.767
18.4675 9.765
18.4827 9.769
18.4978 9.604
18.5130 9.570
18.5282 9.680
18.5434 9.760
18.5585 9.819
18.5737 9.724
18.5889 9.672
18.6041 9.661
18.6192 9.527
18.6344 9.596
18.6496 9.774
18.6648 9.899
18.6799 9.760
18.6951 9.960
18.7103 9.883
18.7255 9.593
18.7406 9.767
18.7558 9.888
18.7710 9.689
18.7862 9.874
18.8013 9.816
18.8165 9.531
18.8317 9.911
18.8469 9.978
18.8620 9.905
18.8772 9.796
18.8924 9.862
18.9076 9.998
18.9227 9.890
18.9379 10.055
18.9531 9.931
18.9683 9.716
18.9834 9.908
18.9986 10.051
19.0138 9.852
19.0290 9.735
19.0441 9.932
19.0593 10.109
19.0745 10.221
19.0897 10.366
19.1048 10.447
19.1200 10.470
19.1352 10.375
19.1504 10.439
19.1655 10.475
19.1807 10.495
19.1959 10.709
19.2111 10.478
19.2262 10.359
19.2414 10.537
19.2566 10.734
19.2718 10.862
19.2869 10.869
19.3021 10.902
19.3173 10.887
19.3325 11.082
19.3476 11.047
19.3628 10.832
19.3780 11.044
19.3932 11.002
19.4083 10.740
19.4235 11.111
19.4387 11.238
19.4539 11.333
19.4690 11.485
19.4842 11.227
19.4994 11.220
19.5146 11.294
19.5297 11.299
19.5449 11.112
19.5601 11.019
19.5753 11.090
19.5904 11.305
19.6056 11.447
19.6208 11.392
19.6360 11.529
19.6511 11.744
19.6663 11.555
19.6815 11.646
19.6967 11.714
19.7118 11.415
19.7270 11.431
19.7422 11.617
19.7574 11.475
19.7725 11.271
19.7877 11.430
19.8029 11.752
19.8180 12.080
19.8332 12.157
19.8484 12.036
19.8636 12.312
19.8787 12.397
19.8939 12.700
19.9091 13.052
19.9243 13.385
19.9394 13.703
19.9546 13.836
19.9698 14.349
19.9850 14.486
20.0001 14.153
20.0153 14.036
20.0305 13.593
20.0457 13.359
20.0608 13.637
20.0760 13.729
20.0912 13.631
20.1064 13.352
20.1215 13.391
20.1367 13.127
20.1519 13.076
20.1671 12.916
20.1822 12.658
20.1974 12.735
20.2126 12.328
20.2278 12.139
20.2429 12.475
20.2581 12.199
20.2733 11.857
20.2885 11.710
20.3036 11.665
20.3188 11.612
20.3340 11.862
20.3492 11.751
20.3643 11.749
20.3795 11.588
20.3947 11.531
20.4099 11.437
20.4250 11.368
20.4402 11.666
20.4554 11.778
20.4706 12.136
20.4857 12.133
20.5009 12.107
20.5161 11.875
20.5313 11.795
20.5464 11.607
20.5616 11.179
20.5768 11.351
20.5920 11.478
20.6071 11.470
20.6223 11.023
20.6375 11.042
20.6527 10.912
20.6678 10.517
20.6830 10.742
20.6982 10.743
20.7134 10.406
20.7285 10.537
20.7437 10.749
20.7589 10.587
20.7741 10.140
20.7892 10.171
20.8044 10.348
20.8196 10.018
20.8348 10.173
20.8499 10.131
20.8651 10.179
20.8803 10.009
20.8955 10.169
20.9106 10.075
20.9258 10.006
20.9410 10.147
20.9562 10.242
20.9713 10.103
20.9865 10.156
21.0017 9.979
21.0169 9.884
21.0320 9.948
21.0472 10.088
21.0624 10.097
21.0776 9.914
21.0927 9.821
21.1079 9.785
21.1231 9.656
21.1383 9.723
21.1534 9.884
21.1686 9.740
21.1838 9.731
21.1990 10.094
21.2141 9.935
21.2293 9.524
21.2445 9.768
21.2597 9.473
21.2748 9.521
21.2900 9.656
21.3052 9.696
21.3204 9.554
21.3355 9.216
21.3507 9.722
21.3659 9.545
21.3811 9.521
21.3962 9.694
21.4114 9.499
21.4266 9.422
21.4418 9.343
21.4569 9.582
21.4721 9.449
21.4873 9.633
21.5025 9.174
21.5176 9.371
21.5328 9.388
21.5480 9.263
21.5632 9.176
21.5783 9.149
21.5935 9.255
21.6087 9.075
21.6239 9.198
21.6390 9.313
21.6542 9.105
21.6694 9.048
21.6846 8.903
21.6997 9.259
21.7149 9.182
21.7301 9.217
21.7453 9.049
21.7604 8.963
21.7756 9.118
21.7908 9.103
21.8060 9.041
21.8211 9.067
21.8363 9.099
21.8515 9.092
21.8667 9.049
21.8818 9.005
21.8970 8.979
21.9122 8.870
21.9274 8.903
21.9425 8.842
21.9577 8.868
21.9729 8.831
21.9881 8.702
22.0032 8.800
22.0184 8.927
22.0336 8.679
22.0488 8.592
22.0639 8.756
22.0791 8.814
22.0943 8.763
22.1095 8.652
22.1246 8.552
22.1398 8.617
22.1550 8.509
22.1702 8.660
22.1853 8.606
22.2005 8.353
22.2157 8.408
22.2309 8.604
22.2460 8.330
22.2612 8.330
22.2764 8.415
22.2916 8.442
22.3067 8.432
22.3219 8.332
22.3371 8.437
22.3523 8.416
22.3674 8.427
22.3826 8.479
22.3978 8.600
22.4130 8.484
22.4281 8.604
22.4433 8.325
22.4585 8.629
22.4737 8.520
22.4888 8.531
22.5040 8.250
22.5192 8.257
22.5344 8.161
22.5495 8.394
22.5647 8.370
22.5799 8.170
22.5951 8.492
22.6102 8.443
22.6254 8.381
22.6406 8.450
22.6558 8.106
22.6709 8.191
22.6861 8.396
22.7013 8.401
22.7165 7.973
22.7316 6.250
