'Id: "" Comment: "" Operator: "Lab Manager" Anode: "Mo" Scantype: "Still (Eiger2R_500K (1D mode))" TimePerStep: "300" X: "11.8" Y: "9.4" Z: "11.284" 
7.2532 18.564
7.2684 18.805
7.2836 18.731
7.2987 18.702
7.3139 18.818
7.3291 19.200
7.3443 19.132
7.3594 19.064
7.3746 19.146
7.3898 19.370
7.4050 19.613
7.4201 19.528
7.4353 19.184
7.4505 19.465
7.4657 19.867
7.4808 19.617
7.4960 19.606
7.5112 19.596
7.5264 19.375
7.5415 20.004
7.5567 19.670
7.5719 19.930
7.5871 19.900
7.6022 20.085
7.6174 19.881
7.6326 19.634
7.6478 19.839
7.6629 20.158
7.6781 20.482
7.6933 20.419
7.7085 20.590
7.7236 20.472
7.7388 20.303
7.7540 20.306
7.7692 20.500
7.7843 20.426
7.7995 20.663
7.8147 20.830
7.8299 20.536
7.8450 20.517
7.8602 20.584
7.8754 20.635
7.8905 20.558
7.9057 20.733
7.9209 20.827
7.9361 20.689
7.9512 20.685
7.9664 20.646
7.9816 20.858
7.9968 20.993
8.0119 20.785
8.0271 21.067
8.0423 21.311
8.0575 20.875
8.0726 20.962
8.0878 21.112
8.1030 21.388
8.1182 21.208
8.1333 21.289
8.1485 21.069
8.1637 21.691
8.1789 21.579
8.1940 21.168
8.2092 21.276
8.2244 21.331
8.2396 21.236
8.2547 21.301
8.2699 21.134
8.2851 21.457
8.3003 21.446
8.3154 21.562
8.3306 21.479
8.3458 21.692
8.3610 21.719
8.3761 22.091
8.3913 21.458
8.4065 21.857
8.4217 22.035
8.4368 22.010
8.4520 22.166
8.4672 21.960
8.4824 21.641
8.4975 22.003
8.5127 21.861
8.5279 22.038
8.5431 21.953
8.5582 21.954
8.5734 22.302
8.5886 21.930
8.6038 22.698
8.6189 22.175
8.6341 22.197
8.6493 21.790
8.6645 22.484
8.6796 22.269
8.6948 21.955
8.7100 22.445
8.7252 22.340
8.7403 21.778
8.7555 22.738
8.7707 22.463
8.7859 22.673
8.8010 22.176
8.8162 22.179
8.8314 22.158
8.8466 22.599
8.8617 22.953
8.8769 22.800
8.8921 22.443
8.9073 22.662
8.9224 22.609
8.9376 22.852
8.9528 22.212
8.9680 22.580
8.9831 22.374
8.9983 23.141
9.0135 22.789
9.0287 22.370
9.0438 23.101
9.0590 22.660
9.0742 22.882
9.0894 22.527
9.1045 22.994
9.1197 22.909
9.1349 22.797
9.1501 22.739
9.1652 22.598
9.1804 22.803
9.1956 23.202
9.2108 23.178
9.2259 23.051
9.2411 22.992
9.2563 22.738
9.2715 23.153
9.2866 23.035
9.3018 22.819
9.3170 22.586
9.3322 22.745
9.3473 22.680
9.3625 22.888
9.3777 22.678
9.3929 22.872
9.4080 22.840
9.4232 23.166
9.4384 23.243
9.4536 23.141
9.4687 23.202
9.4839 23.389
9.4991 23.230
9.5143 22.974
9.5294 23.112
9.5446 23.296
9.5598 23.274
9.5750 23.275
9.5901 23.224
9.6053 23.432
9.6205 23.564
9.6357 23.197
9.6508 23.288
9.6660 23.495
9.6812 23.683
9.6964 23.943
9.7115 23.955
9.7267 23.813
9.7419 23.959
9.7571 24.025
9.7722 23.962
9.7874 23.553
9.8026 23.673
9.8178 23.859
9.8329 23.621
9.8481 23.424
9.8633 23.048
9.8785 23.182
9.8936 23.298
9.9088 23.182
9.9240 23.250
9.9392 23.291
9.9543 23.150
9.9695 22.882
9.9847 22.774
9.9999 22.761
10.0150 23.078
10.0302 23.334
10.0454 23.372
10.0606 23.213
10.0757 23.021
10.0909 22.998
10.1061 23.221
10.1213 23.445
10.1364 23.541
10.1516 23.501
10.1668 23.298
10.1820 23.160
10.1971 23.247
10.2123 23.223
10.2275 23.101
10.2427 23.064
10.2578 22.746
10.2730 22.810
10.2882 23.259
10.3034 23.168
10.3185 22.624
10.3337 22.610
10.3489 22.774
10.3641 22.836
10.3792 23.011
10.3944 22.847
10.4096 22.538
10.4248 22.603
10.4399 22.613
10.4551 22.660
10.4703 22.689
10.4855 22.569
10.5006 22.385
10.5158 22.611
10.5310 22.696
10.5462 22.638
10.5613 22.194
10.5765 22.432
10.5917 22.140
10.6069 22.391
10.6220 22.837
10.6372 22.750
10.6524 22.827
10.6676 22.876
10.6827 22.825
10.6979 22.953
10.7131 22.668
10.7283 22.523
10.7434 22.404
10.7586 22.294
10.7738 22.760
10.7890 22.111
10.8041 22.406
10.8193 22.586
10.8345 22.387
10.8497 22.087
10.8648 22.275
10.8800 22.411
10.8952 22.061
10.9104 21.891
10.9255 22.060
10.9407 21.832
10.9559 21.889
10.9711 21.947
10.9862 22.049
11.0014 22.202
11.0166 21.985
11.0318 21.815
11.0469 22.031
11.0621 22.101
11.0773 21.894
11.0925 22.057
11.1076 22.032
11.1228 21.697
11.1380 21.805
11.1532 21.635
11.1683 21.781
11.1835 21.896
11.1987 21.817
11.2139 21.933
11.2290 21.894
11.2442 21.558
11.2594 21.454
11.2746 21.496
11.2897 21.511
11.3049 21.650
11.3201 21.660
11.3353 21.816
11.3504 21.409
11.3656 21.110
11.3808 21.479
11.3960 21.158
11.4111 21.161
11.4263 21.247
11.4415 21.071
11.4567 20.965
11.4718 21.101
11.4870 21.185
11.5022 20.920
11.5174 20.990
11.5325 21.353
11.5477 20.986
11.5629 21.089
11.5781 20.666
11.5932 20.673
11.6084 21.041
11.6236 21.014
11.6388 20.747
11.6539 20.753
11.6691 20.266
11.6843 20.413
11.6995 20.503
11.7146 20.235
11.7298 20.801
11.7450 20.628
11.7602 20.508
11.7753 20.142
11.7905 20.435
11.8057 20.109
11.8209 19.912
11.8360 20.027
11.8512 19.923
11.8664 19.836
11.8816 19.546
11.8967 19.746
11.9119 19.675
11.9271 19.525
11.9423 19.497
11.9574 19.233
11.9726 19.191
11.9878 19.576
12.0030 19.202
12.0181 19.161
12.0333 18.982
12.0485 18.958
12.0637 18.898
12.0788 18.545
12.0940 18.852
12.1092 18.924
12.1244 18.624
12.1395 18.529
12.1547 18.435
12.1699 18.063
12.1851 18.245
12.2002 18.529
12.2154 18.210
12.2306 17.833
12.2458 17.981
12.2609 18.262
12.2761 17.938
12.2913 17.705
12.3065 17.735
12.3216 17.710
12.3368 17.507
12.3520 17.437
12.3672 17.482
12.3823 17.172
12.3975 17.254
12.4127 17.185
12.4279 16.822
12.4430 16.711
12.4582 16.892
12.4734 16.821
12.4886 16.731
12.5037 16.475
12.5189 16.534
12.5341 16.585
12.5493 16.309
12.5644 16.058
12.5796 16.148
12.5948 16.144
12.6100 16.108
12.6251 15.890
12.6403 15.719
12.6555 16.167
12.6707 16.136
12.6858 15.642
12.7010 15.610
12.7162 15.422
12.7314 15.554
12.7465 15.493
12.7617 15.301
12.7769 15.202
12.7921 15.151
12.8072 15.226
12.8224 14.942
12.8376 14.843
12.8528 15.080
12.8679 15.231
12.8831 15.332
12.8983 14.818
12.9135 14.296
12.9286 14.413
12.9438 14.541
12.9590 14.443
12.9742 14.343
12.9893 14.343
13.0045 14.231
13.0197 14.116
13.0349 13.973
13.0500 14.033
13.0652 14.061
13.0804 13.938
13.0956 13.870
13.1107 13.710
13.1259 13.619
13.1411 13.568
13.1563 13.437
13.1714 13.380
13.1866 13.401
13.2018 13.492
13.2170 13.650
13.2321 13.539
13.2473 13.331
13.2625 13.306
13.2777 13.239
13.2928 13.250
13.3080 13.277
13.3232 13.076
13.3384 13.035
13.3535 13.180
13.3687 13.359
13.3839 13.348
13.3991 13.223
13.4142 12.993
13.4294 12.678
13.4446 12.561
13.4598 12.444
13.4749 12.549
13.4901 12.683
13.5053 12.834
13.5205 12.768
13.5356 12.479
13.5508 12.389
13.5660 12.489
13.5812 12.420
13.5963 12.195
13.6115 12.165
13.6267 12.234
13.6419 12.278
13.6570 12.225
13.6722 12.265
13.6874 11.948
13.7026 12.018
13.7177 12.253
13.7329 12.259
13.7481 12.166
13.7633 12.005
13.7784 12.245
13.7936 12.008
13.8088 12.167
13.8239 12.518
13.8391 12.604
13.8543 12.481
13.8695 12.265
13.8846 12.298
13.8998 12.263
13.9150 12.159
13.9302 12.265
13.9453 12.471
13.9605 12.335
13.9757 12.064
13.9909 11.834
14.0060 11.786
14.0212 11.854
14.0364 11.793
14.0516 11.677
14.0667 11.373
14.0819 11.466
14.0971 11.729
14.1123 11.595
14.1274 11.739
14.1426 11.754
14.1578 11.547
14.1730 11.455
14.1881 11.322
14.2033 11.667
14.2185 11.816
14.2337 11.772
14.2488 11.964
14.2640 12.012
14.2792 11.916
14.2944 11.960
14.3095 11.904
14.3247 11.955
14.3399 12.245
14.3551 12.165
14.3702 12.671
14.3854 12.782
14.4006 12.726
14.4158 13.014
14.4309 12.885
14.4461 12.761
14.4613 12.871
14.4765 12.118
14.4916 11.956
14.5068 12.005
14.5220 11.773
14.5372 11.422
14.5523 11.250
14.5675 11.396
14.5827 11.027
14.5979 11.292
14.6130 10.689
14.6282 10.813
14.6434 10.719
14.6586 10.761
14.6737 10.664
14.6889 10.910
14.7041 10.801
14.7193 10.968
14.7344 10.777
14.7496 10.227
14.7648 10.159
14.7800 10.845
14.7951 10.899
14.8103 10.612
14.8255 10.614
14.8407 10.562
14.8558 10.603
14.8710 10.521
14.8862 10.652
14.9014 10.684
14.9165 10.709
14.9317 10.703
14.9469 10.482
14.9621 10.675
14.9772 9.930
14.9924 10.448
15.0076 10.379
15.0228 10.486
15.0379 10.263
15.0531 10.380
15.0683 10.252
15.0835 10.138
15.0986 10.264
15.1138 10.484
15.1290 10.266
15.1442 10.208
15.1593 9.991
15.1745 10.023
15.1897 10.332
15.2049 10.095
15.2200 10.174
15.2352 9.765
15.2504 10.415
15.2656 10.150
15.2807 10.003
15.2959 10.129
15.3111 10.273
15.3263 9.977
15.3414 10.024
15.3566 10.224
15.3718 10.079
15.3870 10.079
15.4021 10.040
15.4173 10.006
15.4325 10.143
15.4477 10.279
15.4628 10.193
15.4780 10.550
15.4932 10.321
15.5084 10.115
15.5235 10.169
15.5387 10.124
15.5539 9.727
15.5691 10.491
15.5842 9.962
15.5994 9.786
15.6146 9.964
15.6298 9.754
15.6449 9.787
15.6601 9.954
15.6753 9.679
15.6905 9.546
15.7056 9.792
15.7208 9.837
15.7360 9.803
15.7512 9.727
15.7663 10.026
15.7815 9.622
15.7967 9.528
15.8119 9.802
15.8270 9.860
15.8422 9.775
15.8574 9.831
15.8726 9.782
15.8877 9.555
15.9029 9.394
15.9181 9.324
15.9333 9.597
15.9484 9.865
15.9636 9.549
15.9788 9.642
15.9940 9.506
16.0091 9.678
16.0243 9.600
16.0395 9.529
16.0547 9.631
16.0698 9.688
16.0850 9.760
16.1002 9.726
16.1154 9.492
16.1305 9.485
16.1457 9.507
16.1609 9.529
16.1761 9.444
16.1912 9.635
16.2064 9.653
16.2216 9.831
16.2368 9.751
16.2519 9.917
16.2671 9.839
16.2823 9.779
16.2975 9.849
16.3126 9.959
16.3278 9.851
16.3430 9.884
16.3582 10.067
16.3733 10.119
16.3885 9.882
16.4037 9.752
16.4189 9.773
16.4340 9.496
16.4492 9.876
16.4644 9.820
16.4796 9.777
16.4947 9.663
16.5099 9.613
16.5251 9.601
16.5403 9.543
16.5554 9.604
16.5706 9.444
16.5858 9.343
16.6010 9.605
16.6161 9.671
16.6313 9.580
16.6465 9.683
16.6617 9.669
16.6768 9.593
16.6920 9.747
16.7072 9.973
16.7224 10.165
16.7375 10.316
16.7527 10.107
16.7679 9.917
16.7831 9.958
16.7982 9.650
16.8134 9.592
16.8286 9.702
16.8438 9.594
16.8589 9.827
16.8741 9.849
16.8893 9.898
16.9045 9.897
16.9196 9.732
16.9348 9.662
16.9500 9.710
16.9652 9.704
16.9803 9.761
16.9955 9.946
17.0107 10.029
17.0259 10.051
17.0410 10.088
17.0562 9.975
17.0714 9.907
17.0866 10.123
17.1017 10.371
17.1169 10.725
17.1321 11.229
17.1473 11.393
17.1624 11.692
17.1776 12.290
17.1928 12.964
17.2080 13.908
17.2231 14.998
17.2383 16.270
17.2535 17.464
17.2687 18.285
17.2838 18.707
17.2990 18.117
17.3142 16.760
17.3294 15.999
17.3445 16.209
17.3597 16.415
17.3749 16.008
17.3901 15.253
17.4052 14.201
17.4204 13.348
17.4356 12.510
17.4508 11.919
17.4659 11.731
17.4811 11.393
17.4963 11.412
17.5115 11.435
17.5266 11.282
17.5418 11.271
17.5570 11.181
17.5722 11.030
17.5873 11.008
17.6025 11.008
17.6177 11.186
17.6329 11.363
17.6480 11.464
17.6632 11.461
17.6784 11.430
17.6936 11.548
17.7087 11.580
17.7239 11.368
17.7391 11.044
17.7543 11.022
17.7694 10.847
17.7846 10.569
17.7998 10.621
17.8150 10.740
17.8301 10.729
17.8453 10.538
17.8605 10.466
17.8757 10.542
17.8908 10.408
17.9060 10.261
17.9212 10.331
17.9364 10.064
17.9515 9.911
17.9667 10.286
17.9819 10.252
17.9971 10.251
18.0122 10.134
18.0274 10.061
18.0426 10.254
18.0578 10.209
18.0729 10.251
18.0881 10.253
18.1033 10.118
18.1185 10.020
18.1336 9.779
18.1488 9.894
18.1640 9.916
18.1792 9.812
18.1943 9.846
18.2095 10.054
18.2247 10.019
18.2399 10.038
18.2550 9.855
18.2702 10.016
18.2854 10.060
18.3006 10.038
18.3157 10.043
18.3309 9.811
18.3461 9.739
18.3613 10.098
18.3764 10.110
18.3916 9.648
18.4068 9.701
18.4220 9.729
18.4371 9.696
18.4523 9.762
18.4675 9.914
18.4827 9.772
18.4978 9.552
18.5130 9.815
18.5282 9.889
18.5434 9.800
18.5585 9.726
18.5737 9.626
18.5889 9.783
18.6041 9.827
18.6192 9.762
18.6344 9.687
18.6496 9.744
18.6648 9.917
18.6799 9.864
18.6951 9.948
18.7103 9.938
18.7255 9.774
18.7406 9.670
18.7558 9.707
18.7710 9.608
18.7862 9.909
18.8013 9.823
18.8165 9.677
18.8317 9.891
18.8469 9.868
18.8620 9.871
18.8772 9.940
18.8924 9.996
18.9076 10.247
18.9227 10.123
18.9379 9.834
18.9531 10.020
18.9683 10.012
18.9834 9.867
18.9986 10.103
19.0138 10.110
19.0290 10.045
19.0441 10.150
19.0593 10.186
19.0745 10.248
19.0897 10.341
19.1048 10.537
19.1200 10.574
19.1352 10.553
19.1504 10.512
19.1655 10.573
19.1807 10.557
19.1959 10.625
19.2111 10.725
19.2262 10.876
19.2414 11.003
19.2566 11.099
19.2718 10.945
19.2869 10.948
19.3021 10.939
19.3173 10.995
19.3325 11.226
19.3476 11.075
19.3628 11.166
19.3780 11.208
19.3932 11.133
19.4083 11.180
19.4235 11.473
19.4387 11.413
19.4539 11.316
19.4690 11.489
19.4842 11.527
19.4994 11.448
19.5146 11.792
19.5297 11.868
19.5449 11.684
19.5601 11.750
19.5753 11.774
19.5904 11.725
19.6056 11.747
19.6208 11.655
19.6360 11.688
19.6511 11.749
19.6663 11.766
19.6815 11.705
19.6967 11.767
19.7118 11.988
19.7270 11.969
19.7422 11.840
19.7574 11.998
19.7725 12.105
19.7877 11.805
19.8029 11.891
19.8180 12.100
19.8332 12.073
19.8484 12.177
19.8636 12.599
19.8787 12.757
19.8939 12.931
19.9091 13.304
19.9243 13.638
19.9394 14.007
19.9546 14.477
19.9698 14.902
19.9850 14.675
20.0001 14.532
20.0153 14.350
20.0305 14.145
20.0457 14.074
20.0608 14.075
20.0760 14.114
20.0912 13.991
20.1064 14.055
20.1215 13.786
20.1367 13.549
20.1519 13.567
20.1671 13.173
20.1822 13.234
20.1974 13.242
20.2126 12.719
20.2278 12.866
20.2429 12.653
20.2581 12.619
20.2733 12.508
20.2885 12.201
20.3036 12.233
20.3188 12.165
20.3340 12.233
20.3492 12.351
20.3643 12.210
20.3795 11.786
20.3947 11.829
20.4099 11.878
20.4250 11.745
20.4402 11.793
20.4554 11.710
20.4706 11.835
20.4857 11.928
20.5009 11.725
20.5161 11.452
20.5313 11.554
20.5464 11.523
20.5616 11.325
20.5768 11.061
20.5920 11.076
20.6071 11.048
20.6223 11.031
20.6375 10.919
20.6527 10.843
20.6678 10.846
20.6830 10.581
20.6982 10.863
20.7134 10.449
20.7285 10.451
20.7437 10.383
20.7589 10.438
20.7741 10.593
20.7892 10.196
20.8044 10.634
20.8196 10.588
20.8348 10.171
20.8499 10.311
20.8651 10.357
20.8803 10.204
20.8955 10.297
20.9106 10.141
20.9258 10.301
20.9410 10.063
20.9562 9.962
20.9713 10.363
20.9865 10.304
21.0017 10.410
21.0169 10.334
21.0320 10.035
21.0472 10.405
21.0624 9.978
21.0776 10.011
21.0927 10.152
21.1079 9.858
21.1231 9.745
21.1383 10.097
21.1534 10.236
21.1686 9.691
21.1838 9.983
21.1990 10.079
21.2141 9.773
21.2293 9.657
21.2445 9.806
21.2597 9.934
21.2748 9.823
21.2900 9.411
21.3052 9.600
21.3204 9.528
21.3355 9.577
21.3507 9.669
21.3659 9.465
21.3811 9.273
21.3962 9.660
21.4114 9.759
21.4266 9.495
21.4418 9.658
21.4569 9.730
21.4721 9.161
21.4873 9.410
21.5025 9.358
21.5176 9.256
21.5328 9.285
21.5480 9.105
21.5632 9.335
21.5783 9.343
21.5935 9.324
21.6087 9.183
21.6239 9.298
21.6390 9.211
21.6542 9.171
21.6694 9.150
21.6846 9.221
21.6997 9.105
21.7149 9.092
21.7301 9.342
21.7453 9.274
21.7604 9.160
21.7756 8.977
21.7908 9.265
21.8060 9.038
21.8211 9.048
21.8363 9.139
21.8515 9.070
21.8667 9.017
21.8818 9.198
21.8970 9.031
21.9122 9.157
21.9274 9.183
21.9425 9.085
21.9577 8.943
21.9729 8.998
21.9881 8.963
22.0032 8.899
22.0184 8.943
22.0336 8.902
22.0488 8.920
22.0639 8.927
22.0791 8.854
22.0943 8.906
22.1095 8.851
22.1246 8.744
22.1398 8.788
22.1550 8.901
22.1702 8.723
22.1853 8.648
22.2005 8.529
22.2157 8.584
22.2309 8.609
22.2460 8.721
22.2612 8.715
22.2764 8.660
22.2916 8.506
22.3067 8.567
22.3219 8.355
22.3371 8.386
22.3523 8.383
22.3674 8.366
22.3826 8.334
22.3978 8.532
22.4130 8.580
22.4281 8.553
22.4433 8.726
22.4585 8.502
22.4737 8.599
22.4888 8.469
22.5040 8.460
22.5192 8.463
22.5344 8.302
22.5495 8.438
22.5647 8.134
22.5799 8.431
22.5951 8.481
22.6102 8.748
22.6254 8.488
22.6406 8.297
22.6558 8.416
22.6709 8.326
22.6861 8.266
22.7013 8.255
22.7165 7.979
22.7316 6.588
