'Id: "" Comment: "" Operator: "Lab Manager" Anode: "Mo" Scantype: "Still (Eiger2R_500K (1D mode))" TimePerStep: "300" X: "11.8" Y: "9.4" Z: "11.284" 
7.2532 18.592
7.2684 18.863
7.2836 18.783
7.2987 18.584
7.3139 18.955
7.3291 19.127
7.3443 18.904
7.3594 19.022
7.3746 18.816
7.3898 19.520
7.4050 19.001
7.4201 19.178
7.4353 19.353
7.4505 19.255
7.4657 19.015
7.4808 19.339
7.4960 19.189
7.5112 19.796
7.5264 19.478
7.5415 19.596
7.5567 19.663
7.5719 19.541
7.5871 19.891
7.6022 20.008
7.6174 20.292
7.6326 20.060
7.6478 19.671
7.6629 19.883
7.6781 20.130
7.6933 20.131
7.7085 20.031
7.7236 20.521
7.7388 20.739
7.7540 20.542
7.7692 20.528
7.7843 20.567
7.7995 20.130
7.8147 19.903
7.8299 20.174
7.8450 20.336
7.8602 20.533
7.8754 20.686
7.8905 20.698
7.9057 20.612
7.9209 20.673
7.9361 20.630
7.9512 20.684
7.9664 20.759
7.9816 21.022
7.9968 20.799
8.0119 20.874
8.0271 21.145
8.0423 21.171
8.0575 21.094
8.0726 21.182
8.0878 21.163
8.1030 20.684
8.1182 20.973
8.1333 21.071
8.1485 20.965
8.1637 20.839
8.1789 21.179
8.1940 21.186
8.2092 21.092
8.2244 21.462
8.2396 21.473
8.2547 21.324
8.2699 21.399
8.2851 21.279
8.3003 21.443
8.3154 21.414
8.3306 21.553
8.3458 21.470
8.3610 21.218
8.3761 21.257
8.3913 21.701
8.4065 21.198
8.4217 21.593
8.4368 21.592
8.4520 22.476
8.4672 21.779
8.4824 21.896
8.4975 21.894
8.5127 22.005
8.5279 21.974
8.5431 21.694
8.5582 21.989
8.5734 22.093
8.5886 21.688
8.6038 21.445
8.6189 22.174
8.6341 21.712
8.6493 22.520
8.6645 22.139
8.6796 22.051
8.6948 21.625
8.7100 21.781
8.7252 22.110
8.7403 21.893
8.7555 22.338
8.7707 22.495
8.7859 22.519
8.8010 22.073
8.8162 22.173
8.8314 22.394
8.8466 22.592
8.8617 22.142
8.8769 22.639
8.8921 22.870
8.9073 22.778
8.9224 21.931
8.9376 22.517
8.9528 22.316
8.9680 22.472
8.9831 22.615
8.9983 22.321
9.0135 22.496
9.0287 22.912
9.0438 22.735
9.0590 22.417
9.0742 22.083
9.0894 22.360
9.1045 22.392
9.1197 22.438
9.1349 23.239
9.1501 23.188
9.1652 22.691
9.1804 22.745
9.1956 23.123
9.2108 22.982
9.2259 22.901
9.2411 22.744
9.2563 22.793
9.2715 23.067
9.2866 23.018
9.3018 22.532
9.3170 22.786
9.3322 22.974
9.3473 22.655
9.3625 22.952
9.3777 23.153
9.3929 23.317
9.4080 23.171
9.4232 22.806
9.4384 22.739
9.4536 22.720
9.4687 22.540
9.4839 22.716
9.4991 23.213
9.5143 23.221
9.5294 23.329
9.5446 23.174
9.5598 22.912
9.5750 22.876
9.5901 22.849
9.6053 22.681
9.6205 23.094
9.6357 23.218
9.6508 23.273
9.6660 23.463
9.6812 23.711
9.6964 23.738
9.7115 23.750
9.7267 23.715
9.7419 23.871
9.7571 23.966
9.7722 23.772
9.7874 23.625
9.8026 23.360
9.8178 23.146
9.8329 23.316
9.8481 23.527
9.8633 23.402
9.8785 23.159
9.8936 23.250
9.9088 23.556
9.9240 23.371
9.9392 23.105
9.9543 22.954
9.9695 23.036
9.9847 23.311
9.9999 23.406
10.0150 23.335
10.0302 23.255
10.0454 23.195
10.0606 23.008
10.0757 22.828
10.0909 23.050
10.1061 23.133
10.1213 23.181
10.1364 23.303
10.1516 23.238
10.1668 23.302
10.1820 23.431
10.1971 23.261
10.2123 22.912
10.2275 22.792
10.2427 22.835
10.2578 22.594
10.2730 22.738
10.2882 22.692
10.3034 22.539
10.3185 22.865
10.3337 22.829
10.3489 22.721
10.3641 22.697
10.3792 22.374
10.3944 22.953
10.4096 22.868
10.4248 22.777
10.4399 22.850
10.4551 22.497
10.4703 22.487
10.4855 22.642
10.5006 22.827
10.5158 22.296
10.5310 22.078
10.5462 22.517
10.5613 22.671
10.5765 22.608
10.5917 22.549
10.6069 22.543
10.6220 22.425
10.6372 22.675
10.6524 22.538
10.6676 22.646
10.6827 22.696
10.6979 22.317
10.7131 22.294
10.7283 22.377
10.7434 22.236
10.7586 22.280
10.7738 22.120
10.7890 22.020
10.8041 22.193
10.8193 22.204
10.8345 22.093
10.8497 22.171
10.8648 22.407
10.8800 22.526
10.8952 22.356
10.9104 22.110
10.9255 21.808
10.9407 22.054
10.9559 22.193
10.9711 21.554
10.9862 21.680
11.0014 21.756
11.0166 21.903
11.0318 22.328
11.0469 21.869
11.0621 21.551
11.0773 21.693
11.0925 21.540
11.1076 21.146
11.1228 21.585
11.1380 21.752
11.1532 21.631
11.1683 21.790
11.1835 21.627
11.1987 21.399
11.2139 21.251
11.2290 21.492
11.2442 21.847
11.2594 21.660
11.2746 21.503
11.2897 21.232
11.3049 21.592
11.3201 21.685
11.3353 21.615
11.3504 21.592
11.3656 21.327
11.3808 21.284
11.3960 21.128
11.4111 21.430
11.4263 21.051
11.4415 21.189
11.4567 21.089
11.4718 21.134
11.4870 20.952
11.5022 20.788
11.5174 21.132
11.5325 21.222
11.5477 20.770
11.5629 20.985
11.5781 20.975
11.5932 20.855
11.6084 20.744
11.6236 20.691
11.6388 20.602
11.6539 20.587
11.6691 20.684
11.6843 20.568
11.6995 20.670
11.7146 20.525
11.7298 20.357
11.7450 20.132
11.7602 20.156
11.7753 19.859
11.7905 19.677
11.8057 19.846
11.8209 19.779
11.8360 20.306
11.8512 19.730
11.8664 19.608
11.8816 19.652
11.8967 19.495
11.9119 19.669
11.9271 19.576
11.9423 19.478
11.9574 19.302
11.9726 19.749
11.9878 19.598
12.0030 19.393
12.0181 19.325
12.0333 19.026
12.0485 18.985
12.0637 18.970
12.0788 18.845
12.0940 18.622
12.1092 18.705
12.1244 18.531
12.1395 18.472
12.1547 18.398
12.1699 18.433
12.1851 18.037
12.2002 17.955
12.2154 18.048
12.2306 17.967
12.2458 17.759
12.2609 17.823
12.2761 17.897
12.2913 17.828
12.3065 17.619
12.3216 17.567
12.3368 17.670
12.3520 17.448
12.3672 17.279
12.3823 17.416
12.3975 17.274
12.4127 16.873
12.4279 17.003
12.4430 17.394
12.4582 17.132
12.4734 16.559
12.4886 16.607
12.5037 16.542
12.5189 16.351
12.5341 16.491
12.5493 16.618
12.5644 16.285
12.5796 16.378
12.5948 16.478
12.6100 16.334
12.6251 16.001
12.6403 16.005
12.6555 15.813
12.6707 15.560
12.6858 15.456
12.7010 15.700
12.7162 15.886
12.7314 15.935
12.7465 15.496
12.7617 15.164
12.7769 15.146
12.7921 15.113
12.8072 15.124
12.8224 15.207
12.8376 15.007
12.8528 14.720
12.8679 14.773
12.8831 14.952
12.8983 14.674
12.9135 14.508
12.9286 14.606
12.9438 14.430
12.9590 14.660
12.9742 14.695
12.9893 14.241
13.0045 14.130
13.0197 14.072
13.0349 13.964
13.0500 14.050
13.0652 14.131
13.0804 14.042
13.0956 13.835
13.1107 13.612
13.1259 13.615
13.1411 13.664
13.1563 13.507
13.1714 13.543
13.1866 13.720
13.2018 13.690
13.2170 13.599
13.2321 13.549
13.2473 13.309
13.2625 13.236
13.2777 13.381
13.2928 13.223
13.3080 13.131
13.3232 13.207
13.3384 13.288
13.3535 13.212
13.3687 12.901
13.3839 12.815
13.3991 12.816
13.4142 12.708
13.4294 12.737
13.4446 12.972
13.4598 12.991
13.4749 12.644
13.4901 12.394
13.5053 12.274
13.5205 12.723
13.5356 12.787
13.5508 12.364
13.5660 12.252
13.5812 12.192
13.5963 12.032
13.6115 11.954
13.6267 12.034
13.6419 12.169
13.6570 12.331
13.6722 12.284
13.6874 12.148
13.7026 11.694
13.7177 11.872
13.7329 11.938
13.7481 11.797
13.7633 11.980
13.7784 12.081
13.7936 12.198
13.8088 12.232
13.8239 11.993
13.8391 12.134
13.8543 12.577
13.8695 12.163
13.8846 12.229
13.8998 12.243
13.9150 12.185
13.9302 12.170
13.9453 11.899
13.9605 11.771
13.9757 11.719
13.9909 11.593
14.0060 11.708
14.0212 11.809
14.0364 11.796
14.0516 11.870
14.0667 11.719
14.0819 11.508
14.0971 11.466
14.1123 11.597
14.1274 11.789
14.1426 11.814
14.1578 11.365
14.1730 11.525
14.1881 11.748
14.2033 11.926
14.2185 11.998
14.2337 11.560
14.2488 11.755
14.2640 12.015
14.2792 12.019
14.2944 11.711
14.3095 12.055
14.3247 12.065
14.3399 12.020
14.3551 12.402
14.3702 12.996
14.3854 13.243
14.4006 13.163
14.4158 13.127
14.4309 12.789
14.4461 12.594
14.4613 12.632
14.4765 12.535
14.4916 12.002
14.5068 11.534
14.5220 11.788
14.5372 11.375
14.5523 11.432
14.5675 11.186
14.5827 10.876
14.5979 10.736
14.6130 10.710
14.6282 11.146
14.6434 10.987
14.6586 10.681
14.6737 10.654
14.6889 10.709
14.7041 10.823
14.7193 10.741
14.7344 10.609
14.7496 10.487
14.7648 10.555
14.7800 10.774
14.7951 10.374
14.8103 10.565
14.8255 10.294
14.8407 10.526
14.8558 10.616
14.8710 10.356
14.8862 10.429
14.9014 10.657
14.9165 10.880
14.9317 10.575
14.9469 10.515
14.9621 10.233
14.9772 9.973
14.9924 10.627
15.0076 10.531
15.0228 10.252
15.0379 10.310
15.0531 10.356
15.0683 10.415
15.0835 10.131
15.0986 10.044
15.1138 10.069
15.1290 10.282
15.1442 10.272
15.1593 10.015
15.1745 9.938
15.1897 10.101
15.2049 9.904
15.2200 10.347
15.2352 9.552
15.2504 10.067
15.2656 10.146
15.2807 10.182
15.2959 10.193
15.3111 10.099
15.3263 10.278
15.3414 10.008
15.3566 10.286
15.3718 10.320
15.3870 10.143
15.4021 9.824
15.4173 10.024
15.4325 10.489
15.4477 10.112
15.4628 9.952
15.4780 9.894
15.4932 10.133
15.5084 9.944
15.5235 10.168
15.5387 9.802
15.5539 9.737
15.5691 10.108
15.5842 9.949
15.5994 9.807
15.6146 9.792
15.6298 9.795
15.6449 9.831
15.6601 9.676
15.6753 10.010
15.6905 9.926
15.7056 9.665
15.7208 9.715
15.7360 9.848
15.7512 9.799
15.7663 9.533
15.7815 9.496
15.7967 9.825
15.8119 9.581
15.8270 9.709
15.8422 9.875
15.8574 9.704
15.8726 9.501
15.8877 9.241
15.9029 9.533
15.9181 9.532
15.9333 9.569
15.9484 9.830
15.9636 9.653
15.9788 9.835
15.9940 9.710
16.0091 9.689
16.0243 9.551
16.0395 9.539
16.0547 9.777
16.0698 9.631
16.0850 9.662
16.1002 9.595
16.1154 9.394
16.1305 9.757
16.1457 10.124
16.1609 9.790
16.1761 9.725
16.1912 9.699
16.2064 9.785
16.2216 9.846
16.2368 9.827
16.2519 9.849
16.2671 9.731
16.2823 9.405
16.2975 9.521
16.3126 9.863
16.3278 9.930
16.3430 9.832
16.3582 9.783
16.3733 9.824
16.3885 9.749
16.4037 9.927
16.4189 9.826
16.4340 9.570
16.4492 9.524
16.4644 9.733
16.4796 9.832
16.4947 9.636
16.5099 9.601
16.5251 9.372
16.5403 9.579
16.5554 9.470
16.5706 9.565
16.5858 9.467
16.6010 9.638
16.6161 9.483
16.6313 9.609
16.6465 9.753
16.6617 9.855
16.6768 9.795
16.6920 9.662
16.7072 9.481
16.7224 9.700
16.7375 9.871
16.7527 10.015
16.7679 9.842
16.7831 9.698
16.7982 9.816
16.8134 10.046
16.8286 10.179
16.8438 9.878
16.8589 9.576
16.8741 9.663
16.8893 9.740
16.9045 9.748
16.9196 9.581
16.9348 9.525
16.9500 9.718
16.9652 9.628
16.9803 9.719
16.9955 9.868
17.0107 9.895
17.0259 10.025
17.0410 9.914
17.0562 9.921
17.0714 10.365
17.0866 10.302
17.1017 10.420
17.1169 10.899
17.1321 10.913
17.1473 11.147
17.1624 11.534
17.1776 12.151
17.1928 12.866
17.2080 13.540
17.2231 14.852
17.2383 16.484
17.2535 17.820
17.2687 18.673
17.2838 18.904
17.2990 18.016
17.3142 16.816
17.3294 16.554
17.3445 16.630
17.3597 16.247
17.3749 15.669
17.3901 15.125
17.4052 14.378
17.4204 13.460
17.4356 12.494
17.4508 12.053
17.4659 11.917
17.4811 11.726
17.4963 11.458
17.5115 11.077
17.5266 11.061
17.5418 11.107
17.5570 10.997
17.5722 10.987
17.5873 11.181
17.6025 11.290
17.6177 11.218
17.6329 11.347
17.6480 11.393
17.6632 11.307
17.6784 11.494
17.6936 11.617
17.7087 11.536
17.7239 11.208
17.7391 11.096
17.7543 11.238
17.7694 11.276
17.7846 10.917
17.7998 10.682
17.8150 10.572
17.8301 10.578
17.8453 10.554
17.8605 10.288
17.8757 10.188
17.8908 10.330
17.9060 10.484
17.9212 10.495
17.9364 10.361
17.9515 10.170
17.9667 10.147
17.9819 10.196
17.9971 10.225
18.0122 10.108
18.0274 10.048
18.0426 9.812
18.0578 9.592
18.0729 9.919
18.0881 10.268
18.1033 10.237
18.1185 10.168
18.1336 10.090
18.1488 9.960
18.1640 10.155
18.1792 10.155
18.1943 9.738
18.2095 9.940
18.2247 9.817
18.2399 9.866
18.2550 9.941
18.2702 9.792
18.2854 9.664
18.3006 9.850
18.3157 9.824
18.3309 9.846
18.3461 10.065
18.3613 10.005
18.3764 9.772
18.3916 9.768
18.4068 9.804
18.4220 9.787
18.4371 9.854
18.4523 9.830
18.4675 9.789
18.4827 9.772
18.4978 9.796
18.5130 9.789
18.5282 9.784
18.5434 9.632
18.5585 9.508
18.5737 9.767
18.5889 9.730
18.6041 9.685
18.6192 9.589
18.6344 9.742
18.6496 9.665
18.6648 9.629
18.6799 9.715
18.6951 9.690
18.7103 9.795
18.7255 9.647
18.7406 9.784
18.7558 9.822
18.7710 9.829
18.7862 9.929
18.8013 9.750
18.8165 9.758
18.8317 9.832
18.8469 10.043
18.8620 10.110
18.8772 9.898
18.8924 9.780
18.9076 9.795
18.9227 9.664
18.9379 9.773
18.9531 10.063
18.9683 10.177
18.9834 10.052
18.9986 10.218
19.0138 10.286
19.0290 10.164
19.0441 10.036
19.0593 10.055
19.0745 9.970
19.0897 10.036
19.1048 10.010
19.1200 10.072
19.1352 10.129
19.1504 10.187
19.1655 10.505
19.1807 10.754
19.1959 10.651
19.2111 10.586
19.2262 10.576
19.2414 10.450
19.2566 10.532
19.2718 10.784
19.2869 10.744
19.3021 10.648
19.3173 10.704
19.3325 10.911
19.3476 10.927
19.3628 11.019
19.3780 11.136
19.3932 11.074
19.4083 10.943
19.4235 11.266
19.4387 11.531
19.4539 11.421
19.4690 11.480
19.4842 11.529
19.4994 11.521
19.5146 11.448
19.5297 11.591
19.5449 11.718
19.5601 11.404
19.5753 11.427
19.5904 11.691
19.6056 11.609
19.6208 11.380
19.6360 11.510
19.6511 11.456
19.6663 11.374
19.6815 11.595
19.6967 11.656
19.7118 11.598
19.7270 11.717
19.7422 11.806
19.7574 11.701
19.7725 11.651
19.7877 11.808
19.8029 11.976
19.8180 12.171
19.8332 12.229
19.8484 12.276
19.8636 12.366
19.8787 12.591
19.8939 12.971
19.9091 13.171
19.9243 13.499
19.9394 13.833
19.9546 14.321
19.9698 14.437
19.9850 14.354
20.0001 14.405
20.0153 14.059
20.0305 13.918
20.0457 14.022
20.0608 14.003
20.0760 13.584
20.0912 13.394
20.1064 13.496
20.1215 13.507
20.1367 13.458
20.1519 13.345
20.1671 13.242
20.1822 13.183
20.1974 13.041
20.2126 12.681
20.2278 12.549
20.2429 12.591
20.2581 12.417
20.2733 12.190
20.2885 11.971
20.3036 12.010
20.3188 12.093
20.3340 12.042
20.3492 12.045
20.3643 11.982
20.3795 11.942
20.3947 11.816
20.4099 11.825
20.4250 11.836
20.4402 11.856
20.4554 11.945
20.4706 11.637
20.4857 11.420
20.5009 11.441
20.5161 11.591
20.5313 11.503
20.5464 11.346
20.5616 10.932
20.5768 11.247
20.5920 11.048
20.6071 10.963
20.6223 11.093
20.6375 11.081
20.6527 11.127
20.6678 10.810
20.6830 10.588
20.6982 10.651
20.7134 10.568
20.7285 10.569
20.7437 10.422
20.7589 10.137
20.7741 10.142
20.7892 10.354
20.8044 10.350
20.8196 10.461
20.8348 10.278
20.8499 10.317
20.8651 10.308
20.8803 10.149
20.8955 10.124
20.9106 10.287
20.9258 10.238
20.9410 10.151
20.9562 10.203
20.9713 10.097
20.9865 9.951
21.0017 10.152
21.0169 9.805
21.0320 9.646
21.0472 9.970
21.0624 10.108
21.0776 9.671
21.0927 9.911
21.1079 9.536
21.1231 9.815
21.1383 10.060
21.1534 9.865
21.1686 9.977
21.1838 9.716
21.1990 9.987
21.2141 9.572
21.2293 9.947
21.2445 9.819
21.2597 9.702
21.2748 9.403
21.2900 9.237
21.3052 9.385
21.3204 9.586
21.3355 9.575
21.3507 9.293
21.3659 9.602
21.3811 9.612
21.3962 9.542
21.4114 9.422
21.4266 9.510
21.4418 9.479
21.4569 9.503
21.4721 9.408
21.4873 9.381
21.5025 9.481
21.5176 9.518
21.5328 9.128
21.5480 9.300
21.5632 9.395
21.5783 9.207
21.5935 9.074
21.6087 9.070
21.6239 9.113
21.6390 9.282
21.6542 9.184
21.6694 9.046
21.6846 9.064
21.6997 9.082
21.7149 8.953
21.7301 9.274
21.7453 9.149
21.7604 9.155
21.7756 9.261
21.7908 9.087
21.8060 9.042
21.8211 9.068
21.8363 9.158
21.8515 9.096
21.8667 9.056
21.8818 9.104
21.8970 9.258
21.9122 9.032
21.9274 9.079
21.9425 8.998
21.9577 8.797
21.9729 8.815
21.9881 8.901
22.0032 8.848
22.0184 8.836
22.0336 8.934
22.0488 8.845
22.0639 8.762
22.0791 8.712
22.0943 8.714
22.1095 8.543
22.1246 8.441
22.1398 8.632
22.1550 8.459
22.1702 8.466
22.1853 8.597
22.2005 8.410
22.2157 8.435
22.2309 8.504
22.2460 8.459
22.2612 8.222
22.2764 8.280
22.2916 8.371
22.3067 8.356
22.3219 8.705
22.3371 8.794
22.3523 8.605
22.3674 8.401
22.3826 8.493
22.3978 8.274
22.4130 8.494
22.4281 8.404
22.4433 8.622
22.4585 8.420
22.4737 8.715
22.4888 8.556
22.5040 8.173
22.5192 8.629
22.5344 8.426
22.5495 8.354
22.5647 8.002
22.5799 8.578
22.5951 8.288
22.6102 8.118
22.6254 8.219
22.6406 8.525
22.6558 8.361
22.6709 8.461
22.6861 8.307
22.7013 8.137
22.7165 7.919
22.7316 6.475
