'Id: "" Comment: "" Operator: "Lab Manager" Anode: "Mo" Scantype: "Still (Eiger2R_500K (1D mode))" TimePerStep: "300" X: "11.8" Y: "9.4" Z: "11.284" 
7.2532 18.535
7.2684 18.745
7.2836 18.817
7.2987 19.073
7.3139 19.380
7.3291 19.275
7.3443 19.273
7.3594 18.789
7.3746 19.501
7.3898 18.929
7.4050 19.248
7.4201 19.404
7.4353 19.080
7.4505 19.556
7.4657 19.388
7.4808 19.562
7.4960 19.803
7.5112 19.429
7.5264 19.422
7.5415 19.554
7.5567 19.606
7.5719 19.676
7.5871 20.123
7.6022 20.147
7.6174 20.045
7.6326 19.886
7.6478 20.080
7.6629 20.346
7.6781 20.390
7.6933 20.486
7.7085 20.144
7.7236 20.353
7.7388 20.210
7.7540 20.302
7.7692 20.378
7.7843 20.677
7.7995 20.709
7.8147 20.470
7.8299 20.500
7.8450 20.516
7.8602 20.714
7.8754 20.703
7.8905 20.458
7.9057 20.655
7.9209 21.039
7.9361 21.087
7.9512 20.942
7.9664 20.690
7.9816 20.913
7.9968 21.048
8.0119 21.259
8.0271 21.316
8.0423 21.006
8.0575 20.899
8.0726 20.625
8.0878 20.853
8.1030 21.103
8.1182 21.277
8.1333 21.530
8.1485 21.508
8.1637 21.315
8.1789 20.953
8.1940 21.136
8.2092 21.586
8.2244 21.837
8.2396 21.547
8.2547 21.833
8.2699 21.704
8.2851 20.999
8.3003 21.932
8.3154 21.724
8.3306 21.482
8.3458 21.848
8.3610 22.064
8.3761 21.396
8.3913 21.617
8.4065 21.819
8.4217 22.446
8.4368 21.696
8.4520 22.124
8.4672 21.960
8.4824 21.594
8.4975 21.951
8.5127 22.432
8.5279 21.802
8.5431 22.038
8.5582 21.899
8.5734 22.189
8.5886 22.086
8.6038 22.006
8.6189 22.276
8.6341 22.531
8.6493 22.249
8.6645 22.231
8.6796 21.759
8.6948 22.267
8.7100 22.216
8.7252 22.140
8.7403 21.715
8.7555 22.106
8.7707 22.779
8.7859 22.597
8.8010 22.553
8.8162 22.543
8.8314 22.560
8.8466 22.520
8.8617 22.644
8.8769 22.504
8.8921 22.621
8.9073 22.266
8.9224 22.479
8.9376 22.358
8.9528 22.125
8.9680 22.314
8.9831 22.832
8.9983 22.979
9.0135 22.725
9.0287 22.482
9.0438 22.549
9.0590 22.513
9.0742 22.364
9.0894 22.935
9.1045 22.522
9.1197 22.501
9.1349 22.725
9.1501 22.611
9.1652 23.115
9.1804 22.754
9.1956 22.888
9.2108 22.748
9.2259 22.429
9.2411 22.667
9.2563 22.877
9.2715 22.865
9.2866 22.632
9.3018 22.495
9.3170 22.668
9.3322 22.779
9.3473 22.912
9.3625 23.219
9.3777 22.981
9.3929 22.993
9.4080 23.089
9.4232 22.840
9.4384 23.288
9.4536 23.104
9.4687 23.027
9.4839 23.097
9.4991 23.113
9.5143 22.925
9.5294 22.834
9.5446 23.105
9.5598 23.137
9.5750 23.232
9.5901 23.390
9.6053 23.184
9.6205 22.939
9.6357 23.083
9.6508 23.395
9.6660 23.288
9.6812 23.409
9.6964 23.311
9.7115 23.418
9.7267 23.701
9.7419 23.641
9.7571 23.591
9.7722 23.753
9.7874 23.886
9.8026 23.717
9.8178 23.574
9.8329 23.597
9.8481 23.445
9.8633 23.152
9.8785 23.067
9.8936 23.273
9.9088 23.461
9.9240 23.210
9.9392 22.909
9.9543 23.107
9.9695 23.407
9.9847 23.207
9.9999 22.958
10.0150 22.997
10.0302 23.236
10.0454 23.051
10.0606 22.793
10.0757 22.937
10.0909 22.867
10.1061 22.685
10.1213 23.319
10.1364 23.394
10.1516 23.156
10.1668 23.159
10.1820 23.130
10.1971 22.996
10.2123 23.099
10.2275 23.046
10.2427 22.965
10.2578 22.978
10.2730 22.757
10.2882 22.477
10.3034 22.707
10.3185 22.537
10.3337 22.599
10.3489 22.585
10.3641 22.626
10.3792 22.634
10.3944 22.794
10.4096 22.893
10.4248 22.929
10.4399 22.902
10.4551 22.631
10.4703 22.512
10.4855 22.565
10.5006 22.679
10.5158 22.532
10.5310 22.673
10.5462 22.794
10.5613 22.555
10.5765 22.019
10.5917 21.988
10.6069 22.597
10.6220 22.346
10.6372 22.434
10.6524 22.230
10.6676 22.268
10.6827 22.027
10.6979 21.913
10.7131 22.184
10.7283 22.322
10.7434 22.388
10.7586 22.676
10.7738 22.710
10.7890 22.406
10.8041 21.950
10.8193 22.151
10.8345 22.248
10.8497 22.010
10.8648 22.181
10.8800 22.285
10.8952 22.236
10.9104 22.044
10.9255 21.915
10.9407 22.006
10.9559 22.003
10.9711 22.483
10.9862 22.009
11.0014 21.720
11.0166 22.368
11.0318 22.152
11.0469 21.836
11.0621 22.000
11.0773 21.825
11.0925 21.496
11.1076 21.658
11.1228 21.421
11.1380 21.520
11.1532 21.588
11.1683 21.535
11.1835 21.849
11.1987 21.804
11.2139 21.368
11.2290 21.789
11.2442 21.603
11.2594 21.435
11.2746 21.478
11.2897 21.408
11.3049 21.375
11.3201 21.223
11.3353 20.754
11.3504 21.240
11.3656 21.304
11.3808 21.259
11.3960 21.455
11.4111 21.324
11.4263 20.871
11.4415 21.261
11.4567 21.150
11.4718 21.034
11.4870 21.116
11.5022 21.083
11.5174 20.948
11.5325 20.879
11.5477 20.909
11.5629 21.106
11.5781 20.900
11.5932 20.483
11.6084 20.814
11.6236 20.785
11.6388 20.659
11.6539 20.563
11.6691 20.762
11.6843 20.492
11.6995 20.430
11.7146 20.691
11.7298 20.657
11.7450 20.382
11.7602 20.563
11.7753 20.254
11.7905 20.246
11.8057 19.983
11.8209 19.649
11.8360 19.536
11.8512 19.876
11.8664 19.625
11.8816 19.623
11.8967 19.659
11.9119 19.619
11.9271 19.690
11.9423 19.318
11.9574 19.174
11.9726 19.284
11.9878 19.227
12.0030 18.872
12.0181 19.446
12.0333 19.443
12.0485 18.871
12.0637 18.717
12.0788 18.801
12.0940 18.508
12.1092 18.550
12.1244 18.956
12.1395 18.520
12.1547 18.488
12.1699 18.531
12.1851 18.295
12.2002 18.091
12.2154 17.974
12.2306 18.130
12.2458 17.910
12.2609 18.148
12.2761 17.918
12.2913 17.657
12.3065 17.826
12.3216 17.598
12.3368 17.411
12.3520 17.591
12.3672 17.464
12.3823 17.204
12.3975 17.185
12.4127 17.128
12.4279 17.042
12.4430 17.260
12.4582 17.170
12.4734 16.605
12.4886 16.494
12.5037 16.535
12.5189 16.078
12.5341 16.138
12.5493 16.295
12.5644 16.155
12.5796 15.918
12.5948 16.073
12.6100 16.113
12.6251 15.708
12.6403 15.807
12.6555 15.832
12.6707 15.729
12.6858 15.566
12.7010 15.634
12.7162 15.741
12.7314 15.557
12.7465 15.661
12.7617 15.650
12.7769 15.518
12.7921 15.281
12.8072 15.073
12.8224 15.177
12.8376 15.087
12.8528 14.970
12.8679 14.936
12.8831 14.663
12.8983 14.630
12.9135 14.779
12.9286 14.697
12.9438 14.595
12.9590 14.435
12.9742 14.451
12.9893 14.507
13.0045 14.417
13.0197 14.285
13.0349 14.075
13.0500 13.872
13.0652 13.873
13.0804 13.832
13.0956 13.754
13.1107 13.757
13.1259 13.768
13.1411 13.923
13.1563 13.734
13.1714 13.436
13.1866 13.455
13.2018 13.443
13.2170 13.336
13.2321 13.397
13.2473 13.587
13.2625 13.417
13.2777 13.019
13.2928 12.919
13.3080 13.112
13.3232 13.221
13.3384 13.013
13.3535 12.878
13.3687 12.911
13.3839 13.034
13.3991 13.277
13.4142 13.043
13.4294 12.895
13.4446 12.880
13.4598 12.722
13.4749 12.495
13.4901 12.371
13.5053 12.555
13.5205 12.546
13.5356 12.543
13.5508 12.448
13.5660 12.216
13.5812 12.262
13.5963 12.462
13.6115 12.264
13.6267 12.280
13.6419 12.469
13.6570 12.166
13.6722 12.089
13.6874 12.199
13.7026 12.065
13.7177 12.288
13.7329 12.387
13.7481 12.216
13.7633 12.262
13.7784 12.031
13.7936 12.096
13.8088 12.128
13.8239 12.233
13.8391 12.409
13.8543 12.354
13.8695 12.122
13.8846 12.094
13.8998 12.350
13.9150 12.301
13.9302 12.142
13.9453 11.867
13.9605 11.775
13.9757 11.706
13.9909 11.870
14.0060 11.896
14.0212 11.567
14.0364 11.688
14.0516 11.579
14.0667 11.469
14.0819 11.873
14.0971 11.661
14.1123 11.789
14.1274 11.663
14.1426 11.610
14.1578 11.739
14.1730 11.877
14.1881 11.848
14.2033 12.041
14.2185 12.107
14.2337 11.932
14.2488 11.627
14.2640 11.790
14.2792 11.609
14.2944 11.792
14.3095 11.933
14.3247 12.192
14.3399 12.100
14.3551 12.441
14.3702 12.438
14.3854 12.818
14.4006 13.278
14.4158 13.058
14.4309 12.830
14.4461 12.416
14.4613 12.383
14.4765 12.354
14.4916 12.381
14.5068 12.212
14.5220 11.911
14.5372 11.638
14.5523 11.446
14.5675 11.535
14.5827 10.982
14.5979 11.119
14.6130 11.129
14.6282 11.161
14.6434 10.827
14.6586 10.740
14.6737 10.776
14.6889 10.745
14.7041 10.604
14.7193 10.582
14.7344 10.470
14.7496 10.468
14.7648 10.644
14.7800 10.547
14.7951 10.638
14.8103 10.801
14.8255 10.490
14.8407 10.800
14.8558 10.672
14.8710 10.511
14.8862 10.429
14.9014 9.906
14.9165 10.551
14.9317 10.673
14.9469 10.406
14.9621 10.337
14.9772 10.229
14.9924 10.452
15.0076 10.078
15.0228 10.316
15.0379 9.935
15.0531 10.354
15.0683 10.146
15.0835 10.287
15.0986 10.010
15.1138 9.977
15.1290 10.324
15.1442 10.099
15.1593 10.081
15.1745 9.842
15.1897 10.064
15.2049 10.013
15.2200 10.116
15.2352 10.186
15.2504 10.128
15.2656 10.128
15.2807 10.492
15.2959 9.916
15.3111 10.123
15.3263 10.333
15.3414 10.216
15.3566 10.142
15.3718 10.270
15.3870 9.911
15.4021 9.880
15.4173 10.136
15.4325 10.182
15.4477 10.337
15.4628 10.123
15.4780 10.194
15.4932 10.166
15.5084 9.755
15.5235 9.993
15.5387 10.135
15.5539 9.724
15.5691 10.082
15.5842 9.855
15.5994 9.722
15.6146 10.145
15.6298 10.103
15.6449 9.914
15.6601 9.744
15.6753 9.441
15.6905 9.669
15.7056 9.537
15.7208 9.612
15.7360 9.799
15.7512 9.837
15.7663 9.919
15.7815 9.909
15.7967 9.773
15.8119 9.657
15.8270 9.824
15.8422 9.709
15.8574 9.459
15.8726 9.696
15.8877 9.552
15.9029 9.322
15.9181 9.334
15.9333 9.661
15.9484 9.657
15.9636 9.398
15.9788 9.599
15.9940 9.514
16.0091 9.485
16.0243 9.559
16.0395 9.357
16.0547 9.745
16.0698 9.370
16.0850 9.446
16.1002 9.651
16.1154 9.859
16.1305 9.768
16.1457 9.733
16.1609 9.823
16.1761 9.668
16.1912 9.480
16.2064 9.624
16.2216 9.768
16.2368 9.590
16.2519 9.450
16.2671 9.562
16.2823 9.865
16.2975 9.983
16.3126 10.024
16.3278 9.627
16.3430 9.558
16.3582 9.783
16.3733 9.821
16.3885 9.520
16.4037 9.787
16.4189 9.769
16.4340 9.699
16.4492 9.826
16.4644 9.633
16.4796 9.640
16.4947 9.638
16.5099 9.774
16.5251 9.818
16.5403 9.646
16.5554 9.531
16.5706 9.478
16.5858 9.607
16.6010 9.606
16.6161 9.596
16.6313 9.670
16.6465 9.869
16.6617 9.947
16.6768 9.891
16.6920 9.757
16.7072 9.686
16.7224 10.054
16.7375 10.116
16.7527 10.021
16.7679 9.837
16.7831 9.799
16.7982 9.779
16.8134 9.919
16.8286 9.863
16.8438 9.904
16.8589 9.704
16.8741 9.585
16.8893 9.710
16.9045 9.762
16.9196 9.803
16.9348 9.849
16.9500 9.842
16.9652 9.756
16.9803 9.780
16.9955 9.954
17.0107 9.976
17.0259 9.792
17.0410 9.823
17.0562 9.911
17.0714 10.026
17.0866 10.185
17.1017 10.405
17.1169 10.705
17.1321 10.941
17.1473 11.184
17.1624 11.469
17.1776 12.263
17.1928 13.233
17.2080 14.000
17.2231 14.958
17.2383 16.326
17.2535 17.467
17.2687 18.297
17.2838 18.688
17.2990 18.145
17.3142 17.266
17.3294 16.564
17.3445 16.151
17.3597 16.216
17.3749 16.166
17.3901 15.390
17.4052 14.480
17.4204 13.694
17.4356 12.864
17.4508 12.250
17.4659 11.778
17.4811 11.442
17.4963 11.246
17.5115 11.072
17.5266 11.041
17.5418 11.025
17.5570 10.995
17.5722 10.958
17.5873 11.132
17.6025 11.191
17.6177 11.003
17.6329 11.127
17.6480 11.311
17.6632 11.510
17.6784 11.495
17.6936 11.269
17.7087 11.331
17.7239 11.342
17.7391 11.325
17.7543 11.169
17.7694 11.100
17.7846 11.161
17.7998 10.826
17.8150 10.679
17.8301 10.478
17.8453 10.237
17.8605 10.399
17.8757 10.557
17.8908 10.320
17.9060 10.158
17.9212 10.100
17.9364 9.942
17.9515 9.907
17.9667 10.096
17.9819 10.187
17.9971 10.229
18.0122 10.071
18.0274 10.196
18.0426 10.223
18.0578 10.129
18.0729 10.236
18.0881 10.019
18.1033 9.724
18.1185 9.687
18.1336 9.840
18.1488 10.003
18.1640 9.794
18.1792 9.765
18.1943 9.808
18.2095 9.843
18.2247 9.932
18.2399 9.834
18.2550 9.815
18.2702 9.756
18.2854 9.970
18.3006 9.944
18.3157 9.866
18.3309 9.882
18.3461 9.904
18.3613 9.795
18.3764 9.950
18.3916 10.157
18.4068 9.888
18.4220 9.633
18.4371 9.847
18.4523 9.900
18.4675 9.755
18.4827 9.599
18.4978 9.752
18.5130 9.771
18.5282 9.693
18.5434 9.810
18.5585 9.908
18.5737 9.921
18.5889 9.770
18.6041 9.808
18.6192 10.017
18.6344 10.110
18.6496 9.977
18.6648 9.822
18.6799 9.699
18.6951 9.737
18.7103 9.717
18.7255 9.945
18.7406 9.920
18.7558 9.731
18.7710 9.977
18.7862 9.865
18.8013 9.676
18.8165 9.708
18.8317 9.785
18.8469 9.843
18.8620 9.973
18.8772 10.190
18.8924 10.137
18.9076 10.036
18.9227 9.964
18.9379 9.979
18.9531 10.079
18.9683 10.076
18.9834 10.043
18.9986 10.195
19.0138 10.138
19.0290 10.032
19.0441 10.147
19.0593 10.469
19.0745 10.591
19.0897 10.352
19.1048 10.360
19.1200 10.404
19.1352 10.553
19.1504 10.503
19.1655 10.264
19.1807 10.579
19.1959 10.937
19.2111 10.826
19.2262 10.788
19.2414 10.771
19.2566 10.665
19.2718 10.767
19.2869 10.940
19.3021 11.062
19.3173 10.950
19.3325 11.019
19.3476 11.047
19.3628 11.105
19.3780 11.215
19.3932 11.223
19.4083 11.168
19.4235 11.353
19.4387 11.467
19.4539 11.150
19.4690 11.019
19.4842 11.208
19.4994 11.202
19.5146 11.349
19.5297 11.582
19.5449 11.487
19.5601 11.376
19.5753 11.523
19.5904 11.657
19.6056 11.538
19.6208 11.534
19.6360 11.594
19.6511 11.509
19.6663 11.558
19.6815 11.680
19.6967 11.641
19.7118 11.621
19.7270 11.653
19.7422 11.911
19.7574 12.076
19.7725 11.970
19.7877 11.851
19.8029 11.869
19.8180 12.063
19.8332 12.317
19.8484 12.214
19.8636 12.202
19.8787 12.573
19.8939 12.862
19.9091 13.129
19.9243 13.419
19.9394 13.703
19.9546 14.189
19.9698 14.345
19.9850 14.261
20.0001 14.166
20.0153 13.932
20.0305 13.797
20.0457 13.728
20.0608 13.735
20.0760 13.900
20.0912 13.817
20.1064 13.981
20.1215 13.764
20.1367 13.166
20.1519 12.829
20.1671 12.741
20.1822 12.685
20.1974 12.732
20.2126 12.663
20.2278 12.496
20.2429 12.641
20.2581 12.307
20.2733 12.041
20.2885 12.247
20.3036 11.846
20.3188 11.889
20.3340 11.879
20.3492 12.191
20.3643 12.233
20.3795 12.161
20.3947 11.914
20.4099 11.922
20.4250 11.861
20.4402 11.706
20.4554 11.743
20.4706 11.707
20.4857 11.368
20.5009 11.664
20.5161 11.732
20.5313 11.373
20.5464 11.333
20.5616 11.478
20.5768 11.527
20.5920 11.104
20.6071 11.104
20.6223 10.908
20.6375 10.910
20.6527 10.740
20.6678 10.918
20.6830 10.872
20.6982 10.544
20.7134 10.627
20.7285 10.674
20.7437 10.463
20.7589 10.218
20.7741 10.234
20.7892 10.414
20.8044 10.382
20.8196 10.630
20.8348 10.702
20.8499 10.464
20.8651 10.288
20.8803 10.180
20.8955 10.075
20.9106 10.159
20.9258 10.069
20.9410 10.300
20.9562 10.160
20.9713 10.081
20.9865 10.004
21.0017 10.006
21.0169 9.948
21.0320 10.077
21.0472 10.090
21.0624 9.710
21.0776 9.749
21.0927 9.955
21.1079 10.046
21.1231 9.692
21.1383 9.678
21.1534 9.385
21.1686 10.033
21.1838 9.762
21.1990 9.922
21.2141 9.887
21.2293 9.779
21.2445 9.520
21.2597 9.719
21.2748 9.887
21.2900 9.801
21.3052 9.745
21.3204 9.866
21.3355 9.517
21.3507 9.286
21.3659 9.528
21.3811 9.763
21.3962 9.535
21.4114 9.526
21.4266 9.506
21.4418 9.468
21.4569 9.519
21.4721 9.237
21.4873 9.474
21.5025 9.337
21.5176 9.259
21.5328 9.156
21.5480 9.011
21.5632 9.415
21.5783 9.208
21.5935 9.340
21.6087 9.245
21.6239 9.143
21.6390 9.306
21.6542 9.363
21.6694 9.293
21.6846 9.223
21.6997 9.074
21.7149 9.180
21.7301 9.512
21.7453 9.480
21.7604 9.097
21.7756 8.946
21.7908 8.846
21.8060 8.934
21.8211 8.897
21.8363 9.015
21.8515 8.856
21.8667 8.983
21.8818 8.977
21.8970 8.985
21.9122 9.111
21.9274 8.939
21.9425 9.018
21.9577 9.124
21.9729 8.992
21.9881 8.730
22.0032 8.756
22.0184 8.853
22.0336 9.047
22.0488 9.106
22.0639 8.999
22.0791 8.941
22.0943 8.832
22.1095 8.724
22.1246 8.849
22.1398 8.933
22.1550 8.646
22.1702 8.551
22.1853 8.723
22.2005 8.729
22.2157 8.391
22.2309 8.471
22.2460 8.652
22.2612 8.513
22.2764 8.385
22.2916 8.453
22.3067 8.486
22.3219 8.679
22.3371 8.450
22.3523 8.296
22.3674 8.483
22.3826 8.432
22.3978 8.559
22.4130 8.566
22.4281 8.359
22.4433 8.599
22.4585 8.371
22.4737 8.369
22.4888 8.577
22.5040 8.610
22.5192 8.363
22.5344 8.241
22.5495 8.044
22.5647 8.262
22.5799 8.476
22.5951 8.501
22.6102 8.372
22.6254 8.503
22.6406 8.427
22.6558 8.086
22.6709 8.378
22.6861 8.025
22.7013 8.301
22.7165 7.957
22.7316 6.507
