'Id: "" Comment: "" Operator: "Lab Manager" Anode: "Mo" Scantype: "Still (Eiger2R_500K (1D mode))" TimePerStep: "300" X: "11.8" Y: "9.4" Z: "11.284" 
7.2532 19.056
7.2684 18.839
7.2836 19.285
7.2987 19.376
7.3139 19.547
7.3291 19.540
7.3443 19.702
7.3594 19.719
7.3746 19.393
7.3898 19.316
7.4050 19.860
7.4201 19.529
7.4353 19.768
7.4505 20.164
7.4657 19.725
7.4808 19.786
7.4960 19.638
7.5112 20.083
7.5264 20.010
7.5415 19.662
7.5567 19.404
7.5719 19.862
7.5871 20.459
7.6022 20.323
7.6174 19.816
7.6326 20.095
7.6478 20.381
7.6629 20.355
7.6781 20.444
7.6933 20.491
7.7085 20.707
7.7236 20.574
7.7388 20.136
7.7540 20.164
7.7692 20.550
7.7843 20.473
7.7995 20.666
7.8147 20.814
7.8299 20.525
7.8450 20.363
7.8602 20.621
7.8754 20.757
7.8905 21.013
7.9057 20.964
7.9209 20.616
7.9361 20.491
7.9512 20.844
7.9664 21.392
7.9816 21.569
7.9968 21.293
8.0119 21.167
8.0271 21.480
8.0423 21.547
8.0575 21.486
8.0726 21.382
8.0878 21.229
8.1030 21.331
8.1182 21.852
8.1333 21.945
8.1485 21.580
8.1637 21.489
8.1789 21.864
8.1940 21.683
8.2092 21.874
8.2244 22.042
8.2396 21.711
8.2547 21.992
8.2699 22.022
8.2851 21.759
8.3003 21.407
8.3154 21.534
8.3306 21.997
8.3458 21.756
8.3610 21.727
8.3761 21.631
8.3913 21.698
8.4065 22.214
8.4217 21.931
8.4368 22.171
8.4520 22.172
8.4672 22.239
8.4824 22.149
8.4975 22.797
8.5127 22.646
8.5279 21.976
8.5431 22.536
8.5582 22.109
8.5734 21.789
8.5886 22.273
8.6038 22.343
8.6189 22.521
8.6341 22.513
8.6493 22.329
8.6645 22.425
8.6796 22.602
8.6948 22.455
8.7100 22.566
8.7252 22.539
8.7403 22.776
8.7555 22.870
8.7707 22.298
8.7859 22.826
8.8010 22.459
8.8162 22.466
8.8314 22.442
8.8466 23.110
8.8617 22.311
8.8769 22.752
8.8921 22.656
8.9073 22.843
8.9224 22.744
8.9376 22.501
8.9528 22.714
8.9680 23.210
8.9831 22.963
8.9983 23.024
9.0135 22.877
9.0287 22.591
9.0438 22.694
9.0590 22.581
9.0742 22.740
9.0894 22.910
9.1045 23.107
9.1197 23.055
9.1349 22.697
9.1501 22.868
9.1652 22.896
9.1804 23.126
9.1956 23.076
9.2108 23.188
9.2259 23.171
9.2411 23.286
9.2563 22.959
9.2715 22.689
9.2866 22.633
9.3018 23.064
9.3170 23.309
9.3322 23.405
9.3473 23.253
9.3625 23.365
9.3777 23.260
9.3929 23.055
9.4080 23.151
9.4232 23.346
9.4384 23.259
9.4536 22.961
9.4687 23.229
9.4839 23.241
9.4991 23.227
9.5143 23.145
9.5294 23.114
9.5446 22.995
9.5598 23.062
9.5750 23.201
9.5901 23.269
9.6053 23.306
9.6205 23.604
9.6357 23.744
9.6508 23.537
9.6660 23.664
9.6812 24.305
9.6964 24.410
9.7115 23.848
9.7267 24.097
9.7419 24.246
9.7571 24.197
9.7722 24.427
9.7874 24.336
9.8026 24.339
9.8178 23.645
9.8329 23.389
9.8481 23.512
9.8633 23.785
9.8785 24.206
9.8936 24.368
9.9088 24.467
9.9240 24.203
9.9392 24.093
9.9543 23.912
9.9695 23.797
9.9847 23.810
9.9999 23.699
10.0150 23.712
10.0302 23.608
10.0454 23.318
10.0606 23.360
10.0757 23.573
10.0909 23.507
10.1061 23.418
10.1213 23.444
10.1364 23.564
10.1516 23.614
10.1668 23.594
10.1820 23.644
10.1971 23.982
10.2123 24.070
10.2275 23.610
10.2427 23.677
10.2578 23.621
10.2730 23.449
10.2882 23.570
10.3034 23.663
10.3185 23.555
10.3337 23.230
10.3489 23.322
10.3641 23.244
10.3792 22.912
10.3944 23.198
10.4096 23.087
10.4248 23.116
10.4399 23.054
10.4551 23.160
10.4703 23.111
10.4855 22.774
10.5006 23.100
10.5158 23.219
10.5310 23.251
10.5462 22.859
10.5613 22.863
10.5765 22.726
10.5917 22.789
10.6069 22.496
10.6220 22.963
10.6372 22.991
10.6524 22.841
10.6676 22.801
10.6827 22.655
10.6979 22.898
10.7131 22.722
10.7283 22.522
10.7434 22.640
10.7586 22.361
10.7738 22.167
10.7890 22.604
10.8041 22.296
10.8193 22.377
10.8345 22.280
10.8497 22.196
10.8648 22.420
10.8800 21.955
10.8952 21.908
10.9104 22.229
10.9255 22.295
10.9407 22.056
10.9559 22.345
10.9711 22.150
10.9862 21.849
11.0014 22.052
11.0166 22.113
11.0318 22.145
11.0469 21.834
11.0621 21.838
11.0773 22.024
11.0925 21.521
11.1076 21.526
11.1228 21.828
11.1380 21.967
11.1532 21.888
11.1683 22.003
11.1835 22.050
11.1987 21.528
11.2139 21.781
11.2290 22.066
11.2442 21.258
11.2594 21.542
11.2746 21.694
11.2897 21.334
11.3049 21.431
11.3201 21.829
11.3353 21.720
11.3504 21.737
11.3656 21.565
11.3808 21.392
11.3960 21.445
11.4111 21.475
11.4263 21.420
11.4415 21.311
11.4567 21.187
11.4718 21.169
11.4870 21.381
11.5022 21.341
11.5174 21.431
11.5325 21.341
11.5477 21.231
11.5629 21.208
11.5781 21.049
11.5932 20.886
11.6084 21.252
11.6236 20.849
11.6388 20.868
11.6539 20.923
11.6691 20.919
11.6843 20.954
11.6995 20.587
11.7146 20.348
11.7298 20.530
11.7450 20.350
11.7602 20.197
11.7753 20.437
11.7905 19.906
11.8057 19.895
11.8209 19.834
11.8360 19.941
11.8512 19.814
11.8664 19.864
11.8816 19.808
11.8967 19.513
11.9119 19.951
11.9271 19.717
11.9423 19.536
11.9574 19.093
11.9726 19.227
11.9878 19.222
12.0030 19.036
12.0181 19.518
12.0333 19.284
12.0485 19.086
12.0637 19.025
12.0788 18.946
12.0940 19.017
12.1092 18.831
12.1244 18.466
12.1395 18.338
12.1547 18.563
12.1699 18.606
12.1851 18.458
12.2002 18.247
12.2154 17.921
12.2306 18.204
12.2458 18.108
12.2609 17.819
12.2761 17.970
12.2913 17.788
12.3065 17.411
12.3216 17.746
12.3368 17.657
12.3520 17.096
12.3672 17.419
12.3823 17.760
12.3975 17.412
12.4127 16.964
12.4279 17.166
12.4430 16.970
12.4582 17.050
12.4734 16.973
12.4886 16.796
12.5037 16.729
12.5189 16.366
12.5341 16.294
12.5493 16.502
12.5644 16.274
12.5796 15.887
12.5948 16.241
12.6100 16.233
12.6251 16.071
12.6403 15.772
12.6555 15.583
12.6707 15.594
12.6858 15.695
12.7010 15.740
12.7162 15.542
12.7314 15.224
12.7465 15.296
12.7617 15.269
12.7769 15.173
12.7921 15.095
12.8072 15.246
12.8224 15.360
12.8376 14.991
12.8528 15.085
12.8679 15.077
12.8831 14.931
12.8983 14.936
12.9135 14.663
12.9286 14.532
12.9438 14.819
12.9590 14.661
12.9742 14.340
12.9893 14.521
13.0045 14.500
13.0197 14.203
13.0349 14.105
13.0500 13.991
13.0652 13.866
13.0804 13.714
13.0956 13.891
13.1107 14.013
13.1259 13.710
13.1411 13.718
13.1563 13.961
13.1714 13.856
13.1866 13.560
13.2018 13.419
13.2170 13.290
13.2321 13.241
13.2473 13.239
13.2625 13.411
13.2777 13.592
13.2928 13.397
13.3080 13.331
13.3232 13.402
13.3384 13.140
13.3535 12.900
13.3687 12.923
13.3839 12.978
13.3991 12.819
13.4142 12.773
13.4294 12.771
13.4446 12.748
13.4598 12.791
13.4749 12.646
13.4901 12.557
13.5053 12.429
13.5205 12.558
13.5356 12.382
13.5508 12.208
13.5660 12.204
13.5812 12.043
13.5963 12.140
13.6115 12.442
13.6267 12.382
13.6419 12.328
13.6570 12.088
13.6722 11.878
13.6874 11.901
13.7026 11.907
13.7177 11.891
13.7329 11.909
13.7481 11.874
13.7633 11.960
13.7784 12.054
13.7936 12.044
13.8088 12.273
13.8239 12.317
13.8391 12.258
13.8543 12.160
13.8695 12.221
13.8846 11.995
13.8998 12.064
13.9150 12.175
13.9302 11.894
13.9453 11.805
13.9605 11.766
13.9757 11.623
13.9909 11.717
14.0060 11.654
14.0212 11.602
14.0364 11.449
14.0516 11.470
14.0667 11.320
14.0819 11.325
14.0971 11.423
14.1123 11.436
14.1274 11.297
14.1426 11.137
14.1578 10.991
14.1730 11.025
14.1881 11.059
14.2033 11.154
14.2185 11.450
14.2337 11.410
14.2488 11.254
14.2640 11.351
14.2792 11.490
14.2944 11.694
14.3095 11.577
14.3247 11.657
14.3399 11.627
14.3551 12.015
14.3702 12.266
14.3854 12.263
14.4006 13.060
14.4158 13.163
14.4309 13.681
14.4461 13.682
14.4613 13.388
14.4765 13.280
14.4916 13.579
14.5068 13.431
14.5220 13.394
14.5372 13.415
14.5523 13.400
14.5675 13.392
14.5827 12.514
14.5979 12.178
14.6130 12.551
14.6282 12.186
14.6434 12.114
14.6586 11.890
14.6737 11.936
14.6889 11.439
14.7041 11.460
14.7193 11.396
14.7344 11.320
14.7496 11.334
14.7648 11.687
14.7800 11.424
14.7951 11.215
14.8103 11.181
14.8255 11.259
14.8407 11.327
14.8558 11.062
14.8710 10.984
14.8862 10.798
14.9014 11.163
14.9165 11.204
14.9317 11.505
14.9469 11.033
14.9621 10.711
14.9772 10.542
14.9924 10.892
15.0076 10.659
15.0228 10.628
15.0379 10.810
15.0531 10.490
15.0683 10.509
15.0835 10.505
15.0986 10.899
15.1138 10.598
15.1290 10.717
15.1442 10.590
15.1593 10.264
15.1745 10.506
15.1897 10.316
15.2049 10.435
15.2200 10.520
15.2352 10.612
15.2504 10.387
15.2656 10.855
15.2807 10.305
15.2959 10.091
15.3111 10.607
15.3263 10.573
15.3414 10.700
15.3566 10.754
15.3718 9.974
15.3870 10.568
15.4021 10.579
15.4173 10.178
15.4325 10.499
15.4477 10.277
15.4628 10.311
15.4780 10.434
15.4932 10.551
15.5084 10.351
15.5235 10.906
15.5387 10.478
15.5539 10.419
15.5691 10.324
15.5842 10.443
15.5994 10.101
15.6146 10.223
15.6298 10.156
15.6449 10.068
15.6601 10.098
15.6753 10.089
15.6905 10.038
15.7056 10.137
15.7208 10.011
15.7360 10.155
15.7512 9.859
15.7663 9.855
15.7815 9.811
15.7967 9.591
15.8119 9.587
15.8270 9.706
15.8422 9.671
15.8574 9.768
15.8726 10.026
15.8877 9.782
15.9029 9.602
15.9181 9.595
15.9333 9.650
15.9484 9.836
15.9636 9.492
15.9788 9.680
15.9940 9.733
16.0091 9.517
16.0243 9.849
16.0395 9.956
16.0547 9.481
16.0698 9.597
16.0850 9.650
16.1002 9.927
16.1154 9.912
16.1305 9.601
16.1457 9.837
16.1609 9.991
16.1761 9.847
16.1912 9.846
16.2064 9.839
16.2216 9.646
16.2368 9.794
16.2519 10.000
16.2671 10.019
16.2823 10.079
16.2975 10.018
16.3126 10.151
16.3278 10.182
16.3430 10.142
16.3582 10.155
16.3733 10.375
16.3885 10.264
16.4037 10.282
16.4189 10.473
16.4340 10.236
16.4492 9.937
16.4644 9.829
16.4796 9.981
16.4947 9.887
16.5099 9.886
16.5251 9.839
16.5403 9.570
16.5554 9.758
16.5706 9.634
16.5858 9.731
16.6010 9.922
16.6161 9.926
16.6313 9.940
16.6465 9.730
16.6617 9.865
16.6768 10.001
16.6920 9.899
16.7072 10.204
16.7224 10.395
16.7375 10.143
16.7527 10.164
16.7679 9.967
16.7831 9.940
16.7982 10.287
16.8134 10.096
16.8286 9.829
16.8438 9.855
16.8589 9.913
16.8741 9.895
16.8893 10.007
16.9045 9.879
16.9196 9.913
16.9348 9.969
16.9500 9.786
16.9652 9.776
16.9803 9.918
16.9955 9.865
17.0107 10.012
17.0259 10.027
17.0410 10.186
17.0562 10.357
17.0714 10.532
17.0866 10.640
17.1017 10.699
17.1169 10.962
17.1321 11.241
17.1473 11.527
17.1624 11.881
17.1776 12.249
17.1928 12.977
17.2080 13.967
17.2231 15.165
17.2383 16.277
17.2535 17.374
17.2687 18.433
17.2838 18.591
17.2990 17.771
17.3142 16.778
17.3294 16.144
17.3445 15.877
17.3597 15.816
17.3749 15.735
17.3901 15.307
17.4052 14.061
17.4204 12.741
17.4356 12.129
17.4508 11.768
17.4659 11.458
17.4811 11.215
17.4963 11.076
17.5115 10.841
17.5266 10.495
17.5418 10.359
17.5570 10.388
17.5722 10.454
17.5873 10.481
17.6025 10.363
17.6177 10.230
17.6329 10.208
17.6480 10.263
17.6632 10.458
17.6784 10.343
17.6936 10.199
17.7087 10.424
17.7239 10.423
17.7391 10.534
17.7543 11.051
17.7694 11.223
17.7846 11.361
17.7998 11.613
17.8150 11.858
17.8301 12.050
17.8453 12.327
17.8605 12.689
17.8757 12.826
17.8908 12.881
17.9060 12.839
17.9212 12.237
17.9364 12.011
17.9515 11.811
17.9667 11.736
17.9819 11.673
17.9971 11.470
18.0122 11.252
18.0274 10.927
18.0426 10.842
18.0578 10.576
18.0729 10.452
18.0881 10.444
18.1033 10.104
18.1185 9.766
18.1336 9.867
18.1488 10.190
18.1640 10.137
18.1792 9.958
18.1943 10.039
18.2095 10.222
18.2247 10.267
18.2399 10.054
18.2550 10.079
18.2702 10.138
18.2854 9.952
18.3006 9.901
18.3157 9.868
18.3309 9.982
18.3461 10.035
18.3613 9.876
18.3764 9.806
18.3916 9.853
18.4068 9.811
18.4220 9.976
18.4371 9.826
18.4523 9.829
18.4675 10.160
18.4827 10.195
18.4978 10.154
18.5130 9.945
18.5282 9.936
18.5434 9.895
18.5585 9.948
18.5737 10.000
18.5889 9.873
18.6041 9.868
18.6192 10.015
18.6344 10.001
18.6496 9.869
18.6648 9.792
18.6799 10.017
18.6951 9.959
18.7103 9.793
18.7255 9.791
18.7406 9.894
18.7558 9.661
18.7710 9.753
18.7862 9.675
18.8013 9.741
18.8165 9.736
18.8317 9.781
18.8469 9.774
18.8620 9.921
18.8772 10.059
18.8924 9.982
18.9076 10.066
18.9227 10.016
18.9379 9.889
18.9531 9.958
18.9683 10.055
18.9834 9.942
18.9986 10.043
19.0138 10.161
19.0290 10.138
19.0441 10.128
19.0593 10.153
19.0745 10.399
19.0897 10.697
19.1048 10.418
19.1200 10.398
19.1352 10.568
19.1504 10.731
19.1655 10.691
19.1807 10.777
19.1959 10.642
19.2111 10.518
19.2262 10.879
19.2414 10.818
19.2566 10.807
19.2718 10.938
19.2869 10.961
19.3021 10.982
19.3173 11.111
19.3325 11.156
19.3476 11.159
19.3628 11.116
19.3780 11.030
19.3932 11.345
19.4083 11.331
19.4235 10.973
19.4387 10.982
19.4539 11.120
19.4690 11.216
19.4842 11.498
19.4994 11.380
19.5146 11.236
19.5297 11.478
19.5449 11.742
19.5601 11.596
19.5753 11.435
19.5904 11.677
19.6056 11.904
19.6208 11.952
19.6360 11.840
19.6511 11.765
19.6663 11.770
19.6815 11.591
19.6967 11.505
19.7118 11.678
19.7270 11.705
19.7422 11.686
19.7574 11.805
19.7725 11.633
19.7877 11.756
19.8029 11.916
19.8180 11.798
19.8332 11.855
19.8484 12.169
19.8636 12.307
19.8787 12.633
19.8939 12.892
19.9091 13.141
19.9243 13.580
19.9394 13.912
19.9546 14.019
19.9698 14.015
19.9850 14.376
20.0001 14.492
20.0153 14.308
20.0305 14.226
20.0457 14.100
20.0608 13.889
20.0760 13.693
20.0912 13.696
20.1064 13.468
20.1215 13.308
20.1367 13.185
20.1519 12.866
20.1671 12.961
20.1822 12.721
20.1974 12.459
20.2126 12.319
20.2278 12.316
20.2429 12.276
20.2581 12.088
20.2733 11.889
20.2885 11.667
20.3036 11.621
20.3188 11.683
20.3340 11.583
20.3492 11.686
20.3643 11.681
20.3795 11.204
20.3947 10.818
20.4099 10.893
20.4250 11.041
20.4402 11.171
20.4554 11.027
20.4706 10.843
20.4857 10.795
20.5009 10.819
20.5161 10.942
20.5313 10.902
20.5464 10.649
20.5616 10.846
20.5768 10.988
20.5920 11.063
20.6071 11.076
20.6223 10.952
20.6375 10.723
20.6527 10.797
20.6678 10.892
20.6830 10.766
20.6982 10.766
20.7134 10.941
20.7285 10.738
20.7437 10.784
20.7589 10.826
20.7741 10.555
20.7892 10.482
20.8044 10.435
20.8196 10.474
20.8348 10.619
20.8499 10.671
20.8651 10.777
20.8803 10.579
20.8955 10.445
20.9106 10.167
20.9258 10.308
20.9410 10.687
20.9562 10.506
20.9713 10.442
20.9865 10.426
21.0017 10.657
21.0169 10.810
21.0320 10.898
21.0472 10.455
21.0624 10.520
21.0776 10.533
21.0927 10.259
21.1079 10.535
21.1231 9.775
21.1383 10.073
21.1534 10.048
21.1686 9.834
21.1838 9.963
21.1990 10.108
21.2141 10.069
21.2293 9.694
21.2445 9.659
21.2597 9.678
21.2748 9.682
21.2900 9.834
21.3052 9.406
21.3204 9.306
21.3355 9.733
21.3507 9.365
21.3659 9.613
21.3811 9.614
21.3962 9.663
21.4114 9.772
21.4266 9.668
21.4418 9.457
21.4569 9.465
21.4721 9.348
21.4873 9.318
21.5025 9.192
21.5176 9.370
21.5328 9.541
21.5480 9.334
21.5632 9.261
21.5783 9.150
21.5935 9.105
21.6087 9.166
21.6239 9.518
21.6390 9.303
21.6542 9.048
21.6694 9.188
21.6846 9.176
21.6997 9.019
21.7149 9.113
21.7301 9.107
21.7453 9.087
21.7604 9.294
21.7756 9.086
21.7908 9.055
21.8060 9.130
21.8211 9.081
21.8363 8.949
21.8515 9.129
21.8667 9.054
21.8818 9.127
21.8970 8.897
21.9122 8.687
21.9274 8.914
21.9425 8.961
21.9577 8.944
21.9729 8.947
21.9881 8.712
22.0032 8.901
22.0184 8.983
22.0336 8.752
22.0488 8.876
22.0639 8.843
22.0791 8.509
22.0943 8.643
22.1095 8.657
22.1246 8.505
22.1398 8.489
22.1550 8.465
22.1702 8.637
22.1853 8.649
22.2005 8.490
22.2157 8.261
22.2309 8.472
22.2460 8.772
22.2612 8.929
22.2764 8.893
22.2916 8.656
22.3067 8.560
22.3219 8.540
22.3371 8.431
22.3523 8.276
22.3674 8.798
22.3826 8.628
22.3978 8.615
22.4130 8.681
22.4281 8.480
22.4433 8.482
22.4585 8.332
22.4737 8.289
22.4888 8.630
22.5040 8.408
22.5192 8.651
22.5344 8.501
22.5495 8.150
22.5647 8.602
22.5799 8.427
22.5951 8.683
22.6102 8.360
22.6254 8.311
22.6406 8.367
22.6558 8.333
22.6709 8.743
22.6861 8.329
22.7013 8.077
22.7165 7.903
22.7316 6.295
