'Id: "" Comment: "" Operator: "Lab Manager" Anode: "Mo" Scantype: "Still (Eiger2R_500K (1D mode))" TimePerStep: "300" X: "11.8" Y: "9.4" Z: "11.284" 
7.2532 18.537
7.2684 18.629
7.2836 18.831
7.2987 18.603
7.3139 18.636
7.3291 18.459
7.3443 18.837
7.3594 19.122
7.3746 19.604
7.3898 19.354
7.4050 19.733
7.4201 19.606
7.4353 19.103
7.4505 19.010
7.4657 19.438
7.4808 19.555
7.4960 19.706
7.5112 19.646
7.5264 19.793
7.5415 19.746
7.5567 19.668
7.5719 19.712
7.5871 19.838
7.6022 20.126
7.6174 19.964
7.6326 19.599
7.6478 19.906
7.6629 19.954
7.6781 19.961
7.6933 20.161
7.7085 19.959
7.7236 20.116
7.7388 20.499
7.7540 20.417
7.7692 20.239
7.7843 20.395
7.7995 20.512
7.8147 20.283
7.8299 20.362
7.8450 20.183
7.8602 20.311
7.8754 20.403
7.8905 20.296
7.9057 20.257
7.9209 20.508
7.9361 20.858
7.9512 20.611
7.9664 20.603
7.9816 20.915
7.9968 21.075
8.0119 20.731
8.0271 20.716
8.0423 20.806
8.0575 21.129
8.0726 21.044
8.0878 21.206
8.1030 21.123
8.1182 21.117
8.1333 21.477
8.1485 21.249
8.1637 21.183
8.1789 21.269
8.1940 21.132
8.2092 21.564
8.2244 21.272
8.2396 21.468
8.2547 21.423
8.2699 21.024
8.2851 21.116
8.3003 21.196
8.3154 21.182
8.3306 21.264
8.3458 21.589
8.3610 21.286
8.3761 21.661
8.3913 21.692
8.4065 22.152
8.4217 21.970
8.4368 21.673
8.4520 21.301
8.4672 21.983
8.4824 21.806
8.4975 22.470
8.5127 22.197
8.5279 22.265
8.5431 22.337
8.5582 21.945
8.5734 22.066
8.5886 22.363
8.6038 22.091
8.6189 22.199
8.6341 22.164
8.6493 22.006
8.6645 22.052
8.6796 21.760
8.6948 21.805
8.7100 22.125
8.7252 22.572
8.7403 22.206
8.7555 22.824
8.7707 22.121
8.7859 21.604
8.8010 22.104
8.8162 22.315
8.8314 22.323
8.8466 22.435
8.8617 22.526
8.8769 22.620
8.8921 22.258
8.9073 22.594
8.9224 22.276
8.9376 22.596
8.9528 22.388
8.9680 22.557
8.9831 22.563
8.9983 22.570
9.0135 22.425
9.0287 22.691
9.0438 22.195
9.0590 22.018
9.0742 22.329
9.0894 22.660
9.1045 22.069
9.1197 22.297
9.1349 22.621
9.1501 22.370
9.1652 22.715
9.1804 22.696
9.1956 22.557
9.2108 22.722
9.2259 23.135
9.2411 22.953
9.2563 22.535
9.2715 23.117
9.2866 23.055
9.3018 22.663
9.3170 22.472
9.3322 22.906
9.3473 23.047
9.3625 22.822
9.3777 22.497
9.3929 22.905
9.4080 23.176
9.4232 23.212
9.4384 22.777
9.4536 22.674
9.4687 22.954
9.4839 22.837
9.4991 22.929
9.5143 22.797
9.5294 23.052
9.5446 23.263
9.5598 23.325
9.5750 23.425
9.5901 23.712
9.6053 23.487
9.6205 23.069
9.6357 23.090
9.6508 23.105
9.6660 23.131
9.6812 23.313
9.6964 23.665
9.7115 23.843
9.7267 24.162
9.7419 24.004
9.7571 23.680
9.7722 23.523
9.7874 23.491
9.8026 23.342
9.8178 23.013
9.8329 23.058
9.8481 22.988
9.8633 22.778
9.8785 22.998
9.8936 23.181
9.9088 23.220
9.9240 23.255
9.9392 23.240
9.9543 23.284
9.9695 23.228
9.9847 22.998
9.9999 23.039
10.0150 23.167
10.0302 23.386
10.0454 23.325
10.0606 23.290
10.0757 23.309
10.0909 23.496
10.1061 23.495
10.1213 23.443
10.1364 23.375
10.1516 23.266
10.1668 23.181
10.1820 22.996
10.1971 23.106
10.2123 23.114
10.2275 23.223
10.2427 22.875
10.2578 22.485
10.2730 22.684
10.2882 23.052
10.3034 23.045
10.3185 22.821
10.3337 22.675
10.3489 22.826
10.3641 22.652
10.3792 22.613
10.3944 22.606
10.4096 22.057
10.4248 22.190
10.4399 22.864
10.4551 22.625
10.4703 22.521
10.4855 22.603
10.5006 22.247
10.5158 22.017
10.5310 21.983
10.5462 22.126
10.5613 22.559
10.5765 22.359
10.5917 22.379
10.6069 22.279
10.6220 22.276
10.6372 22.358
10.6524 22.307
10.6676 22.429
10.6827 22.396
10.6979 22.633
10.7131 22.530
10.7283 21.878
10.7434 21.816
10.7586 21.992
10.7738 22.023
10.7890 22.141
10.8041 22.202
10.8193 22.251
10.8345 21.996
10.8497 21.945
10.8648 21.842
10.8800 21.799
10.8952 21.915
10.9104 22.039
10.9255 22.121
10.9407 22.602
10.9559 22.213
10.9711 21.794
10.9862 22.124
11.0014 22.165
11.0166 22.029
11.0318 22.265
11.0469 22.095
11.0621 21.922
11.0773 21.654
11.0925 21.446
11.1076 21.572
11.1228 21.735
11.1380 21.830
11.1532 21.522
11.1683 21.476
11.1835 21.950
11.1987 21.686
11.2139 21.389
11.2290 21.249
11.2442 21.153
11.2594 21.255
11.2746 21.395
11.2897 21.677
11.3049 21.593
11.3201 21.490
11.3353 21.382
11.3504 21.370
11.3656 21.353
11.3808 21.325
11.3960 21.297
11.4111 21.193
11.4263 21.270
11.4415 21.282
11.4567 21.160
11.4718 21.295
11.4870 21.117
11.5022 20.869
11.5174 21.321
11.5325 21.094
11.5477 21.034
11.5629 20.984
11.5781 20.806
11.5932 20.507
11.6084 20.849
11.6236 20.856
11.6388 20.583
11.6539 20.609
11.6691 20.051
11.6843 20.536
11.6995 20.937
11.7146 20.521
11.7298 20.396
11.7450 20.411
11.7602 20.292
11.7753 20.300
11.7905 20.119
11.8057 20.390
11.8209 20.115
11.8360 19.497
11.8512 19.782
11.8664 19.657
11.8816 19.906
11.8967 19.617
11.9119 19.440
11.9271 19.370
11.9423 19.293
11.9574 19.080
11.9726 19.198
11.9878 19.331
12.0030 18.914
12.0181 18.907
12.0333 19.037
12.0485 19.310
12.0637 19.030
12.0788 18.784
12.0940 18.999
12.1092 18.749
12.1244 18.427
12.1395 18.541
12.1547 18.312
12.1699 17.976
12.1851 17.994
12.2002 17.970
12.2154 18.036
12.2306 18.077
12.2458 18.318
12.2609 18.348
12.2761 17.886
12.2913 17.604
12.3065 17.542
12.3216 17.593
12.3368 17.640
12.3520 17.538
12.3672 17.320
12.3823 17.675
12.3975 17.451
12.4127 17.007
12.4279 17.123
12.4430 16.967
12.4582 16.683
12.4734 17.036
12.4886 17.035
12.5037 16.577
12.5189 16.536
12.5341 16.809
12.5493 16.291
12.5644 15.946
12.5796 15.975
12.5948 16.132
12.6100 16.106
12.6251 16.028
12.6403 15.807
12.6555 15.783
12.6707 15.893
12.6858 15.829
12.7010 15.719
12.7162 15.722
12.7314 15.515
12.7465 15.559
12.7617 15.718
12.7769 15.331
12.7921 15.020
12.8072 15.149
12.8224 15.382
12.8376 15.077
12.8528 14.737
12.8679 14.761
12.8831 14.823
12.8983 14.825
12.9135 14.725
12.9286 14.656
12.9438 14.411
12.9590 14.044
12.9742 14.160
12.9893 14.288
13.0045 14.108
13.0197 14.134
13.0349 13.936
13.0500 13.870
13.0652 14.145
13.0804 14.208
13.0956 14.004
13.1107 13.643
13.1259 13.759
13.1411 13.955
13.1563 13.662
13.1714 13.362
13.1866 13.366
13.2018 13.451
13.2170 13.451
13.2321 13.331
13.2473 13.307
13.2625 13.335
13.2777 13.164
13.2928 13.018
13.3080 12.958
13.3232 13.116
13.3384 13.086
13.3535 12.942
13.3687 12.863
13.3839 12.961
13.3991 13.031
13.4142 12.685
13.4294 12.630
13.4446 12.607
13.4598 12.591
13.4749 12.673
13.4901 12.675
13.5053 12.499
13.5205 12.399
13.5356 12.465
13.5508 12.448
13.5660 12.145
13.5812 12.230
13.5963 12.361
13.6115 12.258
13.6267 12.208
13.6419 12.442
13.6570 12.345
13.6722 12.214
13.6874 12.293
13.7026 12.184
13.7177 12.120
13.7329 12.095
13.7481 11.751
13.7633 12.127
13.7784 12.252
13.7936 12.013
13.8088 12.027
13.8239 12.270
13.8391 12.226
13.8543 12.417
13.8695 12.532
13.8846 12.398
13.8998 12.048
13.9150 12.100
13.9302 12.383
13.9453 11.988
13.9605 11.716
13.9757 11.788
13.9909 11.637
14.0060 11.694
14.0212 11.750
14.0364 11.715
14.0516 11.596
14.0667 11.715
14.0819 11.576
14.0971 11.499
14.1123 11.391
14.1274 11.484
14.1426 11.518
14.1578 11.743
14.1730 11.746
14.1881 11.865
14.2033 11.791
14.2185 11.732
14.2337 11.703
14.2488 11.840
14.2640 11.660
14.2792 11.749
14.2944 12.127
14.3095 12.255
14.3247 12.065
14.3399 12.006
14.3551 12.155
14.3702 12.611
14.3854 12.856
14.4006 13.127
14.4158 13.109
14.4309 12.933
14.4461 12.754
14.4613 12.660
14.4765 12.490
14.4916 12.219
14.5068 11.760
14.5220 11.706
14.5372 11.537
14.5523 11.377
14.5675 11.149
14.5827 10.981
14.5979 10.829
14.6130 10.884
14.6282 10.780
14.6434 10.348
14.6586 10.407
14.6737 10.732
14.6889 10.490
14.7041 10.470
14.7193 10.637
14.7344 10.547
14.7496 10.605
14.7648 10.532
14.7800 10.330
14.7951 10.624
14.8103 10.287
14.8255 10.612
14.8407 10.482
14.8558 10.138
14.8710 10.250
14.8862 10.329
14.9014 10.453
14.9165 10.554
14.9317 10.247
14.9469 10.279
14.9621 10.587
14.9772 10.128
14.9924 10.339
15.0076 10.222
15.0228 10.486
15.0379 10.385
15.0531 10.390
15.0683 10.134
15.0835 10.285
15.0986 10.142
15.1138 10.163
15.1290 10.487
15.1442 10.079
15.1593 10.309
15.1745 10.005
15.1897 10.260
15.2049 10.013
15.2200 10.423
15.2352 10.445
15.2504 10.151
15.2656 9.950
15.2807 10.354
15.2959 9.961
15.3111 10.072
15.3263 9.940
15.3414 10.408
15.3566 10.274
15.3718 9.913
15.3870 10.316
15.4021 10.247
15.4173 10.088
15.4325 9.990
15.4477 10.178
15.4628 10.361
15.4780 10.451
15.4932 10.057
15.5084 10.152
15.5235 9.941
15.5387 10.105
15.5539 9.898
15.5691 9.917
15.5842 9.716
15.5994 9.704
15.6146 10.100
15.6298 9.839
15.6449 9.407
15.6601 9.490
15.6753 9.734
15.6905 9.694
15.7056 9.453
15.7208 9.559
15.7360 9.589
15.7512 9.602
15.7663 9.615
15.7815 9.724
15.7967 9.721
15.8119 9.520
15.8270 9.925
15.8422 10.020
15.8574 9.765
15.8726 9.680
15.8877 9.855
15.9029 9.339
15.9181 9.557
15.9333 9.648
15.9484 9.766
15.9636 9.711
15.9788 9.487
15.9940 9.639
16.0091 9.469
16.0243 9.515
16.0395 9.938
16.0547 9.759
16.0698 9.700
16.0850 9.817
16.1002 9.767
16.1154 9.708
16.1305 9.666
16.1457 9.493
16.1609 9.584
16.1761 9.676
16.1912 9.520
16.2064 9.712
16.2216 9.550
16.2368 9.668
16.2519 9.647
16.2671 9.528
16.2823 9.644
16.2975 9.825
16.3126 9.624
16.3278 9.617
16.3430 9.604
16.3582 9.502
16.3733 9.462
16.3885 9.597
16.4037 9.917
16.4189 9.905
16.4340 9.927
16.4492 9.806
16.4644 9.906
16.4796 9.927
16.4947 9.834
16.5099 9.697
16.5251 9.453
16.5403 9.383
16.5554 9.578
16.5706 9.596
16.5858 9.637
16.6010 9.674
16.6161 9.624
16.6313 9.580
16.6465 9.563
16.6617 9.777
16.6768 9.699
16.6920 9.650
16.7072 9.643
16.7224 9.824
16.7375 10.022
16.7527 9.997
16.7679 10.037
16.7831 9.853
16.7982 9.679
16.8134 9.729
16.8286 9.773
16.8438 9.748
16.8589 9.569
16.8741 9.773
16.8893 10.034
16.9045 10.008
16.9196 9.697
16.9348 9.603
16.9500 9.793
16.9652 9.939
16.9803 10.025
16.9955 9.944
17.0107 9.880
17.0259 9.852
17.0410 9.886
17.0562 9.900
17.0714 10.014
17.0866 10.270
17.1017 10.400
17.1169 10.686
17.1321 11.005
17.1473 11.385
17.1624 11.896
17.1776 12.399
17.1928 13.154
17.2080 13.825
17.2231 14.595
17.2383 15.958
17.2535 17.637
17.2687 18.621
17.2838 18.750
17.2990 18.376
17.3142 17.341
17.3294 16.627
17.3445 16.261
17.3597 15.895
17.3749 15.917
17.3901 15.535
17.4052 14.531
17.4204 13.472
17.4356 12.501
17.4508 12.041
17.4659 11.872
17.4811 11.810
17.4963 11.825
17.5115 11.589
17.5266 11.259
17.5418 10.946
17.5570 11.111
17.5722 11.112
17.5873 10.954
17.6025 11.099
17.6177 11.028
17.6329 11.114
17.6480 11.293
17.6632 11.556
17.6784 11.770
17.6936 11.512
17.7087 11.399
17.7239 11.382
17.7391 11.128
17.7543 11.126
17.7694 11.196
17.7846 11.050
17.7998 10.814
17.8150 10.887
17.8301 10.838
17.8453 10.463
17.8605 10.369
17.8757 10.513
17.8908 10.583
17.9060 10.481
17.9212 10.374
17.9364 10.192
17.9515 9.880
17.9667 9.818
17.9819 9.999
17.9971 10.161
18.0122 10.353
18.0274 10.345
18.0426 10.118
18.0578 9.939
18.0729 10.043
18.0881 10.141
18.1033 10.161
18.1185 10.157
18.1336 10.112
18.1488 10.022
18.1640 9.842
18.1792 9.828
18.1943 9.718
18.2095 9.857
18.2247 9.987
18.2399 10.004
18.2550 9.952
18.2702 9.827
18.2854 9.866
18.3006 9.882
18.3157 9.829
18.3309 9.710
18.3461 9.682
18.3613 9.819
18.3764 9.633
18.3916 9.717
18.4068 9.888
18.4220 9.793
18.4371 9.685
18.4523 9.702
18.4675 9.781
18.4827 9.761
18.4978 9.722
18.5130 9.872
18.5282 9.888
18.5434 9.851
18.5585 9.744
18.5737 9.684
18.5889 9.621
18.6041 9.628
18.6192 9.820
18.6344 9.838
18.6496 9.729
18.6648 9.727
18.6799 9.700
18.6951 9.813
18.7103 10.091
18.7255 9.808
18.7406 9.535
18.7558 9.661
18.7710 9.639
18.7862 9.638
18.8013 9.503
18.8165 9.418
18.8317 9.917
18.8469 10.073
18.8620 9.963
18.8772 10.137
18.8924 9.920
18.9076 9.834
18.9227 9.775
18.9379 9.709
18.9531 9.904
18.9683 9.942
18.9834 9.856
18.9986 9.889
19.0138 10.041
19.0290 10.116
19.0441 10.242
19.0593 10.043
19.0745 10.262
19.0897 10.299
19.1048 10.182
19.1200 10.297
19.1352 10.414
19.1504 10.447
19.1655 10.496
19.1807 10.481
19.1959 10.588
19.2111 10.766
19.2262 10.666
19.2414 10.857
19.2566 10.983
19.2718 10.933
19.2869 10.893
19.3021 10.740
19.3173 10.957
19.3325 11.034
19.3476 10.881
19.3628 11.123
19.3780 11.103
19.3932 11.057
19.4083 11.116
19.4235 11.121
19.4387 11.272
19.4539 11.266
19.4690 11.153
19.4842 11.260
19.4994 11.375
19.5146 11.479
19.5297 11.504
19.5449 11.307
19.5601 11.274
19.5753 11.496
19.5904 11.525
19.6056 11.627
19.6208 11.738
19.6360 11.603
19.6511 11.639
19.6663 11.594
19.6815 11.564
19.6967 11.673
19.7118 11.701
19.7270 11.845
19.7422 11.970
19.7574 11.958
19.7725 11.975
19.7877 11.821
19.8029 11.873
19.8180 12.226
19.8332 12.148
19.8484 12.081
19.8636 12.409
19.8787 12.713
19.8939 12.875
19.9091 13.204
19.9243 13.499
19.9394 13.654
19.9546 13.857
19.9698 14.174
19.9850 14.444
20.0001 14.201
20.0153 13.941
20.0305 13.625
20.0457 13.539
20.0608 13.669
20.0760 13.748
20.0912 13.577
20.1064 13.444
20.1215 13.370
20.1367 13.143
20.1519 12.971
20.1671 12.834
20.1822 12.906
20.1974 12.821
20.2126 12.656
20.2278 12.718
20.2429 12.648
20.2581 12.320
20.2733 11.998
20.2885 12.044
20.3036 11.967
20.3188 12.047
20.3340 11.993
20.3492 12.046
20.3643 11.800
20.3795 11.723
20.3947 11.499
20.4099 11.871
20.4250 11.664
20.4402 11.664
20.4554 11.613
20.4706 11.797
20.4857 11.969
20.5009 11.657
20.5161 11.367
20.5313 11.309
20.5464 11.505
20.5616 11.357
20.5768 11.087
20.5920 10.964
20.6071 11.076
20.6223 11.051
20.6375 10.748
20.6527 10.848
20.6678 10.596
20.6830 10.572
20.6982 10.237
20.7134 10.284
20.7285 10.495
20.7437 10.439
20.7589 10.519
20.7741 10.437
20.7892 10.586
20.8044 10.432
20.8196 10.247
20.8348 10.242
20.8499 10.259
20.8651 10.293
20.8803 10.230
20.8955 10.290
20.9106 10.387
20.9258 9.869
20.9410 9.740
20.9562 9.913
20.9713 10.212
20.9865 9.795
21.0017 9.905
21.0169 10.047
21.0320 9.986
21.0472 9.848
21.0624 9.887
21.0776 10.039
21.0927 10.366
21.1079 9.820
21.1231 10.091
21.1383 9.695
21.1534 9.808
21.1686 9.707
21.1838 9.574
21.1990 9.551
21.2141 9.321
21.2293 10.016
21.2445 9.650
21.2597 10.055
21.2748 9.706
21.2900 9.258
21.3052 9.605
21.3204 9.546
21.3355 9.586
21.3507 9.616
21.3659 9.440
21.3811 9.525
21.3962 9.334
21.4114 9.357
21.4266 9.456
21.4418 9.425
21.4569 9.353
21.4721 9.190
21.4873 9.502
21.5025 9.534
21.5176 9.223
21.5328 9.292
21.5480 9.334
21.5632 9.244
21.5783 9.073
21.5935 9.222
21.6087 9.130
21.6239 9.187
21.6390 9.429
21.6542 9.479
21.6694 9.063
21.6846 9.224
21.6997 9.190
21.7149 8.986
21.7301 9.020
21.7453 9.202
21.7604 9.274
21.7756 9.026
21.7908 9.038
21.8060 9.248
21.8211 9.079
21.8363 9.012
21.8515 9.031
21.8667 9.047
21.8818 8.973
21.8970 8.876
21.9122 9.160
21.9274 9.084
21.9425 8.886
21.9577 8.915
21.9729 8.938
21.9881 8.881
22.0032 8.788
22.0184 8.821
22.0336 8.685
22.0488 8.629
22.0639 8.765
22.0791 8.754
22.0943 8.657
22.1095 8.760
22.1246 8.808
22.1398 8.730
22.1550 8.691
22.1702 8.665
22.1853 8.738
22.2005 8.691
22.2157 8.700
22.2309 8.732
22.2460 8.633
22.2612 8.490
22.2764 8.427
22.2916 8.527
22.3067 8.632
22.3219 8.728
22.3371 8.802
22.3523 8.438
22.3674 8.260
22.3826 8.230
22.3978 8.281
22.4130 8.264
22.4281 8.461
22.4433 8.380
22.4585 8.248
22.4737 8.386
22.4888 8.453
22.5040 8.611
22.5192 8.802
22.5344 8.456
22.5495 8.327
22.5647 8.340
22.5799 8.139
22.5951 8.296
22.6102 8.503
22.6254 8.305
22.6406 8.346
22.6558 8.203
22.6709 8.259
22.6861 8.355
22.7013 8.231
22.7165 7.861
22.7316 6.463
