'Id: "" Comment: "" Operator: "Lab Manager" Anode: "Mo" Scantype: "Still (Eiger2R_500K (1D mode))" TimePerStep: "300" X: "11.8" Y: "9.4" Z: "11.284" 
7.2532 18.935
7.2684 18.693
7.2836 18.491
7.2987 18.857
7.3139 19.661
7.3291 19.175
7.3443 19.267
7.3594 18.945
7.3746 19.065
7.3898 19.388
7.4050 19.830
7.4201 19.492
7.4353 19.269
7.4505 19.365
7.4657 19.817
7.4808 19.584
7.4960 19.727
7.5112 19.842
7.5264 19.689
7.5415 19.952
7.5567 19.777
7.5719 19.831
7.5871 19.982
7.6022 19.995
7.6174 20.158
7.6326 20.289
7.6478 20.391
7.6629 20.420
7.6781 20.358
7.6933 20.297
7.7085 20.100
7.7236 20.152
7.7388 20.398
7.7540 20.452
7.7692 20.310
7.7843 20.268
7.7995 20.426
7.8147 20.770
7.8299 20.725
7.8450 20.864
7.8602 20.860
7.8754 20.826
7.8905 21.080
7.9057 20.790
7.9209 20.489
7.9361 20.747
7.9512 21.257
7.9664 21.167
7.9816 21.231
7.9968 21.246
8.0119 21.229
8.0271 21.202
8.0423 21.253
8.0575 21.500
8.0726 21.436
8.0878 21.368
8.1030 21.375
8.1182 21.615
8.1333 21.978
8.1485 21.779
8.1637 21.259
8.1789 21.292
8.1940 21.712
8.2092 21.558
8.2244 21.574
8.2396 21.775
8.2547 21.783
8.2699 21.870
8.2851 21.466
8.3003 21.496
8.3154 21.864
8.3306 22.114
8.3458 21.945
8.3610 21.928
8.3761 21.931
8.3913 21.573
8.4065 22.098
8.4217 21.923
8.4368 22.043
8.4520 21.822
8.4672 21.911
8.4824 21.666
8.4975 21.565
8.5127 21.798
8.5279 22.649
8.5431 21.283
8.5582 22.134
8.5734 22.023
8.5886 22.250
8.6038 21.965
8.6189 22.241
8.6341 22.028
8.6493 22.053
8.6645 22.540
8.6796 22.208
8.6948 22.674
8.7100 22.514
8.7252 22.230
8.7403 22.967
8.7555 22.934
8.7707 22.504
8.7859 22.449
8.8010 22.812
8.8162 22.627
8.8314 22.256
8.8466 22.583
8.8617 22.808
8.8769 22.315
8.8921 22.308
8.9073 22.629
8.9224 22.614
8.9376 22.779
8.9528 22.882
8.9680 22.863
8.9831 23.145
8.9983 22.565
9.0135 22.559
9.0287 22.818
9.0438 22.694
9.0590 23.153
9.0742 22.713
9.0894 22.502
9.1045 22.710
9.1197 22.505
9.1349 22.912
9.1501 22.883
9.1652 23.050
9.1804 23.234
9.1956 23.310
9.2108 22.887
9.2259 22.584
9.2411 22.715
9.2563 23.235
9.2715 23.391
9.2866 23.313
9.3018 23.375
9.3170 23.179
9.3322 22.932
9.3473 22.906
9.3625 22.924
9.3777 22.954
9.3929 23.227
9.4080 23.280
9.4232 23.083
9.4384 22.993
9.4536 23.013
9.4687 23.235
9.4839 23.276
9.4991 23.389
9.5143 23.462
9.5294 23.292
9.5446 23.486
9.5598 23.370
9.5750 23.538
9.5901 23.560
9.6053 23.630
9.6205 23.476
9.6357 23.473
9.6508 23.824
9.6660 23.617
9.6812 23.790
9.6964 24.009
9.7115 24.258
9.7267 24.170
9.7419 23.833
9.7571 24.179
9.7722 24.392
9.7874 24.029
9.8026 23.674
9.8178 23.481
9.8329 23.382
9.8481 23.491
9.8633 23.462
9.8785 23.707
9.8936 24.107
9.9088 23.780
9.9240 23.488
9.9392 23.666
9.9543 23.799
9.9695 23.913
9.9847 23.714
9.9999 23.418
10.0150 23.248
10.0302 23.321
10.0454 23.200
10.0606 23.409
10.0757 23.521
10.0909 22.950
10.1061 23.019
10.1213 23.380
10.1364 23.366
10.1516 23.545
10.1668 23.215
10.1820 23.187
10.1971 23.218
10.2123 23.014
10.2275 22.969
10.2427 23.041
10.2578 23.299
10.2730 23.330
10.2882 22.967
10.3034 23.052
10.3185 23.068
10.3337 23.191
10.3489 22.901
10.3641 22.724
10.3792 22.975
10.3944 23.171
10.4096 22.860
10.4248 23.019
10.4399 22.946
10.4551 22.923
10.4703 23.151
10.4855 23.008
10.5006 22.806
10.5158 22.654
10.5310 22.658
10.5462 22.460
10.5613 22.307
10.5765 22.484
10.5917 22.187
10.6069 22.259
10.6220 22.402
10.6372 23.130
10.6524 22.926
10.6676 22.650
10.6827 22.774
10.6979 22.513
10.7131 22.570
10.7283 22.563
10.7434 22.374
10.7586 22.432
10.7738 22.387
10.7890 22.468
10.8041 22.710
10.8193 22.633
10.8345 22.338
10.8497 22.192
10.8648 22.016
10.8800 22.244
10.8952 22.245
10.9104 22.394
10.9255 22.383
10.9407 22.526
10.9559 22.224
10.9711 22.234
10.9862 22.484
11.0014 22.415
11.0166 21.810
11.0318 21.737
11.0469 21.791
11.0621 21.956
11.0773 22.003
11.0925 21.917
11.1076 21.824
11.1228 21.510
11.1380 21.598
11.1532 21.854
11.1683 22.152
11.1835 21.717
11.1987 21.776
11.2139 21.593
11.2290 21.349
11.2442 21.516
11.2594 21.778
11.2746 22.063
11.2897 21.645
11.3049 21.713
11.3201 21.784
11.3353 21.743
11.3504 21.358
11.3656 21.146
11.3808 21.448
11.3960 21.456
11.4111 21.335
11.4263 21.485
11.4415 21.379
11.4567 21.158
11.4718 21.349
11.4870 21.410
11.5022 20.871
11.5174 21.064
11.5325 21.449
11.5477 21.400
11.5629 21.238
11.5781 20.924
11.5932 20.989
11.6084 21.269
11.6236 20.994
11.6388 20.566
11.6539 20.920
11.6691 21.197
11.6843 20.535
11.6995 20.219
11.7146 20.330
11.7298 20.597
11.7450 20.395
11.7602 20.424
11.7753 20.307
11.7905 20.214
11.8057 20.212
11.8209 20.241
11.8360 20.133
11.8512 19.935
11.8664 19.925
11.8816 19.994
11.8967 19.794
11.9119 19.699
11.9271 19.563
11.9423 19.341
11.9574 19.141
11.9726 19.509
11.9878 19.717
12.0030 19.547
12.0181 19.370
12.0333 19.195
12.0485 19.188
12.0637 19.228
12.0788 19.229
12.0940 18.828
12.1092 18.870
12.1244 18.880
12.1395 18.755
12.1547 18.780
12.1699 18.706
12.1851 18.382
12.2002 18.108
12.2154 18.034
12.2306 18.051
12.2458 18.216
12.2609 17.989
12.2761 17.812
12.2913 17.688
12.3065 17.608
12.3216 17.592
12.3368 17.636
12.3520 17.336
12.3672 17.439
12.3823 17.307
12.3975 17.313
12.4127 17.264
12.4279 16.908
12.4430 16.952
12.4582 17.177
12.4734 16.739
12.4886 16.548
12.5037 16.551
12.5189 16.590
12.5341 16.876
12.5493 16.678
12.5644 16.547
12.5796 15.962
12.5948 15.695
12.6100 16.195
12.6251 16.330
12.6403 16.087
12.6555 16.006
12.6707 15.922
12.6858 15.830
12.7010 15.911
12.7162 15.742
12.7314 15.381
12.7465 15.170
12.7617 15.331
12.7769 15.309
12.7921 15.447
12.8072 15.211
12.8224 15.159
12.8376 15.015
12.8528 15.005
12.8679 14.966
12.8831 14.569
12.8983 14.527
12.9135 14.503
12.9286 14.474
12.9438 14.717
12.9590 14.780
12.9742 14.744
12.9893 14.798
13.0045 14.673
13.0197 14.386
13.0349 14.020
13.0500 14.094
13.0652 14.290
13.0804 13.943
13.0956 13.871
13.1107 13.855
13.1259 13.610
13.1411 13.559
13.1563 13.604
13.1714 13.557
13.1866 13.488
13.2018 13.656
13.2170 13.536
13.2321 13.299
13.2473 13.288
13.2625 13.168
13.2777 13.275
13.2928 13.430
13.3080 13.350
13.3232 13.210
13.3384 12.968
13.3535 13.131
13.3687 13.332
13.3839 13.190
13.3991 13.077
13.4142 13.033
13.4294 13.100
13.4446 12.868
13.4598 12.676
13.4749 12.771
13.4901 12.780
13.5053 12.517
13.5205 12.546
13.5356 12.687
13.5508 12.584
13.5660 12.341
13.5812 12.202
13.5963 12.355
13.6115 12.497
13.6267 12.152
13.6419 12.293
13.6570 12.206
13.6722 11.994
13.6874 12.147
13.7026 12.177
13.7177 12.118
13.7329 12.131
13.7481 12.131
13.7633 12.081
13.7784 11.966
13.7936 12.147
13.8088 12.074
13.8239 12.208
13.8391 12.060
13.8543 12.107
13.8695 12.172
13.8846 12.385
13.8998 12.245
13.9150 12.047
13.9302 12.016
13.9453 12.072
13.9605 12.000
13.9757 11.936
13.9909 11.701
14.0060 11.583
14.0212 11.321
14.0364 11.609
14.0516 11.624
14.0667 11.519
14.0819 11.540
14.0971 11.530
14.1123 11.646
14.1274 11.552
14.1426 11.558
14.1578 11.446
14.1730 11.320
14.1881 11.233
14.2033 11.679
14.2185 11.851
14.2337 11.382
14.2488 11.344
14.2640 11.394
14.2792 11.245
14.2944 11.665
14.3095 11.747
14.3247 11.752
14.3399 11.802
14.3551 12.343
14.3702 12.701
14.3854 12.637
14.4006 12.752
14.4158 13.303
14.4309 12.920
14.4461 13.022
14.4613 12.964
14.4765 12.781
14.4916 12.362
14.5068 12.247
14.5220 11.992
14.5372 11.745
14.5523 11.323
14.5675 11.272
14.5827 11.332
14.5979 11.447
14.6130 11.222
14.6282 11.173
14.6434 11.158
14.6586 10.906
14.6737 11.060
14.6889 10.794
14.7041 10.736
14.7193 10.715
14.7344 11.024
14.7496 10.961
14.7648 11.142
14.7800 10.855
14.7951 11.260
14.8103 10.764
14.8255 10.904
14.8407 10.818
14.8558 10.733
14.8710 10.770
14.8862 10.864
14.9014 10.798
14.9165 10.936
14.9317 10.920
14.9469 10.702
14.9621 10.688
14.9772 10.307
14.9924 10.478
15.0076 11.073
15.0228 10.671
15.0379 10.397
15.0531 10.101
15.0683 10.388
15.0835 10.146
15.0986 10.059
15.1138 10.713
15.1290 10.487
15.1442 10.341
15.1593 10.230
15.1745 9.880
15.1897 10.097
15.2049 10.190
15.2200 10.114
15.2352 9.933
15.2504 10.262
15.2656 10.298
15.2807 10.227
15.2959 10.212
15.3111 10.332
15.3263 10.346
15.3414 10.138
15.3566 10.034
15.3718 10.329
15.3870 10.025
15.4021 10.563
15.4173 10.238
15.4325 10.426
15.4477 10.403
15.4628 10.437
15.4780 10.534
15.4932 10.383
15.5084 10.224
15.5235 10.344
15.5387 10.314
15.5539 10.340
15.5691 10.379
15.5842 10.408
15.5994 10.317
15.6146 10.421
15.6298 10.083
15.6449 9.872
15.6601 10.174
15.6753 9.970
15.6905 9.864
15.7056 9.936
15.7208 10.000
15.7360 9.755
15.7512 10.007
15.7663 9.695
15.7815 10.041
15.7967 9.930
15.8119 10.155
15.8270 10.262
15.8422 9.608
15.8574 9.904
15.8726 9.687
15.8877 9.853
15.9029 9.649
15.9181 9.668
15.9333 9.781
15.9484 9.971
15.9636 9.747
15.9788 9.673
15.9940 9.804
16.0091 9.754
16.0243 9.732
16.0395 9.680
16.0547 9.871
16.0698 10.044
16.0850 9.784
16.1002 9.859
16.1154 9.786
16.1305 9.635
16.1457 9.656
16.1609 9.925
16.1761 9.941
16.1912 9.661
16.2064 9.567
16.2216 9.578
16.2368 9.916
16.2519 9.860
16.2671 9.965
16.2823 10.032
16.2975 10.080
16.3126 9.722
16.3278 9.803
16.3430 9.726
16.3582 9.937
16.3733 10.108
16.3885 10.248
16.4037 10.307
16.4189 10.014
16.4340 10.026
16.4492 10.074
16.4644 10.146
16.4796 9.827
16.4947 9.818
16.5099 9.786
16.5251 9.790
16.5403 9.790
16.5554 9.692
16.5706 9.764
16.5858 9.774
16.6010 9.661
16.6161 9.723
16.6313 9.725
16.6465 9.917
16.6617 9.870
16.6768 9.892
16.6920 10.128
16.7072 10.312
16.7224 10.347
16.7375 10.228
16.7527 10.116
16.7679 10.098
16.7831 10.187
16.7982 10.003
16.8134 10.037
16.8286 10.254
16.8438 10.119
16.8589 9.869
16.8741 9.862
16.8893 9.856
16.9045 9.801
16.9196 9.837
16.9348 9.934
16.9500 10.077
16.9652 9.967
16.9803 9.902
16.9955 10.012
17.0107 10.010
17.0259 10.153
17.0410 10.294
17.0562 10.277
17.0714 10.295
17.0866 10.345
17.1017 10.522
17.1169 10.769
17.1321 11.056
17.1473 11.457
17.1624 11.877
17.1776 12.442
17.1928 13.085
17.2080 14.097
17.2231 15.350
17.2383 16.524
17.2535 17.695
17.2687 18.815
17.2838 18.952
17.2990 18.250
17.3142 17.178
17.3294 16.275
17.3445 16.094
17.3597 16.085
17.3749 15.903
17.3901 15.060
17.4052 13.856
17.4204 13.044
17.4356 12.489
17.4508 11.911
17.4659 11.651
17.4811 11.572
17.4963 11.198
17.5115 10.918
17.5266 10.815
17.5418 10.612
17.5570 10.462
17.5722 10.540
17.5873 10.580
17.6025 10.490
17.6177 10.475
17.6329 10.309
17.6480 10.385
17.6632 10.677
17.6784 10.704
17.6936 10.735
17.7087 10.810
17.7239 10.804
17.7391 10.805
17.7543 10.834
17.7694 10.810
17.7846 10.878
17.7998 10.849
17.8150 10.906
17.8301 11.044
17.8453 10.818
17.8605 10.789
17.8757 10.961
17.8908 10.982
17.9060 10.832
17.9212 10.622
17.9364 10.557
17.9515 10.503
17.9667 10.507
17.9819 10.412
17.9971 10.313
18.0122 10.358
18.0274 10.070
18.0426 10.203
18.0578 10.053
18.0729 9.769
18.0881 9.961
18.1033 10.195
18.1185 10.170
18.1336 10.133
18.1488 10.164
18.1640 10.062
18.1792 9.964
18.1943 10.008
18.2095 10.027
18.2247 9.972
18.2399 9.834
18.2550 9.989
18.2702 10.114
18.2854 10.011
18.3006 9.964
18.3157 9.983
18.3309 9.886
18.3461 9.989
18.3613 10.082
18.3764 9.931
18.3916 9.938
18.4068 9.729
18.4220 9.565
18.4371 9.779
18.4523 9.733
18.4675 9.708
18.4827 9.669
18.4978 9.725
18.5130 9.764
18.5282 9.994
18.5434 9.984
18.5585 10.006
18.5737 9.948
18.5889 9.525
18.6041 9.696
18.6192 9.841
18.6344 9.602
18.6496 9.635
18.6648 9.862
18.6799 9.969
18.6951 9.725
18.7103 9.717
18.7255 9.877
18.7406 9.737
18.7558 9.701
18.7710 9.790
18.7862 10.018
18.8013 9.825
18.8165 9.711
18.8317 9.657
18.8469 9.909
18.8620 9.930
18.8772 9.976
18.8924 10.028
18.9076 10.119
18.9227 10.193
18.9379 9.991
18.9531 10.136
18.9683 10.036
18.9834 9.929
18.9986 10.154
19.0138 10.274
19.0290 10.127
19.0441 10.178
19.0593 10.448
19.0745 10.297
19.0897 10.054
19.1048 10.149
19.1200 10.388
19.1352 10.436
19.1504 10.514
19.1655 10.500
19.1807 10.260
19.1959 10.297
19.2111 10.472
19.2262 10.515
19.2414 10.681
19.2566 11.240
19.2718 11.124
19.2869 11.089
19.3021 11.021
19.3173 10.898
19.3325 11.025
19.3476 11.122
19.3628 11.191
19.3780 11.242
19.3932 11.191
19.4083 11.202
19.4235 11.059
19.4387 10.979
19.4539 11.255
19.4690 11.414
19.4842 11.407
19.4994 11.264
19.5146 11.135
19.5297 11.317
19.5449 11.572
19.5601 11.575
19.5753 11.533
19.5904 11.544
19.6056 11.439
19.6208 11.610
19.6360 11.858
19.6511 11.850
19.6663 11.814
19.6815 11.794
19.6967 11.596
19.7118 11.690
19.7270 11.872
19.7422 11.791
19.7574 11.952
19.7725 11.978
19.7877 11.893
19.8029 11.913
19.8180 12.057
19.8332 12.290
19.8484 12.455
19.8636 12.572
19.8787 12.794
19.8939 13.171
19.9091 13.281
19.9243 13.355
19.9394 13.624
19.9546 14.144
19.9698 14.625
19.9850 14.861
20.0001 14.594
20.0153 14.303
20.0305 14.216
20.0457 14.026
20.0608 13.778
20.0760 13.551
20.0912 13.656
20.1064 13.570
20.1215 13.525
20.1367 13.395
20.1519 13.154
20.1671 12.887
20.1822 12.886
20.1974 12.813
20.2126 12.579
20.2278 12.617
20.2429 12.512
20.2581 12.357
20.2733 11.741
20.2885 11.605
20.3036 11.673
20.3188 11.491
20.3340 11.538
20.3492 11.871
20.3643 11.697
20.3795 11.735
20.3947 11.453
20.4099 10.817
20.4250 10.789
20.4402 11.068
20.4554 10.927
20.4706 10.659
20.4857 10.706
20.5009 10.596
20.5161 10.759
20.5313 10.742
20.5464 10.474
20.5616 10.404
20.5768 10.552
20.5920 10.651
20.6071 10.619
20.6223 10.716
20.6375 10.661
20.6527 10.646
20.6678 10.327
20.6830 10.561
20.6982 10.707
20.7134 10.344
20.7285 10.352
20.7437 10.445
20.7589 10.287
20.7741 10.476
20.7892 10.507
20.8044 10.300
20.8196 10.533
20.8348 10.513
20.8499 10.344
20.8651 10.392
20.8803 10.307
20.8955 10.223
20.9106 10.527
20.9258 10.497
20.9410 10.429
20.9562 10.223
20.9713 10.353
20.9865 10.231
21.0017 10.491
21.0169 10.513
21.0320 10.571
21.0472 10.298
21.0624 10.104
21.0776 9.885
21.0927 10.334
21.1079 10.019
21.1231 9.791
21.1383 10.409
21.1534 9.603
21.1686 10.115
21.1838 9.891
21.1990 9.803
21.2141 9.720
21.2293 9.860
21.2445 10.050
21.2597 9.623
21.2748 9.597
21.2900 9.927
21.3052 9.456
21.3204 9.741
21.3355 9.671
21.3507 9.541
21.3659 9.424
21.3811 9.495
21.3962 9.424
21.4114 9.441
21.4266 9.506
21.4418 9.269
21.4569 9.452
21.4721 9.268
21.4873 9.339
21.5025 9.416
21.5176 9.631
21.5328 9.601
21.5480 9.382
21.5632 9.330
21.5783 9.369
21.5935 9.273
21.6087 9.126
21.6239 9.316
21.6390 9.227
21.6542 9.318
21.6694 9.422
21.6846 9.308
21.6997 9.243
21.7149 9.233
21.7301 9.235
21.7453 8.965
21.7604 9.059
21.7756 8.953
21.7908 8.861
21.8060 9.158
21.8211 9.135
21.8363 9.088
21.8515 8.872
21.8667 9.032
21.8818 9.012
21.8970 8.874
21.9122 8.872
21.9274 8.803
21.9425 8.798
21.9577 8.842
21.9729 8.927
21.9881 8.966
22.0032 8.813
22.0184 8.853
22.0336 8.694
22.0488 8.622
22.0639 8.883
22.0791 8.908
22.0943 8.836
22.1095 8.847
22.1246 8.878
22.1398 8.742
22.1550 8.748
22.1702 9.019
22.1853 8.850
22.2005 8.745
22.2157 8.771
22.2309 8.647
22.2460 8.450
22.2612 8.590
22.2764 8.844
22.2916 8.569
22.3067 8.477
22.3219 8.616
22.3371 8.617
22.3523 8.576
22.3674 8.003
22.3826 8.362
22.3978 8.242
22.4130 8.504
22.4281 8.225
22.4433 8.673
22.4585 8.594
22.4737 8.444
22.4888 8.506
22.5040 8.359
22.5192 8.373
22.5344 8.549
22.5495 8.524
22.5647 8.346
22.5799 8.114
22.5951 8.465
22.6102 8.470
22.6254 8.634
22.6406 8.454
22.6558 8.455
22.6709 8.252
22.6861 8.175
22.7013 8.307
22.7165 7.881
22.7316 6.430
