'Id: "" Comment: "" Operator: "Lab Manager" Anode: "Mo" Scantype: "Still (Eiger2R_500K (1D mode))" TimePerStep: "300" X: "11.8" Y: "9.4" Z: "11.284" 
7.2532 19.181
7.2684 18.984
7.2836 18.904
7.2987 19.122
7.3139 18.936
7.3291 19.035
7.3443 19.285
7.3594 19.379
7.3746 19.601
7.3898 19.577
7.4050 19.034
7.4201 19.523
7.4353 19.257
7.4505 19.857
7.4657 19.990
7.4808 19.658
7.4960 19.466
7.5112 19.475
7.5264 19.501
7.5415 19.933
7.5567 20.009
7.5719 20.160
7.5871 20.280
7.6022 20.138
7.6174 19.964
7.6326 20.204
7.6478 20.588
7.6629 20.469
7.6781 20.431
7.6933 20.526
7.7085 20.846
7.7236 20.664
7.7388 20.376
7.7540 20.261
7.7692 20.879
7.7843 21.127
7.7995 20.844
7.8147 20.854
7.8299 20.962
7.8450 20.929
7.8602 20.830
7.8754 20.852
7.8905 20.994
7.9057 20.803
7.9209 20.712
7.9361 20.908
7.9512 21.043
7.9664 21.006
7.9816 21.186
7.9968 21.476
8.0119 21.394
8.0271 21.162
8.0423 21.278
8.0575 21.161
8.0726 21.137
8.0878 21.415
8.1030 21.205
8.1182 21.476
8.1333 21.580
8.1485 21.512
8.1637 21.835
8.1789 21.800
8.1940 21.525
8.2092 21.934
8.2244 21.670
8.2396 21.789
8.2547 21.533
8.2699 21.625
8.2851 21.659
8.3003 21.768
8.3154 21.849
8.3306 21.351
8.3458 21.793
8.3610 21.505
8.3761 21.984
8.3913 21.758
8.4065 21.850
8.4217 22.018
8.4368 22.799
8.4520 22.039
8.4672 21.962
8.4824 21.884
8.4975 21.725
8.5127 21.843
8.5279 22.201
8.5431 22.255
8.5582 21.786
8.5734 21.882
8.5886 22.357
8.6038 22.316
8.6189 22.484
8.6341 22.346
8.6493 22.514
8.6645 22.669
8.6796 22.565
8.6948 21.840
8.7100 22.338
8.7252 22.506
8.7403 22.533
8.7555 22.156
8.7707 22.336
8.7859 22.271
8.8010 22.608
8.8162 22.765
8.8314 22.676
8.8466 22.746
8.8617 22.189
8.8769 23.157
8.8921 22.765
8.9073 22.386
8.9224 22.858
8.9376 22.982
8.9528 22.451
8.9680 22.570
8.9831 23.027
8.9983 22.539
9.0135 22.304
9.0287 23.021
9.0438 23.228
9.0590 22.830
9.0742 22.765
9.0894 22.964
9.1045 22.921
9.1197 22.829
9.1349 22.705
9.1501 22.814
9.1652 22.717
9.1804 23.013
9.1956 22.755
9.2108 22.481
9.2259 22.944
9.2411 23.110
9.2563 23.207
9.2715 22.993
9.2866 23.022
9.3018 23.107
9.3170 23.294
9.3322 23.058
9.3473 23.230
9.3625 23.161
9.3777 23.308
9.3929 23.076
9.4080 22.978
9.4232 22.992
9.4384 23.044
9.4536 23.157
9.4687 23.048
9.4839 23.025
9.4991 23.164
9.5143 23.281
9.5294 23.355
9.5446 23.361
9.5598 23.499
9.5750 23.584
9.5901 23.616
9.6053 23.245
9.6205 23.738
9.6357 23.870
9.6508 23.605
9.6660 23.601
9.6812 23.741
9.6964 23.797
9.7115 23.859
9.7267 24.268
9.7419 24.354
9.7571 23.989
9.7722 23.780
9.7874 23.869
9.8026 24.046
9.8178 23.709
9.8329 23.779
9.8481 24.083
9.8633 23.968
9.8785 24.069
9.8936 23.892
9.9088 23.531
9.9240 23.627
9.9392 23.890
9.9543 23.927
9.9695 23.954
9.9847 23.745
9.9999 23.503
10.0150 23.413
10.0302 23.355
10.0454 23.242
10.0606 23.291
10.0757 23.041
10.0909 23.033
10.1061 23.529
10.1213 23.761
10.1364 23.493
10.1516 23.182
10.1668 23.058
10.1820 22.988
10.1971 22.991
10.2123 23.126
10.2275 23.230
10.2427 23.306
10.2578 23.196
10.2730 22.789
10.2882 22.849
10.3034 23.375
10.3185 23.547
10.3337 23.251
10.3489 23.214
10.3641 23.442
10.3792 23.032
10.3944 23.101
10.4096 23.155
10.4248 23.025
10.4399 23.146
10.4551 23.063
10.4703 23.161
10.4855 22.910
10.5006 22.677
10.5158 22.600
10.5310 22.864
10.5462 22.617
10.5613 22.158
10.5765 22.721
10.5917 22.870
10.6069 22.407
10.6220 22.264
10.6372 22.393
10.6524 22.631
10.6676 22.592
10.6827 22.549
10.6979 22.502
10.7131 22.386
10.7283 22.529
10.7434 22.424
10.7586 22.678
10.7738 22.771
10.7890 22.352
10.8041 22.338
10.8193 22.226
10.8345 22.329
10.8497 22.516
10.8648 22.160
10.8800 22.333
10.8952 22.226
10.9104 22.505
10.9255 22.152
10.9407 21.931
10.9559 21.998
10.9711 22.218
10.9862 22.179
11.0014 22.029
11.0166 22.033
11.0318 22.164
11.0469 21.757
11.0621 21.842
11.0773 22.061
11.0925 22.247
11.1076 22.259
11.1228 21.493
11.1380 21.771
11.1532 21.815
11.1683 21.506
11.1835 21.785
11.1987 22.036
11.2139 21.848
11.2290 21.901
11.2442 21.725
11.2594 21.575
11.2746 21.891
11.2897 21.428
11.3049 21.895
11.3201 21.540
11.3353 21.053
11.3504 21.479
11.3656 21.799
11.3808 21.433
11.3960 21.471
11.4111 21.317
11.4263 21.505
11.4415 21.331
11.4567 21.294
11.4718 21.417
11.4870 21.278
11.5022 21.492
11.5174 21.389
11.5325 21.567
11.5477 21.538
11.5629 21.295
11.5781 21.357
11.5932 20.852
11.6084 20.940
11.6236 20.919
11.6388 20.828
11.6539 20.894
11.6691 20.627
11.6843 20.731
11.6995 20.820
11.7146 20.615
11.7298 20.355
11.7450 20.781
11.7602 20.667
11.7753 20.621
11.7905 20.479
11.8057 20.055
11.8209 20.099
11.8360 19.990
11.8512 19.751
11.8664 19.880
11.8816 19.957
11.8967 20.066
11.9119 19.638
11.9271 19.620
11.9423 19.519
11.9574 19.588
11.9726 19.891
11.9878 19.357
12.0030 19.166
12.0181 18.990
12.0333 18.847
12.0485 19.134
12.0637 18.897
12.0788 18.732
12.0940 18.876
12.1092 18.531
12.1244 18.653
12.1395 18.858
12.1547 18.726
12.1699 18.290
12.1851 18.370
12.2002 18.233
12.2154 18.434
12.2306 18.328
12.2458 18.166
12.2609 18.028
12.2761 17.890
12.2913 17.870
12.3065 17.818
12.3216 17.888
12.3368 17.707
12.3520 17.475
12.3672 17.595
12.3823 17.057
12.3975 16.976
12.4127 17.318
12.4279 17.197
12.4430 16.845
12.4582 16.969
12.4734 16.885
12.4886 16.427
12.5037 16.567
12.5189 16.666
12.5341 16.399
12.5493 16.543
12.5644 16.342
12.5796 16.024
12.5948 16.085
12.6100 16.167
12.6251 15.939
12.6403 15.763
12.6555 15.972
12.6707 15.987
12.6858 15.734
12.7010 15.200
12.7162 15.206
12.7314 15.447
12.7465 15.243
12.7617 15.346
12.7769 15.574
12.7921 15.395
12.8072 15.318
12.8224 15.025
12.8376 14.972
12.8528 15.167
12.8679 15.181
12.8831 14.806
12.8983 14.550
12.9135 14.670
12.9286 14.680
12.9438 14.554
12.9590 14.713
12.9742 14.781
12.9893 14.637
13.0045 14.202
13.0197 14.210
13.0349 14.191
13.0500 13.901
13.0652 13.993
13.0804 13.984
13.0956 13.909
13.1107 13.886
13.1259 13.858
13.1411 13.781
13.1563 13.489
13.1714 13.278
13.1866 13.528
13.2018 13.809
13.2170 13.619
13.2321 13.440
13.2473 13.538
13.2625 13.325
13.2777 13.195
13.2928 13.342
13.3080 13.284
13.3232 13.350
13.3384 13.261
13.3535 12.862
13.3687 13.140
13.3839 13.589
13.3991 13.287
13.4142 12.985
13.4294 13.170
13.4446 13.074
13.4598 12.840
13.4749 12.856
13.4901 12.767
13.5053 12.710
13.5205 12.692
13.5356 12.647
13.5508 12.618
13.5660 12.567
13.5812 12.479
13.5963 12.318
13.6115 12.141
13.6267 12.121
13.6419 11.899
13.6570 11.832
13.6722 12.165
13.6874 12.154
13.7026 12.005
13.7177 12.124
13.7329 12.258
13.7481 12.084
13.7633 12.042
13.7784 12.130
13.7936 12.205
13.8088 12.162
13.8239 12.297
13.8391 12.568
13.8543 12.564
13.8695 12.484
13.8846 12.403
13.8998 12.313
13.9150 12.331
13.9302 12.243
13.9453 11.821
13.9605 11.959
13.9757 11.868
13.9909 11.902
14.0060 11.901
14.0212 11.810
14.0364 11.934
14.0516 11.656
14.0667 11.382
14.0819 11.601
14.0971 11.462
14.1123 11.288
14.1274 11.457
14.1426 11.362
14.1578 11.295
14.1730 11.279
14.1881 11.424
14.2033 11.464
14.2185 11.490
14.2337 11.122
14.2488 11.248
14.2640 11.411
14.2792 11.564
14.2944 11.530
14.3095 11.591
14.3247 11.939
14.3399 11.929
14.3551 11.955
14.3702 12.269
14.3854 12.583
14.4006 12.462
14.4158 12.911
14.4309 12.903
14.4461 12.919
14.4613 12.512
14.4765 12.742
14.4916 12.488
14.5068 12.254
14.5220 12.172
14.5372 12.088
14.5523 11.550
14.5675 11.758
14.5827 11.097
14.5979 11.152
14.6130 11.132
14.6282 10.895
14.6434 11.243
14.6586 10.979
14.6737 10.978
14.6889 10.867
14.7041 11.069
14.7193 10.966
14.7344 10.846
14.7496 11.083
14.7648 11.157
14.7800 10.962
14.7951 10.828
14.8103 10.886
14.8255 11.001
14.8407 10.714
14.8558 10.833
14.8710 10.672
14.8862 10.819
14.9014 10.605
14.9165 11.218
14.9317 11.181
14.9469 10.666
14.9621 10.581
14.9772 10.575
14.9924 10.811
15.0076 10.468
15.0228 10.529
15.0379 10.513
15.0531 10.791
15.0683 10.254
15.0835 10.274
15.0986 10.224
15.1138 10.408
15.1290 10.265
15.1442 10.386
15.1593 10.361
15.1745 10.477
15.1897 10.253
15.2049 10.601
15.2200 10.454
15.2352 10.334
15.2504 10.079
15.2656 10.062
15.2807 10.014
15.2959 10.307
15.3111 10.196
15.3263 10.340
15.3414 10.203
15.3566 10.552
15.3718 10.442
15.3870 10.436
15.4021 10.380
15.4173 10.445
15.4325 10.582
15.4477 10.555
15.4628 10.507
15.4780 10.529
15.4932 10.364
15.5084 10.151
15.5235 10.263
15.5387 10.493
15.5539 10.591
15.5691 10.391
15.5842 10.380
15.5994 10.264
15.6146 10.415
15.6298 9.973
15.6449 9.897
15.6601 10.069
15.6753 10.070
15.6905 9.613
15.7056 10.317
15.7208 10.084
15.7360 9.771
15.7512 9.788
15.7663 9.939
15.7815 9.897
15.7967 10.195
15.8119 10.143
15.8270 9.753
15.8422 9.882
15.8574 10.055
15.8726 9.805
15.8877 9.729
15.9029 9.755
15.9181 9.590
15.9333 9.521
15.9484 9.873
15.9636 9.840
15.9788 9.904
15.9940 9.806
16.0091 9.825
16.0243 9.751
16.0395 9.966
16.0547 9.764
16.0698 9.717
16.0850 9.639
16.1002 9.765
16.1154 9.586
16.1305 9.886
16.1457 9.785
16.1609 9.395
16.1761 9.729
16.1912 9.901
16.2064 9.922
16.2216 9.611
16.2368 9.937
16.2519 9.901
16.2671 9.931
16.2823 9.916
16.2975 9.815
16.3126 9.856
16.3278 10.101
16.3430 10.022
16.3582 10.007
16.3733 10.081
16.3885 10.080
16.4037 10.256
16.4189 10.286
16.4340 9.960
16.4492 9.908
16.4644 10.075
16.4796 10.050
16.4947 10.326
16.5099 10.125
16.5251 9.672
16.5403 9.818
16.5554 9.856
16.5706 9.675
16.5858 9.510
16.6010 9.655
16.6161 9.771
16.6313 9.939
16.6465 9.974
16.6617 10.108
16.6768 10.239
16.6920 10.197
16.7072 9.886
16.7224 9.987
16.7375 10.227
16.7527 10.137
16.7679 9.898
16.7831 9.890
16.7982 9.948
16.8134 9.799
16.8286 9.937
16.8438 9.949
16.8589 10.188
16.8741 10.255
16.8893 10.066
16.9045 9.896
16.9196 9.949
16.9348 10.207
16.9500 9.934
16.9652 9.763
16.9803 9.888
16.9955 10.040
17.0107 10.039
17.0259 10.007
17.0410 10.248
17.0562 10.169
17.0714 10.248
17.0866 10.478
17.1017 10.549
17.1169 10.851
17.1321 11.243
17.1473 11.443
17.1624 11.842
17.1776 12.662
17.1928 13.319
17.2080 13.887
17.2231 14.974
17.2383 16.463
17.2535 17.920
17.2687 18.788
17.2838 18.986
17.2990 18.542
17.3142 17.270
17.3294 16.202
17.3445 16.021
17.3597 16.111
17.3749 15.922
17.3901 15.148
17.4052 14.310
17.4204 13.439
17.4356 12.355
17.4508 11.804
17.4659 11.765
17.4811 11.349
17.4963 11.020
17.5115 11.142
17.5266 10.777
17.5418 10.577
17.5570 10.641
17.5722 10.456
17.5873 10.436
17.6025 10.217
17.6177 10.208
17.6329 10.366
17.6480 10.097
17.6632 10.025
17.6784 10.229
17.6936 10.571
17.7087 10.583
17.7239 10.394
17.7391 10.250
17.7543 10.453
17.7694 10.788
17.7846 10.660
17.7998 10.594
17.8150 10.703
17.8301 11.035
17.8453 10.961
17.8605 10.918
17.8757 11.101
17.8908 11.084
17.9060 11.009
17.9212 10.916
17.9364 10.830
17.9515 10.692
17.9667 10.687
17.9819 10.695
17.9971 10.364
18.0122 10.416
18.0274 10.288
18.0426 10.239
18.0578 10.582
18.0729 10.366
18.0881 9.947
18.1033 9.955
18.1185 10.354
18.1336 10.126
18.1488 10.024
18.1640 10.071
18.1792 10.091
18.1943 10.138
18.2095 10.042
18.2247 9.968
18.2399 10.064
18.2550 9.980
18.2702 9.723
18.2854 9.825
18.3006 9.906
18.3157 9.876
18.3309 10.073
18.3461 10.098
18.3613 9.936
18.3764 9.894
18.3916 9.899
18.4068 9.743
18.4220 9.640
18.4371 9.850
18.4523 9.891
18.4675 9.806
18.4827 9.923
18.4978 9.848
18.5130 10.046
18.5282 10.019
18.5434 9.912
18.5585 9.840
18.5737 9.765
18.5889 9.900
18.6041 9.953
18.6192 9.938
18.6344 9.876
18.6496 9.583
18.6648 9.714
18.6799 9.875
18.6951 9.765
18.7103 9.801
18.7255 9.795
18.7406 9.732
18.7558 9.820
18.7710 9.824
18.7862 9.779
18.8013 9.827
18.8165 9.780
18.8317 10.090
18.8469 10.253
18.8620 9.912
18.8772 9.805
18.8924 10.125
18.9076 10.138
18.9227 9.978
18.9379 9.905
18.9531 9.903
18.9683 9.894
18.9834 9.919
18.9986 9.937
19.0138 9.979
19.0290 10.214
19.0441 10.115
19.0593 9.911
19.0745 10.296
19.0897 10.389
19.1048 10.331
19.1200 10.456
19.1352 10.596
19.1504 10.668
19.1655 10.557
19.1807 10.512
19.1959 10.523
19.2111 10.521
19.2262 10.617
19.2414 10.802
19.2566 10.973
19.2718 11.041
19.2869 11.124
19.3021 11.185
19.3173 11.085
19.3325 10.689
19.3476 10.934
19.3628 11.303
19.3780 11.090
19.3932 11.181
19.4083 11.180
19.4235 11.119
19.4387 11.272
19.4539 11.289
19.4690 11.023
19.4842 11.001
19.4994 11.269
19.5146 11.584
19.5297 11.515
19.5449 11.428
19.5601 11.463
19.5753 11.603
19.5904 11.796
19.6056 11.615
19.6208 11.541
19.6360 11.602
19.6511 11.534
19.6663 11.473
19.6815 11.468
19.6967 11.535
19.7118 11.500
19.7270 11.361
19.7422 11.489
19.7574 11.778
19.7725 11.723
19.7877 11.783
19.8029 11.819
19.8180 11.738
19.8332 11.768
19.8484 12.092
19.8636 12.609
19.8787 12.733
19.8939 12.735
19.9091 13.003
19.9243 13.408
19.9394 14.026
19.9546 14.369
19.9698 14.685
19.9850 14.787
20.0001 14.461
20.0153 14.178
20.0305 14.021
20.0457 13.814
20.0608 13.839
20.0760 13.766
20.0912 13.414
20.1064 13.300
20.1215 13.273
20.1367 13.373
20.1519 13.111
20.1671 12.751
20.1822 12.760
20.1974 12.817
20.2126 12.572
20.2278 12.771
20.2429 12.749
20.2581 12.338
20.2733 11.952
20.2885 11.644
20.3036 11.568
20.3188 11.620
20.3340 11.735
20.3492 11.828
20.3643 11.344
20.3795 11.193
20.3947 11.094
20.4099 11.046
20.4250 10.958
20.4402 10.873
20.4554 10.842
20.4706 10.826
20.4857 10.632
20.5009 10.724
20.5161 10.549
20.5313 10.590
20.5464 10.688
20.5616 10.674
20.5768 10.909
20.5920 10.472
20.6071 10.461
20.6223 10.590
20.6375 10.645
20.6527 10.573
20.6678 10.552
20.6830 10.703
20.6982 10.442
20.7134 10.193
20.7285 10.382
20.7437 10.427
20.7589 10.471
20.7741 10.368
20.7892 10.467
20.8044 10.393
20.8196 10.152
20.8348 10.167
20.8499 10.322
20.8651 10.238
20.8803 10.267
20.8955 10.461
20.9106 10.472
20.9258 10.190
20.9410 10.518
20.9562 10.546
20.9713 10.595
20.9865 10.585
21.0017 10.199
21.0169 10.208
21.0320 10.209
21.0472 10.276
21.0624 10.109
21.0776 10.040
21.0927 10.148
21.1079 10.113
21.1231 10.085
21.1383 9.978
21.1534 9.735
21.1686 10.048
21.1838 10.100
21.1990 9.838
21.2141 9.784
21.2293 9.956
21.2445 9.615
21.2597 9.423
21.2748 9.688
21.2900 9.522
21.3052 9.813
21.3204 9.377
21.3355 9.704
21.3507 9.263
21.3659 9.760
21.3811 9.798
21.3962 9.765
21.4114 9.589
21.4266 9.156
21.4418 9.397
21.4569 9.310
21.4721 9.604
21.4873 9.478
21.5025 9.453
21.5176 9.395
21.5328 9.349
21.5480 9.421
21.5632 9.250
21.5783 9.318
21.5935 9.286
21.6087 9.247
21.6239 9.221
21.6390 9.421
21.6542 9.377
21.6694 9.063
21.6846 9.111
21.6997 9.322
21.7149 9.107
21.7301 9.158
21.7453 8.932
21.7604 9.019
21.7756 9.063
21.7908 8.990
21.8060 9.104
21.8211 8.917
21.8363 9.050
21.8515 9.279
21.8667 9.200
21.8818 9.279
21.8970 9.264
21.9122 9.110
21.9274 8.894
21.9425 8.726
21.9577 8.869
21.9729 8.749
21.9881 8.826
22.0032 8.974
22.0184 8.712
22.0336 8.615
22.0488 8.861
22.0639 8.938
22.0791 8.797
22.0943 8.745
22.1095 8.753
22.1246 8.778
22.1398 8.929
22.1550 8.865
22.1702 8.680
22.1853 8.714
22.2005 8.583
22.2157 8.613
22.2309 8.617
22.2460 8.408
22.2612 8.462
22.2764 8.784
22.2916 8.923
22.3067 8.732
22.3219 8.677
22.3371 8.468
22.3523 8.468
22.3674 8.816
22.3826 8.423
22.3978 8.679
22.4130 8.451
22.4281 8.512
22.4433 8.423
22.4585 8.621
22.4737 8.805
22.4888 8.963
22.5040 8.765
22.5192 8.527
22.5344 8.362
22.5495 8.487
22.5647 8.666
22.5799 8.618
22.5951 8.592
22.6102 8.509
22.6254 8.642
22.6406 8.477
22.6558 8.475
22.6709 8.272
22.6861 8.412
22.7013 8.296
22.7165 7.968
22.7316 6.567
