'Id: "" Comment: "" Operator: "Lab Manager" Anode: "Mo" Scantype: "Still (Eiger2R_500K (1D mode))" TimePerStep: "300" X: "11.8" Y: "9.4" Z: "11.284" 
7.2532 19.702
7.2684 19.004
7.2836 18.485
7.2987 18.538
7.3139 18.935
7.3291 18.942
7.3443 18.986
7.3594 19.167
7.3746 19.034
7.3898 19.069
7.4050 19.488
7.4201 19.340
7.4353 19.025
7.4505 19.576
7.4657 19.432
7.4808 19.188
7.4960 19.277
7.5112 19.430
7.5264 19.519
7.5415 19.415
7.5567 19.573
7.5719 19.417
7.5871 19.685
7.6022 20.007
7.6174 20.036
7.6326 20.365
7.6478 20.135
7.6629 20.349
7.6781 20.463
7.6933 20.403
7.7085 20.488
7.7236 20.277
7.7388 20.322
7.7540 20.329
7.7692 20.070
7.7843 20.079
7.7995 20.183
7.8147 20.131
7.8299 20.222
7.8450 20.462
7.8602 20.534
7.8754 20.453
7.8905 20.463
7.9057 20.510
7.9209 20.579
7.9361 20.583
7.9512 20.780
7.9664 20.593
7.9816 20.755
7.9968 20.878
8.0119 20.585
8.0271 20.645
8.0423 21.062
8.0575 21.144
8.0726 21.297
8.0878 21.030
8.1030 20.949
8.1182 20.994
8.1333 21.352
8.1485 21.278
8.1637 21.281
8.1789 21.438
8.1940 21.389
8.2092 21.319
8.2244 21.366
8.2396 21.202
8.2547 21.048
8.2699 21.148
8.2851 21.466
8.3003 21.586
8.3154 21.327
8.3306 22.111
8.3458 21.529
8.3610 21.214
8.3761 22.050
8.3913 21.371
8.4065 21.818
8.4217 21.923
8.4368 21.710
8.4520 21.512
8.4672 21.506
8.4824 22.281
8.4975 21.514
8.5127 22.263
8.5279 22.216
8.5431 22.387
8.5582 22.141
8.5734 22.086
8.5886 22.252
8.6038 21.720
8.6189 21.985
8.6341 22.296
8.6493 21.914
8.6645 22.066
8.6796 22.401
8.6948 22.487
8.7100 22.163
8.7252 22.201
8.7403 22.550
8.7555 22.108
8.7707 22.419
8.7859 22.022
8.8010 22.277
8.8162 22.013
8.8314 22.058
8.8466 22.132
8.8617 22.215
8.8769 22.628
8.8921 23.135
8.9073 22.503
8.9224 22.470
8.9376 22.681
8.9528 22.693
8.9680 22.358
8.9831 22.427
8.9983 22.288
9.0135 22.694
9.0287 22.373
9.0438 22.556
9.0590 22.473
9.0742 22.606
9.0894 22.227
9.1045 22.627
9.1197 22.278
9.1349 22.451
9.1501 22.388
9.1652 22.356
9.1804 22.674
9.1956 22.746
9.2108 22.685
9.2259 22.801
9.2411 22.512
9.2563 22.584
9.2715 22.700
9.2866 22.660
9.3018 22.694
9.3170 22.853
9.3322 23.394
9.3473 23.196
9.3625 22.526
9.3777 22.555
9.3929 22.519
9.4080 22.684
9.4232 22.887
9.4384 22.934
9.4536 22.877
9.4687 23.108
9.4839 22.867
9.4991 22.860
9.5143 23.120
9.5294 22.967
9.5446 22.882
9.5598 23.191
9.5750 23.424
9.5901 23.190
9.6053 23.251
9.6205 23.429
9.6357 23.429
9.6508 23.405
9.6660 23.247
9.6812 23.379
9.6964 23.408
9.7115 23.411
9.7267 23.762
9.7419 23.959
9.7571 23.835
9.7722 24.013
9.7874 23.906
9.8026 23.625
9.8178 23.336
9.8329 23.363
9.8481 23.501
9.8633 23.288
9.8785 23.356
9.8936 23.193
9.9088 23.050
9.9240 23.192
9.9392 23.284
9.9543 23.200
9.9695 23.342
9.9847 23.372
9.9999 22.888
10.0150 22.775
10.0302 23.153
10.0454 23.201
10.0606 23.201
10.0757 23.293
10.0909 23.357
10.1061 23.625
10.1213 23.502
10.1364 23.348
10.1516 23.584
10.1668 23.466
10.1820 23.043
10.1971 22.654
10.2123 23.019
10.2275 23.210
10.2427 22.927
10.2578 22.660
10.2730 22.822
10.2882 22.657
10.3034 22.550
10.3185 22.522
10.3337 22.518
10.3489 22.643
10.3641 22.487
10.3792 22.310
10.3944 22.582
10.4096 22.631
10.4248 22.676
10.4399 22.457
10.4551 22.743
10.4703 22.776
10.4855 22.743
10.5006 22.999
10.5158 22.906
10.5310 22.700
10.5462 22.346
10.5613 22.201
10.5765 22.365
10.5917 22.406
10.6069 22.741
10.6220 22.610
10.6372 22.711
10.6524 22.483
10.6676 22.118
10.6827 22.003
10.6979 22.408
10.7131 22.458
10.7283 22.422
10.7434 22.443
10.7586 22.290
10.7738 21.995
10.7890 22.139
10.8041 22.381
10.8193 22.246
10.8345 22.287
10.8497 22.076
10.8648 21.972
10.8800 21.933
10.8952 22.291
10.9104 22.049
10.9255 21.965
10.9407 22.083
10.9559 22.032
10.9711 21.868
10.9862 22.097
11.0014 22.073
11.0166 22.216
11.0318 22.318
11.0469 21.944
11.0621 21.921
11.0773 21.604
11.0925 21.699
11.1076 21.787
11.1228 21.575
11.1380 21.591
11.1532 21.331
11.1683 22.006
11.1835 21.866
11.1987 21.335
11.2139 21.322
11.2290 21.516
11.2442 21.480
11.2594 21.275
11.2746 21.443
11.2897 21.402
11.3049 21.052
11.3201 21.461
11.3353 21.518
11.3504 21.471
11.3656 21.189
11.3808 21.064
11.3960 21.303
11.4111 21.102
11.4263 21.311
11.4415 21.267
11.4567 21.020
11.4718 20.883
11.4870 21.120
11.5022 20.935
11.5174 20.950
11.5325 21.145
11.5477 20.678
11.5629 20.709
11.5781 20.872
11.5932 20.827
11.6084 20.633
11.6236 20.672
11.6388 20.603
11.6539 20.901
11.6691 20.610
11.6843 20.381
11.6995 20.437
11.7146 20.544
11.7298 20.737
11.7450 20.323
11.7602 20.060
11.7753 20.001
11.7905 20.417
11.8057 20.150
11.8209 20.032
11.8360 20.219
11.8512 19.919
11.8664 19.566
11.8816 19.601
11.8967 20.013
11.9119 19.873
11.9271 19.423
11.9423 19.386
11.9574 19.526
11.9726 19.620
11.9878 19.165
12.0030 19.176
12.0181 18.917
12.0333 18.815
12.0485 18.858
12.0637 19.054
12.0788 19.174
12.0940 18.908
12.1092 18.769
12.1244 18.754
12.1395 18.342
12.1547 18.382
12.1699 18.292
12.1851 18.025
12.2002 18.315
12.2154 18.392
12.2306 18.181
12.2458 18.079
12.2609 17.997
12.2761 18.059
12.2913 17.779
12.3065 17.601
12.3216 17.441
12.3368 17.248
12.3520 17.396
12.3672 17.433
12.3823 17.423
12.3975 17.430
12.4127 17.240
12.4279 17.263
12.4430 17.117
12.4582 16.941
12.4734 17.060
12.4886 16.809
12.5037 16.304
12.5189 16.712
12.5341 16.894
12.5493 16.367
12.5644 16.197
12.5796 16.349
12.5948 16.195
12.6100 15.802
12.6251 15.927
12.6403 16.182
12.6555 16.156
12.6707 15.775
12.6858 15.586
12.7010 15.480
12.7162 15.344
12.7314 15.673
12.7465 15.342
12.7617 15.195
12.7769 15.423
12.7921 15.024
12.8072 15.090
12.8224 14.969
12.8376 14.885
12.8528 15.103
12.8679 14.952
12.8831 14.619
12.8983 14.693
12.9135 14.673
12.9286 14.279
12.9438 14.298
12.9590 14.434
12.9742 14.413
12.9893 14.293
13.0045 14.273
13.0197 14.200
13.0349 14.051
13.0500 14.036
13.0652 13.962
13.0804 14.005
13.0956 14.067
13.1107 14.087
13.1259 13.977
13.1411 13.840
13.1563 13.655
13.1714 13.638
13.1866 13.572
13.2018 13.347
13.2170 13.264
13.2321 13.431
13.2473 13.364
13.2625 13.135
13.2777 13.240
13.2928 13.056
13.3080 13.003
13.3232 13.163
13.3384 13.088
13.3535 12.895
13.3687 12.755
13.3839 12.672
13.3991 12.916
13.4142 12.793
13.4294 12.840
13.4446 12.777
13.4598 12.673
13.4749 12.704
13.4901 12.608
13.5053 12.757
13.5205 12.748
13.5356 12.627
13.5508 12.533
13.5660 12.343
13.5812 12.218
13.5963 12.235
13.6115 12.329
13.6267 12.407
13.6419 12.285
13.6570 12.180
13.6722 12.299
13.6874 12.213
13.7026 12.158
13.7177 12.029
13.7329 12.141
13.7481 12.279
13.7633 12.129
13.7784 11.977
13.7936 12.166
13.8088 12.311
13.8239 12.247
13.8391 12.444
13.8543 12.448
13.8695 12.411
13.8846 12.373
13.8998 12.389
13.9150 12.242
13.9302 12.141
13.9453 12.297
13.9605 12.098
13.9757 12.007
13.9909 11.884
14.0060 11.792
14.0212 11.682
14.0364 11.859
14.0516 11.899
14.0667 11.904
14.0819 11.590
14.0971 11.284
14.1123 11.585
14.1274 11.845
14.1426 11.950
14.1578 11.759
14.1730 11.732
14.1881 11.822
14.2033 11.598
14.2185 11.557
14.2337 11.796
14.2488 11.674
14.2640 11.661
14.2792 11.877
14.2944 11.812
14.3095 11.858
14.3247 12.031
14.3399 12.135
14.3551 12.372
14.3702 12.866
14.3854 12.673
14.4006 13.116
14.4158 13.056
14.4309 12.872
14.4461 12.878
14.4613 12.765
14.4765 12.645
14.4916 12.509
14.5068 11.836
14.5220 11.615
14.5372 11.526
14.5523 11.484
14.5675 11.273
14.5827 10.973
14.5979 10.763
14.6130 10.649
14.6282 10.754
14.6434 10.631
14.6586 10.631
14.6737 10.607
14.6889 10.623
14.7041 10.644
14.7193 10.657
14.7344 10.605
14.7496 10.611
14.7648 10.904
14.7800 10.622
14.7951 10.752
14.8103 10.624
14.8255 10.556
14.8407 10.570
14.8558 10.380
14.8710 10.769
14.8862 10.546
14.9014 10.614
14.9165 10.724
14.9317 10.490
14.9469 10.516
14.9621 10.398
14.9772 10.157
14.9924 10.088
15.0076 10.435
15.0228 10.236
15.0379 10.510
15.0531 10.448
15.0683 10.483
15.0835 9.916
15.0986 10.090
15.1138 10.338
15.1290 10.061
15.1442 10.153
15.1593 10.155
15.1745 10.247
15.1897 10.333
15.2049 10.258
15.2200 10.101
15.2352 10.207
15.2504 10.128
15.2656 10.359
15.2807 9.888
15.2959 9.967
15.3111 10.194
15.3263 10.314
15.3414 10.282
15.3566 10.021
15.3718 9.989
15.3870 9.909
15.4021 10.499
15.4173 10.298
15.4325 10.143
15.4477 10.099
15.4628 10.370
15.4780 10.244
15.4932 10.112
15.5084 10.039
15.5235 10.160
15.5387 10.141
15.5539 9.922
15.5691 10.038
15.5842 9.686
15.5994 9.822
15.6146 9.679
15.6298 9.773
15.6449 9.624
15.6601 9.955
15.6753 9.902
15.6905 9.880
15.7056 9.882
15.7208 9.679
15.7360 9.844
15.7512 9.779
15.7663 9.838
15.7815 9.748
15.7967 9.810
15.8119 9.859
15.8270 9.984
15.8422 9.546
15.8574 9.737
15.8726 9.724
15.8877 9.619
15.9029 9.449
15.9181 9.675
15.9333 9.627
15.9484 9.563
15.9636 9.539
15.9788 9.471
15.9940 9.489
16.0091 9.411
16.0243 9.742
16.0395 9.240
16.0547 9.516
16.0698 9.605
16.0850 9.538
16.1002 9.613
16.1154 9.593
16.1305 9.630
16.1457 9.514
16.1609 9.872
16.1761 9.773
16.1912 9.616
16.2064 9.332
16.2216 9.554
16.2368 9.704
16.2519 9.647
16.2671 9.846
16.2823 9.692
16.2975 9.615
16.3126 9.933
16.3278 9.865
16.3430 9.778
16.3582 9.785
16.3733 9.926
16.3885 9.780
16.4037 9.743
16.4189 9.840
16.4340 9.718
16.4492 9.326
16.4644 9.285
16.4796 9.813
16.4947 9.796
16.5099 9.560
16.5251 9.504
16.5403 9.691
16.5554 9.494
16.5706 9.360
16.5858 9.476
16.6010 9.471
16.6161 9.493
16.6313 9.637
16.6465 9.698
16.6617 9.752
16.6768 9.706
16.6920 9.725
16.7072 9.878
16.7224 9.886
16.7375 9.961
16.7527 10.117
16.7679 9.895
16.7831 9.719
16.7982 9.645
16.8134 9.449
16.8286 9.650
16.8438 9.867
16.8589 9.827
16.8741 9.668
16.8893 9.713
16.9045 9.768
16.9196 9.786
16.9348 9.923
16.9500 9.936
16.9652 9.749
16.9803 9.835
16.9955 9.776
17.0107 9.647
17.0259 9.774
17.0410 9.972
17.0562 10.233
17.0714 10.393
17.0866 10.532
17.1017 10.749
17.1169 10.899
17.1321 11.032
17.1473 11.466
17.1624 11.810
17.1776 12.241
17.1928 13.077
17.2080 14.015
17.2231 14.983
17.2383 16.218
17.2535 17.518
17.2687 18.596
17.2838 18.687
17.2990 17.904
17.3142 16.866
17.3294 16.269
17.3445 16.442
17.3597 16.393
17.3749 16.196
17.3901 15.509
17.4052 14.472
17.4204 13.574
17.4356 12.710
17.4508 12.418
17.4659 12.107
17.4811 11.759
17.4963 11.574
17.5115 11.372
17.5266 11.124
17.5418 10.795
17.5570 10.773
17.5722 10.821
17.5873 10.992
17.6025 11.035
17.6177 11.058
17.6329 11.283
17.6480 11.310
17.6632 11.372
17.6784 11.481
17.6936 11.548
17.7087 11.500
17.7239 11.480
17.7391 11.349
17.7543 11.058
17.7694 11.189
17.7846 11.048
17.7998 10.893
17.8150 11.036
17.8301 10.736
17.8453 10.216
17.8605 10.204
17.8757 10.199
17.8908 9.942
17.9060 10.077
17.9212 10.286
17.9364 10.188
17.9515 10.089
17.9667 10.112
17.9819 10.342
17.9971 10.462
18.0122 10.237
18.0274 10.105
18.0426 10.009
18.0578 10.162
18.0729 10.128
18.0881 10.006
18.1033 10.026
18.1185 10.180
18.1336 9.926
18.1488 9.708
18.1640 9.940
18.1792 9.785
18.1943 9.795
18.2095 9.822
18.2247 9.872
18.2399 9.762
18.2550 9.738
18.2702 9.849
18.2854 9.658
18.3006 9.605
18.3157 9.895
18.3309 9.765
18.3461 9.743
18.3613 9.581
18.3764 9.665
18.3916 9.829
18.4068 9.858
18.4220 10.016
18.4371 9.964
18.4523 9.848
18.4675 9.836
18.4827 9.862
18.4978 9.835
18.5130 9.901
18.5282 9.947
18.5434 9.920
18.5585 9.789
18.5737 9.880
18.5889 9.921
18.6041 9.691
18.6192 9.671
18.6344 9.797
18.6496 9.883
18.6648 9.853
18.6799 9.571
18.6951 9.648
18.7103 9.790
18.7255 9.896
18.7406 9.856
18.7558 9.813
18.7710 9.968
18.7862 10.006
18.8013 9.721
18.8165 9.642
18.8317 9.687
18.8469 9.820
18.8620 9.897
18.8772 9.998
18.8924 10.032
18.9076 9.813
18.9227 9.889
18.9379 10.057
18.9531 10.088
18.9683 10.176
18.9834 10.243
18.9986 10.163
19.0138 10.290
19.0290 10.373
19.0441 10.188
19.0593 10.278
19.0745 10.209
19.0897 10.225
19.1048 10.289
19.1200 10.389
19.1352 10.562
19.1504 10.633
19.1655 10.552
19.1807 10.779
19.1959 10.687
19.2111 10.436
19.2262 10.516
19.2414 10.702
19.2566 10.779
19.2718 10.847
19.2869 10.914
19.3021 10.799
19.3173 10.944
19.3325 11.255
19.3476 11.112
19.3628 11.132
19.3780 11.092
19.3932 11.143
19.4083 11.346
19.4235 11.370
19.4387 11.220
19.4539 11.001
19.4690 11.101
19.4842 11.495
19.4994 11.569
19.5146 11.541
19.5297 11.503
19.5449 11.565
19.5601 11.662
19.5753 11.614
19.5904 11.660
19.6056 11.717
19.6208 11.758
19.6360 11.755
19.6511 11.636
19.6663 11.761
19.6815 11.847
19.6967 11.871
19.7118 11.877
19.7270 11.807
19.7422 11.830
19.7574 11.948
19.7725 11.899
19.7877 12.029
19.8029 12.212
19.8180 12.373
19.8332 12.374
19.8484 12.430
19.8636 12.540
19.8787 12.575
19.8939 12.849
19.9091 13.365
19.9243 13.739
19.9394 13.860
19.9546 13.983
19.9698 14.228
19.9850 14.765
20.0001 14.795
20.0153 14.208
20.0305 13.704
20.0457 13.686
20.0608 13.642
20.0760 13.683
20.0912 13.781
20.1064 13.596
20.1215 13.628
20.1367 13.236
20.1519 13.016
20.1671 12.878
20.1822 12.719
20.1974 12.824
20.2126 12.891
20.2278 12.969
20.2429 12.612
20.2581 12.347
20.2733 12.241
20.2885 11.828
20.3036 11.950
20.3188 12.058
20.3340 12.268
20.3492 12.247
20.3643 11.830
20.3795 12.029
20.3947 11.808
20.4099 11.849
20.4250 12.062
20.4402 12.001
20.4554 11.900
20.4706 11.755
20.4857 11.651
20.5009 11.836
20.5161 11.647
20.5313 11.320
20.5464 11.553
20.5616 11.546
20.5768 11.184
20.5920 11.200
20.6071 10.955
20.6223 10.939
20.6375 10.949
20.6527 10.737
20.6678 10.788
20.6830 10.755
20.6982 10.636
20.7134 10.371
20.7285 10.591
20.7437 10.687
20.7589 10.565
20.7741 10.363
20.7892 10.346
20.8044 10.340
20.8196 10.294
20.8348 10.114
20.8499 10.193
20.8651 10.148
20.8803 10.270
20.8955 10.188
20.9106 10.349
20.9258 10.140
20.9410 10.254
20.9562 10.331
20.9713 9.977
20.9865 10.105
21.0017 10.170
21.0169 10.013
21.0320 9.952
21.0472 10.058
21.0624 10.136
21.0776 9.908
21.0927 10.200
21.1079 9.935
21.1231 9.670
21.1383 9.873
21.1534 9.945
21.1686 9.720
21.1838 9.706
21.1990 9.750
21.2141 9.828
21.2293 9.773
21.2445 9.664
21.2597 9.602
21.2748 9.479
21.2900 9.718
21.3052 9.641
21.3204 9.371
21.3355 9.549
21.3507 9.570
21.3659 9.741
21.3811 9.566
21.3962 9.462
21.4114 9.281
21.4266 9.196
21.4418 9.202
21.4569 9.182
21.4721 9.489
21.4873 9.467
21.5025 9.387
21.5176 9.294
21.5328 9.288
21.5480 9.284
21.5632 9.193
21.5783 9.112
21.5935 9.399
21.6087 9.446
21.6239 9.335
21.6390 9.050
21.6542 9.027
21.6694 9.141
21.6846 8.975
21.6997 9.207
21.7149 9.085
21.7301 9.108
21.7453 9.157
21.7604 9.071
21.7756 9.032
21.7908 8.866
21.8060 8.930
21.8211 9.195
21.8363 9.049
21.8515 8.912
21.8667 9.105
21.8818 9.039
21.8970 8.941
21.9122 9.070
21.9274 9.078
21.9425 8.927
21.9577 8.729
21.9729 8.794
21.9881 8.997
22.0032 9.003
22.0184 8.861
22.0336 8.980
22.0488 8.961
22.0639 8.782
22.0791 8.617
22.0943 8.638
22.1095 8.641
22.1246 8.449
22.1398 8.640
22.1550 8.766
22.1702 8.765
22.1853 8.493
22.2005 8.545
22.2157 8.807
22.2309 8.516
22.2460 8.600
22.2612 8.665
22.2764 8.681
22.2916 8.661
22.3067 8.573
22.3219 8.491
22.3371 8.517
22.3523 8.440
22.3674 8.397
22.3826 8.187
22.3978 8.436
22.4130 8.711
22.4281 8.537
22.4433 8.550
22.4585 8.484
22.4737 8.416
22.4888 8.266
22.5040 8.285
22.5192 8.408
22.5344 8.124
22.5495 8.298
22.5647 8.301
22.5799 8.632
22.5951 8.312
22.6102 8.368
22.6254 8.398
22.6406 8.709
22.6558 8.234
22.6709 8.455
22.6861 8.301
22.7013 8.229
22.7165 7.742
22.7316 6.478
