'Id: "" Comment: "" Operator: "Lab Manager" Anode: "Mo" Scantype: "Still (Eiger2R_500K (1D mode))" TimePerStep: "300" X: "11.8" Y: "9.4" Z: "11.284" 
7.2532 18.488
7.2684 18.650
7.2836 18.311
7.2987 19.058
7.3139 18.596
7.3291 18.884
7.3443 18.997
7.3594 19.351
7.3746 19.069
7.3898 19.202
7.4050 19.621
7.4201 19.740
7.4353 19.538
7.4505 19.692
7.4657 19.259
7.4808 19.488
7.4960 19.481
7.5112 19.624
7.5264 19.459
7.5415 19.912
7.5567 19.900
7.5719 19.797
7.5871 19.803
7.6022 19.591
7.6174 20.062
7.6326 19.928
7.6478 19.910
7.6629 20.133
7.6781 20.187
7.6933 20.051
7.7085 19.856
7.7236 19.738
7.7388 20.310
7.7540 20.330
7.7692 20.196
7.7843 20.040
7.7995 19.880
7.8147 20.137
7.8299 20.122
7.8450 20.276
7.8602 20.653
7.8754 20.512
7.8905 20.654
7.9057 20.837
7.9209 20.640
7.9361 20.814
7.9512 20.830
7.9664 20.544
7.9816 20.711
7.9968 20.839
8.0119 20.889
8.0271 20.993
8.0423 21.136
8.0575 21.119
8.0726 21.200
8.0878 21.106
8.1030 20.914
8.1182 21.068
8.1333 21.335
8.1485 21.332
8.1637 21.270
8.1789 21.641
8.1940 21.507
8.2092 21.543
8.2244 21.262
8.2396 21.216
8.2547 21.777
8.2699 21.468
8.2851 21.230
8.3003 21.447
8.3154 21.466
8.3306 21.687
8.3458 21.726
8.3610 22.016
8.3761 21.898
8.3913 21.763
8.4065 21.474
8.4217 21.667
8.4368 21.324
8.4520 21.604
8.4672 22.103
8.4824 21.778
8.4975 22.049
8.5127 21.912
8.5279 22.415
8.5431 21.634
8.5582 21.774
8.5734 21.941
8.5886 21.680
8.6038 21.979
8.6189 22.179
8.6341 22.278
8.6493 22.192
8.6645 22.234
8.6796 21.866
8.6948 22.374
8.7100 22.225
8.7252 21.970
8.7403 21.689
8.7555 22.259
8.7707 22.290
8.7859 22.561
8.8010 22.211
8.8162 22.099
8.8314 22.198
8.8466 22.371
8.8617 22.015
8.8769 22.175
8.8921 22.454
8.9073 22.436
8.9224 22.256
8.9376 22.190
8.9528 22.573
8.9680 22.540
8.9831 22.842
8.9983 22.925
9.0135 22.459
9.0287 22.577
9.0438 22.485
9.0590 22.406
9.0742 22.788
9.0894 22.919
9.1045 22.353
9.1197 22.419
9.1349 22.778
9.1501 22.724
9.1652 22.592
9.1804 22.730
9.1956 22.583
9.2108 22.923
9.2259 23.242
9.2411 23.323
9.2563 22.867
9.2715 22.882
9.2866 22.663
9.3018 22.688
9.3170 22.707
9.3322 22.941
9.3473 22.856
9.3625 22.783
9.3777 22.967
9.3929 22.695
9.4080 22.852
9.4232 22.491
9.4384 22.753
9.4536 23.117
9.4687 22.610
9.4839 23.053
9.4991 23.232
9.5143 23.170
9.5294 23.114
9.5446 22.889
9.5598 23.169
9.5750 23.345
9.5901 23.248
9.6053 23.276
9.6205 23.175
9.6357 23.071
9.6508 23.362
9.6660 23.396
9.6812 23.389
9.6964 23.405
9.7115 23.433
9.7267 23.479
9.7419 23.712
9.7571 24.021
9.7722 24.107
9.7874 23.728
9.8026 23.285
9.8178 23.227
9.8329 23.246
9.8481 23.349
9.8633 23.163
9.8785 23.222
9.8936 23.397
9.9088 23.184
9.9240 23.209
9.9392 23.375
9.9543 23.245
9.9695 23.161
9.9847 23.348
9.9999 22.913
10.0150 22.964
10.0302 23.530
10.0454 23.487
10.0606 23.147
10.0757 23.205
10.0909 23.358
10.1061 23.022
10.1213 23.152
10.1364 23.328
10.1516 23.313
10.1668 23.146
10.1820 23.068
10.1971 22.932
10.2123 23.153
10.2275 22.970
10.2427 22.991
10.2578 23.004
10.2730 22.888
10.2882 23.148
10.3034 22.962
10.3185 22.576
10.3337 22.288
10.3489 22.198
10.3641 22.716
10.3792 22.699
10.3944 22.389
10.4096 22.699
10.4248 22.930
10.4399 22.827
10.4551 22.805
10.4703 22.470
10.4855 22.446
10.5006 22.719
10.5158 22.609
10.5310 22.714
10.5462 22.354
10.5613 22.336
10.5765 22.186
10.5917 22.119
10.6069 22.322
10.6220 22.294
10.6372 22.337
10.6524 22.217
10.6676 22.255
10.6827 22.527
10.6979 22.521
10.7131 22.543
10.7283 22.399
10.7434 22.545
10.7586 22.632
10.7738 22.061
10.7890 22.012
10.8041 22.202
10.8193 22.260
10.8345 22.310
10.8497 22.073
10.8648 21.845
10.8800 21.750
10.8952 21.682
10.9104 22.121
10.9255 22.097
10.9407 22.354
10.9559 22.315
10.9711 21.701
10.9862 21.942
11.0014 22.088
11.0166 21.944
11.0318 21.738
11.0469 21.978
11.0621 22.092
11.0773 21.937
11.0925 21.939
11.1076 21.756
11.1228 21.744
11.1380 21.658
11.1532 21.689
11.1683 21.967
11.1835 21.564
11.1987 21.667
11.2139 21.792
11.2290 21.594
11.2442 21.587
11.2594 21.626
11.2746 21.369
11.2897 21.334
11.3049 21.331
11.3201 21.224
11.3353 21.355
11.3504 21.164
11.3656 21.093
11.3808 21.395
11.3960 21.484
11.4111 21.068
11.4263 21.161
11.4415 21.434
11.4567 21.196
11.4718 21.301
11.4870 21.307
11.5022 20.877
11.5174 21.107
11.5325 20.991
11.5477 20.673
11.5629 20.603
11.5781 20.611
11.5932 20.523
11.6084 20.333
11.6236 20.627
11.6388 20.504
11.6539 20.434
11.6691 20.495
11.6843 20.390
11.6995 20.039
11.7146 20.441
11.7298 20.297
11.7450 20.400
11.7602 20.408
11.7753 20.205
11.7905 20.065
11.8057 20.045
11.8209 20.281
11.8360 20.485
11.8512 19.981
11.8664 19.643
11.8816 19.826
11.8967 19.556
11.9119 19.573
11.9271 19.807
11.9423 19.332
11.9574 18.967
11.9726 18.972
11.9878 19.395
12.0030 19.075
12.0181 19.018
12.0333 19.122
12.0485 19.005
12.0637 18.804
12.0788 18.547
12.0940 18.716
12.1092 18.701
12.1244 18.708
12.1395 18.621
12.1547 18.384
12.1699 18.386
12.1851 18.539
12.2002 18.394
12.2154 18.454
12.2306 18.341
12.2458 18.142
12.2609 18.280
12.2761 18.069
12.2913 17.839
12.3065 17.536
12.3216 17.631
12.3368 17.475
12.3520 17.108
12.3672 17.353
12.3823 17.330
12.3975 17.183
12.4127 17.053
12.4279 16.895
12.4430 16.964
12.4582 17.055
12.4734 16.764
12.4886 16.531
12.5037 16.467
12.5189 16.606
12.5341 16.517
12.5493 16.250
12.5644 16.277
12.5796 16.280
12.5948 16.256
12.6100 16.207
12.6251 16.030
12.6403 15.693
12.6555 15.730
12.6707 15.663
12.6858 15.730
12.7010 15.768
12.7162 15.536
12.7314 15.207
12.7465 15.296
12.7617 15.350
12.7769 15.112
12.7921 15.109
12.8072 15.099
12.8224 15.176
12.8376 15.333
12.8528 15.232
12.8679 14.907
12.8831 14.769
12.8983 14.893
12.9135 14.631
12.9286 14.355
12.9438 14.614
12.9590 14.812
12.9742 14.587
12.9893 14.305
13.0045 14.409
13.0197 14.267
13.0349 13.957
13.0500 14.134
13.0652 14.073
13.0804 13.993
13.0956 13.879
13.1107 13.768
13.1259 13.880
13.1411 13.724
13.1563 13.556
13.1714 13.243
13.1866 13.134
13.2018 13.566
13.2170 13.705
13.2321 13.293
13.2473 13.061
13.2625 13.280
13.2777 13.276
13.2928 13.111
13.3080 13.118
13.3232 13.144
13.3384 13.113
13.3535 13.183
13.3687 13.085
13.3839 12.640
13.3991 12.829
13.4142 13.145
13.4294 13.083
13.4446 12.888
13.4598 12.620
13.4749 12.794
13.4901 12.855
13.5053 12.604
13.5205 12.771
13.5356 12.832
13.5508 12.456
13.5660 12.285
13.5812 12.235
13.5963 12.272
13.6115 12.196
13.6267 12.240
13.6419 12.138
13.6570 11.972
13.6722 12.140
13.6874 12.132
13.7026 12.455
13.7177 12.683
13.7329 12.433
13.7481 12.562
13.7633 12.367
13.7784 12.132
13.7936 12.442
13.8088 12.169
13.8239 12.163
13.8391 12.449
13.8543 12.301
13.8695 12.283
13.8846 12.562
13.8998 12.490
13.9150 12.288
13.9302 11.874
13.9453 11.837
13.9605 11.987
13.9757 12.097
13.9909 11.938
14.0060 11.924
14.0212 11.843
14.0364 11.511
14.0516 11.504
14.0667 11.425
14.0819 11.575
14.0971 11.398
14.1123 11.748
14.1274 11.986
14.1426 11.775
14.1578 11.985
14.1730 11.932
14.1881 11.829
14.2033 11.831
14.2185 11.698
14.2337 11.753
14.2488 11.714
14.2640 11.646
14.2792 11.787
14.2944 11.807
14.3095 11.731
14.3247 11.950
14.3399 12.270
14.3551 12.365
14.3702 12.715
14.3854 12.831
14.4006 13.317
14.4158 13.298
14.4309 13.144
14.4461 12.840
14.4613 12.792
14.4765 12.337
14.4916 12.088
14.5068 12.129
14.5220 11.487
14.5372 11.389
14.5523 11.190
14.5675 11.240
14.5827 11.120
14.5979 11.014
14.6130 10.756
14.6282 10.729
14.6434 10.639
14.6586 10.767
14.6737 10.757
14.6889 10.775
14.7041 10.748
14.7193 10.492
14.7344 10.504
14.7496 10.648
14.7648 10.537
14.7800 10.621
14.7951 10.466
14.8103 10.481
14.8255 10.382
14.8407 10.441
14.8558 10.347
14.8710 10.527
14.8862 10.578
14.9014 10.458
14.9165 10.601
14.9317 10.435
14.9469 10.502
14.9621 10.237
14.9772 10.122
14.9924 10.125
15.0076 10.136
15.0228 10.720
15.0379 10.193
15.0531 10.462
15.0683 10.071
15.0835 10.199
15.0986 10.291
15.1138 10.408
15.1290 10.117
15.1442 10.377
15.1593 10.171
15.1745 10.067
15.1897 10.233
15.2049 10.132
15.2200 9.826
15.2352 10.182
15.2504 10.190
15.2656 10.171
15.2807 10.299
15.2959 10.065
15.3111 10.100
15.3263 9.874
15.3414 9.977
15.3566 9.926
15.3718 10.024
15.3870 10.263
15.4021 10.281
15.4173 10.132
15.4325 10.059
15.4477 10.293
15.4628 10.266
15.4780 10.328
15.4932 9.945
15.5084 10.061
15.5235 9.813
15.5387 9.784
15.5539 10.039
15.5691 9.816
15.5842 9.856
15.5994 9.965
15.6146 10.045
15.6298 9.926
15.6449 9.975
15.6601 9.975
15.6753 10.100
15.6905 9.707
15.7056 9.595
15.7208 9.610
15.7360 9.978
15.7512 9.587
15.7663 9.631
15.7815 9.785
15.7967 9.709
15.8119 9.477
15.8270 9.926
15.8422 9.853
15.8574 9.807
15.8726 9.539
15.8877 9.454
15.9029 9.418
15.9181 9.694
15.9333 9.540
15.9484 9.635
15.9636 9.564
15.9788 9.857
15.9940 9.817
16.0091 9.465
16.0243 9.580
16.0395 9.560
16.0547 9.531
16.0698 9.588
16.0850 9.372
16.1002 9.509
16.1154 9.483
16.1305 9.543
16.1457 9.776
16.1609 9.591
16.1761 9.448
16.1912 9.320
16.2064 9.705
16.2216 9.772
16.2368 9.470
16.2519 9.455
16.2671 9.732
16.2823 10.116
16.2975 9.755
16.3126 9.659
16.3278 9.755
16.3430 9.789
16.3582 9.916
16.3733 9.882
16.3885 9.693
16.4037 9.862
16.4189 9.744
16.4340 9.810
16.4492 9.589
16.4644 9.773
16.4796 9.770
16.4947 9.658
16.5099 9.696
16.5251 9.575
16.5403 9.641
16.5554 9.480
16.5706 9.674
16.5858 9.574
16.6010 9.511
16.6161 9.745
16.6313 9.690
16.6465 9.541
16.6617 9.777
16.6768 9.723
16.6920 9.744
16.7072 9.831
16.7224 9.917
16.7375 9.885
16.7527 9.718
16.7679 9.865
16.7831 9.894
16.7982 9.888
16.8134 9.884
16.8286 9.920
16.8438 9.835
16.8589 9.816
16.8741 9.871
16.8893 9.819
16.9045 9.871
16.9196 9.817
16.9348 9.553
16.9500 9.416
16.9652 9.664
16.9803 9.936
16.9955 9.701
17.0107 9.694
17.0259 9.785
17.0410 9.964
17.0562 10.288
17.0714 10.229
17.0866 10.138
17.1017 10.447
17.1169 10.700
17.1321 10.946
17.1473 11.511
17.1624 11.884
17.1776 12.345
17.1928 13.195
17.2080 14.039
17.2231 14.845
17.2383 16.133
17.2535 17.627
17.2687 18.639
17.2838 18.855
17.2990 17.941
17.3142 16.674
17.3294 16.038
17.3445 16.058
17.3597 16.246
17.3749 15.939
17.3901 15.167
17.4052 14.367
17.4204 13.343
17.4356 12.635
17.4508 12.375
17.4659 11.936
17.4811 11.784
17.4963 11.550
17.5115 11.226
17.5266 11.131
17.5418 11.063
17.5570 11.139
17.5722 11.088
17.5873 10.967
17.6025 10.909
17.6177 11.096
17.6329 11.342
17.6480 11.228
17.6632 11.292
17.6784 11.685
17.6936 11.575
17.7087 11.483
17.7239 11.339
17.7391 10.970
17.7543 11.014
17.7694 10.939
17.7846 10.847
17.7998 10.822
17.8150 10.503
17.8301 10.150
17.8453 10.345
17.8605 10.434
17.8757 10.323
17.8908 10.356
17.9060 10.359
17.9212 10.184
17.9364 10.234
17.9515 9.986
17.9667 9.984
17.9819 10.281
17.9971 10.244
18.0122 10.042
18.0274 10.073
18.0426 10.052
18.0578 10.052
18.0729 9.986
18.0881 9.838
18.1033 10.118
18.1185 10.157
18.1336 9.840
18.1488 9.870
18.1640 9.911
18.1792 9.745
18.1943 9.941
18.2095 10.148
18.2247 9.965
18.2399 9.800
18.2550 9.873
18.2702 9.871
18.2854 9.861
18.3006 9.837
18.3157 9.777
18.3309 9.762
18.3461 9.907
18.3613 9.995
18.3764 10.015
18.3916 9.854
18.4068 10.013
18.4220 9.889
18.4371 9.969
18.4523 9.946
18.4675 9.799
18.4827 9.561
18.4978 9.525
18.5130 9.692
18.5282 9.824
18.5434 9.872
18.5585 9.562
18.5737 9.741
18.5889 9.995
18.6041 9.921
18.6192 9.866
18.6344 9.808
18.6496 9.587
18.6648 9.617
18.6799 9.808
18.6951 9.733
18.7103 9.728
18.7255 9.770
18.7406 9.783
18.7558 9.804
18.7710 9.821
18.7862 9.885
18.8013 9.805
18.8165 9.790
18.8317 9.967
18.8469 9.972
18.8620 9.924
18.8772 9.912
18.8924 9.921
18.9076 9.931
18.9227 9.911
18.9379 10.033
18.9531 9.873
18.9683 9.891
18.9834 10.009
18.9986 10.023
19.0138 10.032
19.0290 10.115
19.0441 10.223
19.0593 10.158
19.0745 10.164
19.0897 10.267
19.1048 10.368
19.1200 10.383
19.1352 10.339
19.1504 10.568
19.1655 10.526
19.1807 10.403
19.1959 10.492
19.2111 10.780
19.2262 10.689
19.2414 10.704
19.2566 10.932
19.2718 10.689
19.2869 10.848
19.3021 11.005
19.3173 11.061
19.3325 11.072
19.3476 10.979
19.3628 11.009
19.3780 11.133
19.3932 11.152
19.4083 11.064
19.4235 10.972
19.4387 10.965
19.4539 11.201
19.4690 11.386
19.4842 11.528
19.4994 11.422
19.5146 11.586
19.5297 11.699
19.5449 11.625
19.5601 11.537
19.5753 11.406
19.5904 11.568
19.6056 11.794
19.6208 11.582
19.6360 11.742
19.6511 11.844
19.6663 11.418
19.6815 11.495
19.6967 11.785
19.7118 11.578
19.7270 11.646
19.7422 11.700
19.7574 11.534
19.7725 11.749
19.7877 12.052
19.8029 11.945
19.8180 11.908
19.8332 12.227
19.8484 12.354
19.8636 12.250
19.8787 12.438
19.8939 12.668
19.9091 12.849
19.9243 13.291
19.9394 13.541
19.9546 13.772
19.9698 14.239
19.9850 14.344
20.0001 14.136
20.0153 14.096
20.0305 13.932
20.0457 13.661
20.0608 13.846
20.0760 13.998
20.0912 13.781
20.1064 13.553
20.1215 13.362
20.1367 13.048
20.1519 12.998
20.1671 12.889
20.1822 12.640
20.1974 13.015
20.2126 12.933
20.2278 12.748
20.2429 12.790
20.2581 12.411
20.2733 12.248
20.2885 12.037
20.3036 11.869
20.3188 11.877
20.3340 12.047
20.3492 12.103
20.3643 12.117
20.3795 11.946
20.3947 11.950
20.4099 11.706
20.4250 11.711
20.4402 12.103
20.4554 11.924
20.4706 11.786
20.4857 11.769
20.5009 11.797
20.5161 11.662
20.5313 11.353
20.5464 11.291
20.5616 11.230
20.5768 11.319
20.5920 11.216
20.6071 11.204
20.6223 11.227
20.6375 10.903
20.6527 10.686
20.6678 10.680
20.6830 10.770
20.6982 10.546
20.7134 10.548
20.7285 10.640
20.7437 10.402
20.7589 10.570
20.7741 10.236
20.7892 10.335
20.8044 10.471
20.8196 10.223
20.8348 10.338
20.8499 10.212
20.8651 10.090
20.8803 10.053
20.8955 9.953
20.9106 9.977
20.9258 10.100
20.9410 10.272
20.9562 9.993
20.9713 10.337
20.9865 10.521
21.0017 10.154
21.0169 10.238
21.0320 9.900
21.0472 9.755
21.0624 9.844
21.0776 10.067
21.0927 9.910
21.1079 9.682
21.1231 9.661
21.1383 9.525
21.1534 9.459
21.1686 9.647
21.1838 9.787
21.1990 9.477
21.2141 9.685
21.2293 9.889
21.2445 9.633
21.2597 9.700
21.2748 9.440
21.2900 9.462
21.3052 9.750
21.3204 9.756
21.3355 9.458
21.3507 9.380
21.3659 9.772
21.3811 9.501
21.3962 9.306
21.4114 9.268
21.4266 9.622
21.4418 9.173
21.4569 9.475
21.4721 9.291
21.4873 9.152
21.5025 9.275
21.5176 9.775
21.5328 9.645
21.5480 9.444
21.5632 9.241
21.5783 9.244
21.5935 9.537
21.6087 9.004
21.6239 9.024
21.6390 9.173
21.6542 9.151
21.6694 9.349
21.6846 9.019
21.6997 9.046
21.7149 8.760
21.7301 8.844
21.7453 9.128
21.7604 9.234
21.7756 9.309
21.7908 8.909
21.8060 8.873
21.8211 8.978
21.8363 9.019
21.8515 9.175
21.8667 8.836
21.8818 8.758
21.8970 8.933
21.9122 8.920
21.9274 8.766
21.9425 8.731
21.9577 8.683
21.9729 8.877
21.9881 9.181
22.0032 9.062
22.0184 8.884
22.0336 8.882
22.0488 8.947
22.0639 8.823
22.0791 8.642
22.0943 8.647
22.1095 8.506
22.1246 8.426
22.1398 8.619
22.1550 8.522
22.1702 8.570
22.1853 8.607
22.2005 8.575
22.2157 8.672
22.2309 8.740
22.2460 8.679
22.2612 8.367
22.2764 8.523
22.2916 8.683
22.3067 8.685
22.3219 8.502
22.3371 8.462
22.3523 8.500
22.3674 8.258
22.3826 8.503
22.3978 8.424
22.4130 8.594
22.4281 8.340
22.4433 8.314
22.4585 8.411
22.4737 8.442
22.4888 8.355
22.5040 8.547
22.5192 8.308
22.5344 8.242
22.5495 8.739
22.5647 8.391
22.5799 8.482
22.5951 8.296
22.6102 8.305
22.6254 8.449
22.6406 8.391
22.6558 8.422
22.6709 7.962
22.6861 8.400
22.7013 8.345
22.7165 8.069
22.7316 6.468
