'Id: "" Comment: "" Operator: "Lab Manager" Anode: "Mo" Scantype: "Still (Eiger2R_500K (1D mode))" TimePerStep: "300" X: "11.8" Y: "9.4" Z: "11.284" 
7.2532 18.627
7.2684 18.895
7.2836 19.249
7.2987 19.028
7.3139 18.729
7.3291 19.476
7.3443 18.924
7.3594 19.298
7.3746 19.077
7.3898 19.452
7.4050 19.315
7.4201 19.450
7.4353 19.507
7.4505 19.325
7.4657 19.034
7.4808 19.610
7.4960 19.685
7.5112 19.508
7.5264 19.733
7.5415 19.839
7.5567 19.581
7.5719 19.808
7.5871 20.347
7.6022 20.003
7.6174 20.079
7.6326 19.894
7.6478 19.858
7.6629 20.089
7.6781 20.171
7.6933 20.284
7.7085 20.324
7.7236 20.476
7.7388 20.551
7.7540 20.518
7.7692 20.401
7.7843 20.673
7.7995 21.025
7.8147 20.828
7.8299 20.527
7.8450 20.861
7.8602 21.135
7.8754 20.994
7.8905 21.085
7.9057 21.017
7.9209 21.117
7.9361 21.072
7.9512 21.053
7.9664 21.502
7.9816 21.612
7.9968 21.356
8.0119 21.319
8.0271 21.304
8.0423 21.177
8.0575 21.439
8.0726 21.091
8.0878 21.249
8.1030 21.012
8.1182 21.005
8.1333 21.688
8.1485 21.949
8.1637 21.652
8.1789 21.733
8.1940 21.619
8.2092 21.566
8.2244 21.268
8.2396 21.618
8.2547 21.619
8.2699 21.888
8.2851 21.842
8.3003 21.609
8.3154 21.759
8.3306 21.821
8.3458 22.082
8.3610 22.004
8.3761 22.224
8.3913 21.434
8.4065 21.977
8.4217 21.808
8.4368 22.128
8.4520 21.735
8.4672 22.204
8.4824 22.332
8.4975 22.095
8.5127 21.996
8.5279 22.742
8.5431 22.689
8.5582 22.791
8.5734 22.455
8.5886 22.700
8.6038 22.261
8.6189 22.339
8.6341 22.897
8.6493 22.530
8.6645 22.972
8.6796 22.741
8.6948 22.475
8.7100 22.756
8.7252 22.884
8.7403 22.848
8.7555 22.756
8.7707 22.743
8.7859 22.573
8.8010 22.636
8.8162 22.989
8.8314 22.980
8.8466 22.516
8.8617 22.697
8.8769 22.265
8.8921 22.544
8.9073 22.962
8.9224 22.611
8.9376 22.955
8.9528 22.652
8.9680 22.396
8.9831 22.274
8.9983 22.813
9.0135 23.876
9.0287 23.228
9.0438 22.875
9.0590 22.704
9.0742 22.918
9.0894 22.755
9.1045 22.763
9.1197 22.984
9.1349 22.992
9.1501 23.140
9.1652 23.151
9.1804 23.007
9.1956 23.152
9.2108 22.995
9.2259 22.709
9.2411 23.102
9.2563 22.720
9.2715 22.675
9.2866 23.323
9.3018 23.039
9.3170 22.927
9.3322 23.128
9.3473 23.069
9.3625 22.853
9.3777 23.183
9.3929 23.324
9.4080 23.245
9.4232 23.146
9.4384 23.231
9.4536 23.307
9.4687 23.447
9.4839 23.474
9.4991 23.495
9.5143 23.532
9.5294 23.396
9.5446 23.221
9.5598 23.264
9.5750 22.911
9.5901 22.898
9.6053 23.408
9.6205 23.607
9.6357 23.367
9.6508 23.307
9.6660 23.456
9.6812 23.720
9.6964 23.645
9.7115 23.799
9.7267 24.149
9.7419 24.377
9.7571 24.384
9.7722 24.178
9.7874 24.078
9.8026 24.144
9.8178 23.736
9.8329 23.663
9.8481 23.953
9.8633 23.452
9.8785 23.379
9.8936 23.613
9.9088 23.585
9.9240 23.280
9.9392 23.144
9.9543 23.387
9.9695 23.391
9.9847 23.192
9.9999 23.772
10.0150 23.834
10.0302 23.453
10.0454 23.473
10.0606 23.425
10.0757 23.493
10.0909 23.860
10.1061 23.952
10.1213 23.755
10.1364 23.841
10.1516 23.692
10.1668 23.829
10.1820 23.795
10.1971 24.178
10.2123 24.105
10.2275 24.005
10.2427 23.975
10.2578 23.815
10.2730 23.509
10.2882 23.545
10.3034 23.544
10.3185 23.328
10.3337 23.207
10.3489 23.056
10.3641 23.092
10.3792 22.610
10.3944 22.840
10.4096 22.983
10.4248 23.289
10.4399 23.082
10.4551 22.780
10.4703 22.652
10.4855 22.910
10.5006 22.699
10.5158 22.522
10.5310 22.663
10.5462 22.598
10.5613 22.591
10.5765 22.551
10.5917 22.457
10.6069 22.347
10.6220 22.779
10.6372 23.040
10.6524 22.972
10.6676 22.618
10.6827 22.418
10.6979 22.459
10.7131 22.854
10.7283 22.800
10.7434 22.791
10.7586 22.609
10.7738 22.471
10.7890 22.448
10.8041 22.002
10.8193 22.162
10.8345 22.474
10.8497 22.580
10.8648 22.150
10.8800 22.083
10.8952 21.946
10.9104 22.168
10.9255 22.257
10.9407 22.118
10.9559 22.137
10.9711 22.053
10.9862 22.047
11.0014 22.226
11.0166 22.305
11.0318 22.143
11.0469 21.967
11.0621 21.922
11.0773 22.443
11.0925 22.339
11.1076 21.960
11.1228 21.861
11.1380 22.039
11.1532 22.225
11.1683 22.124
11.1835 22.049
11.1987 21.823
11.2139 21.873
11.2290 22.132
11.2442 21.808
11.2594 21.886
11.2746 22.186
11.2897 22.081
11.3049 22.234
11.3201 21.787
11.3353 21.519
11.3504 21.712
11.3656 22.104
11.3808 21.663
11.3960 21.696
11.4111 21.675
11.4263 21.242
11.4415 21.139
11.4567 21.433
11.4718 21.454
11.4870 21.369
11.5022 21.071
11.5174 20.633
11.5325 21.068
11.5477 20.971
11.5629 20.870
11.5781 20.804
11.5932 20.585
11.6084 20.935
11.6236 21.013
11.6388 20.852
11.6539 20.549
11.6691 20.579
11.6843 20.435
11.6995 21.066
11.7146 20.839
11.7298 20.875
11.7450 21.084
11.7602 20.947
11.7753 20.677
11.7905 20.483
11.8057 20.301
11.8209 20.006
11.8360 19.870
11.8512 19.934
11.8664 19.813
11.8816 19.663
11.8967 19.887
11.9119 20.209
11.9271 20.036
11.9423 19.558
11.9574 19.456
11.9726 19.341
11.9878 19.474
12.0030 19.269
12.0181 19.343
12.0333 19.482
12.0485 19.198
12.0637 19.198
12.0788 18.902
12.0940 18.837
12.1092 19.021
12.1244 18.860
12.1395 18.720
12.1547 18.453
12.1699 18.296
12.1851 18.646
12.2002 18.631
12.2154 18.076
12.2306 17.975
12.2458 17.965
12.2609 17.530
12.2761 17.765
12.2913 17.845
12.3065 17.816
12.3216 17.742
12.3368 17.831
12.3520 17.801
12.3672 17.441
12.3823 17.623
12.3975 17.306
12.4127 17.248
12.4279 17.516
12.4430 17.609
12.4582 17.336
12.4734 17.203
12.4886 17.064
12.5037 16.935
12.5189 16.897
12.5341 16.815
12.5493 16.387
12.5644 16.476
12.5796 16.523
12.5948 16.348
12.6100 16.004
12.6251 15.999
12.6403 16.112
12.6555 16.023
12.6707 15.973
12.6858 15.531
12.7010 15.459
12.7162 15.755
12.7314 15.390
12.7465 15.362
12.7617 15.459
12.7769 15.285
12.7921 15.267
12.8072 15.132
12.8224 15.258
12.8376 15.019
12.8528 14.809
12.8679 15.101
12.8831 14.892
12.8983 14.523
12.9135 14.751
12.9286 14.742
12.9438 14.399
12.9590 14.360
12.9742 14.500
12.9893 14.374
13.0045 14.269
13.0197 14.351
13.0349 14.469
13.0500 14.427
13.0652 14.249
13.0804 14.207
13.0956 13.956
13.1107 13.849
13.1259 14.110
13.1411 14.063
13.1563 13.659
13.1714 13.417
13.1866 13.614
13.2018 13.921
13.2170 14.079
13.2321 13.574
13.2473 13.106
13.2625 13.407
13.2777 13.462
13.2928 13.215
13.3080 13.062
13.3232 13.138
13.3384 13.116
13.3535 13.145
13.3687 13.325
13.3839 13.040
13.3991 12.710
13.4142 12.714
13.4294 12.985
13.4446 13.064
13.4598 12.870
13.4749 12.754
13.4901 12.709
13.5053 12.728
13.5205 12.495
13.5356 12.410
13.5508 12.469
13.5660 12.657
13.5812 12.592
13.5963 12.591
13.6115 12.454
13.6267 12.235
13.6419 12.123
13.6570 12.149
13.6722 12.042
13.6874 11.999
13.7026 12.226
13.7177 11.927
13.7329 11.839
13.7481 11.832
13.7633 12.004
13.7784 11.984
13.7936 11.814
13.8088 12.129
13.8239 12.506
13.8391 12.599
13.8543 12.368
13.8695 12.082
13.8846 12.165
13.8998 12.166
13.9150 12.098
13.9302 12.133
13.9453 12.314
13.9605 11.673
13.9757 11.544
13.9909 11.556
14.0060 11.499
14.0212 11.754
14.0364 11.744
14.0516 11.680
14.0667 11.793
14.0819 11.629
14.0971 11.438
14.1123 11.537
14.1274 11.687
14.1426 11.592
14.1578 11.504
14.1730 11.603
14.1881 11.879
14.2033 11.903
14.2185 11.847
14.2337 12.136
14.2488 11.915
14.2640 12.150
14.2792 11.891
14.2944 12.038
14.3095 12.439
14.3247 12.512
14.3399 12.627
14.3551 12.791
14.3702 13.099
14.3854 12.896
14.4006 12.930
14.4158 13.177
14.4309 13.126
14.4461 12.690
14.4613 12.454
14.4765 12.511
14.4916 12.085
14.5068 12.179
14.5220 12.007
14.5372 11.761
14.5523 11.105
14.5675 11.360
14.5827 11.347
14.5979 11.132
14.6130 11.148
14.6282 11.202
14.6434 11.304
14.6586 11.051
14.6737 10.973
14.6889 10.998
14.7041 11.037
14.7193 11.163
14.7344 10.735
14.7496 11.105
14.7648 11.005
14.7800 10.749
14.7951 10.701
14.8103 10.649
14.8255 10.622
14.8407 10.785
14.8558 10.684
14.8710 10.828
14.8862 10.599
14.9014 10.445
14.9165 10.977
14.9317 10.735
14.9469 10.484
14.9621 10.560
14.9772 10.430
14.9924 10.679
15.0076 10.415
15.0228 10.226
15.0379 10.498
15.0531 10.465
15.0683 10.482
15.0835 10.295
15.0986 10.362
15.1138 10.602
15.1290 10.482
15.1442 10.359
15.1593 10.565
15.1745 10.427
15.1897 10.338
15.2049 10.348
15.2200 10.357
15.2352 10.497
15.2504 10.044
15.2656 10.171
15.2807 10.481
15.2959 10.091
15.3111 10.327
15.3263 10.586
15.3414 10.335
15.3566 10.074
15.3718 10.333
15.3870 10.516
15.4021 10.338
15.4173 10.307
15.4325 10.405
15.4477 10.498
15.4628 10.644
15.4780 10.388
15.4932 10.545
15.5084 10.393
15.5235 10.254
15.5387 10.254
15.5539 10.090
15.5691 10.016
15.5842 10.107
15.5994 10.064
15.6146 10.120
15.6298 10.349
15.6449 10.115
15.6601 10.100
15.6753 9.944
15.6905 9.996
15.7056 10.015
15.7208 10.178
15.7360 9.988
15.7512 10.007
15.7663 9.914
15.7815 9.849
15.7967 9.966
15.8119 9.942
15.8270 10.145
15.8422 9.954
15.8574 9.579
15.8726 9.820
15.8877 9.917
15.9029 9.786
15.9181 9.691
15.9333 9.781
15.9484 9.786
15.9636 9.900
15.9788 9.653
15.9940 9.440
16.0091 9.597
16.0243 9.776
16.0395 9.672
16.0547 9.634
16.0698 9.765
16.0850 9.599
16.1002 9.997
16.1154 9.783
16.1305 9.633
16.1457 9.587
16.1609 10.019
16.1761 9.884
16.1912 9.747
16.2064 9.608
16.2216 9.831
16.2368 10.069
16.2519 9.968
16.2671 9.891
16.2823 10.051
16.2975 9.779
16.3126 9.720
16.3278 9.736
16.3430 9.709
16.3582 9.998
16.3733 10.126
16.3885 10.229
16.4037 10.184
16.4189 10.062
16.4340 10.159
16.4492 9.916
16.4644 9.979
16.4796 10.067
16.4947 9.960
16.5099 9.928
16.5251 9.642
16.5403 9.629
16.5554 9.857
16.5706 9.836
16.5858 9.785
16.6010 9.804
16.6161 9.777
16.6313 9.832
16.6465 9.909
16.6617 9.879
16.6768 9.889
16.6920 10.079
16.7072 10.143
16.7224 10.095
16.7375 9.910
16.7527 10.056
16.7679 10.063
16.7831 9.930
16.7982 10.010
16.8134 9.890
16.8286 9.884
16.8438 9.967
16.8589 9.689
16.8741 9.643
16.8893 9.776
16.9045 9.759
16.9196 9.599
16.9348 9.557
16.9500 9.721
16.9652 9.701
16.9803 9.725
16.9955 10.012
17.0107 10.016
17.0259 10.098
17.0410 10.165
17.0562 10.056
17.0714 10.245
17.0866 10.420
17.1017 10.471
17.1169 10.673
17.1321 11.064
17.1473 11.202
17.1624 11.446
17.1776 12.184
17.1928 12.935
17.2080 13.954
17.2231 15.103
17.2383 16.344
17.2535 17.448
17.2687 18.229
17.2838 18.570
17.2990 18.049
17.3142 17.125
17.3294 16.576
17.3445 16.239
17.3597 15.817
17.3749 15.873
17.3901 15.532
17.4052 14.347
17.4204 13.363
17.4356 12.626
17.4508 12.038
17.4659 11.676
17.4811 11.512
17.4963 11.659
17.5115 11.602
17.5266 11.394
17.5418 11.413
17.5570 11.436
17.5722 11.530
17.5873 11.632
17.6025 11.568
17.6177 11.436
17.6329 11.348
17.6480 11.140
17.6632 11.038
17.6784 11.010
17.6936 10.966
17.7087 10.925
17.7239 10.854
17.7391 10.681
17.7543 10.459
17.7694 10.428
17.7846 10.398
17.7998 10.370
17.8150 10.504
17.8301 10.352
17.8453 10.413
17.8605 10.352
17.8757 10.362
17.8908 10.391
17.9060 10.150
17.9212 10.283
17.9364 10.316
17.9515 10.206
17.9667 10.148
17.9819 10.301
17.9971 10.540
18.0122 10.394
18.0274 10.221
18.0426 10.377
18.0578 10.475
18.0729 10.243
18.0881 9.953
18.1033 9.978
18.1185 10.183
18.1336 10.289
18.1488 10.052
18.1640 9.909
18.1792 10.052
18.1943 10.100
18.2095 9.976
18.2247 9.762
18.2399 9.902
18.2550 9.872
18.2702 9.671
18.2854 9.674
18.3006 9.997
18.3157 10.083
18.3309 10.008
18.3461 9.876
18.3613 9.807
18.3764 9.833
18.3916 9.882
18.4068 9.806
18.4220 9.813
18.4371 9.750
18.4523 9.809
18.4675 9.925
18.4827 9.780
18.4978 9.784
18.5130 9.686
18.5282 9.677
18.5434 10.001
18.5585 9.821
18.5737 9.770
18.5889 9.942
18.6041 9.946
18.6192 9.860
18.6344 9.688
18.6496 9.830
18.6648 9.829
18.6799 9.753
18.6951 9.743
18.7103 9.710
18.7255 9.644
18.7406 9.519
18.7558 9.686
18.7710 9.781
18.7862 9.802
18.8013 9.750
18.8165 9.697
18.8317 9.890
18.8469 9.993
18.8620 9.931
18.8772 9.815
18.8924 9.703
18.9076 9.737
18.9227 9.923
18.9379 10.122
18.9531 10.058
18.9683 9.873
18.9834 9.740
18.9986 9.916
19.0138 10.031
19.0290 10.089
19.0441 10.319
19.0593 10.581
19.0745 10.363
19.0897 10.330
19.1048 10.426
19.1200 10.323
19.1352 10.389
19.1504 10.679
19.1655 10.681
19.1807 10.511
19.1959 10.424
19.2111 10.514
19.2262 10.626
19.2414 10.723
19.2566 10.962
19.2718 11.077
19.2869 10.966
19.3021 11.043
19.3173 11.033
19.3325 10.921
19.3476 11.157
19.3628 11.231
19.3780 11.305
19.3932 11.430
19.4083 11.281
19.4235 11.218
19.4387 11.260
19.4539 11.180
19.4690 11.245
19.4842 11.327
19.4994 11.170
19.5146 11.196
19.5297 11.347
19.5449 11.425
19.5601 11.475
19.5753 11.535
19.5904 11.815
19.6056 11.772
19.6208 11.661
19.6360 11.735
19.6511 11.755
19.6663 11.556
19.6815 11.630
19.6967 11.780
19.7118 11.784
19.7270 11.889
19.7422 11.765
19.7574 11.769
19.7725 11.622
19.7877 11.537
19.8029 11.900
19.8180 12.111
19.8332 12.209
19.8484 12.240
19.8636 12.398
19.8787 12.480
19.8939 12.605
19.9091 13.013
19.9243 13.431
19.9394 13.613
19.9546 13.953
19.9698 14.383
19.9850 14.634
20.0001 14.494
20.0153 14.323
20.0305 14.228
20.0457 13.713
20.0608 13.712
20.0760 13.866
20.0912 13.776
20.1064 13.529
20.1215 13.469
20.1367 13.389
20.1519 13.077
20.1671 12.969
20.1822 12.902
20.1974 12.903
20.2126 12.987
20.2278 12.994
20.2429 12.593
20.2581 12.538
20.2733 12.365
20.2885 11.999
20.3036 11.934
20.3188 12.145
20.3340 12.100
20.3492 11.992
20.3643 11.602
20.3795 11.505
20.3947 11.392
20.4099 10.905
20.4250 10.917
20.4402 10.903
20.4554 11.007
20.4706 11.045
20.4857 10.934
20.5009 10.866
20.5161 10.879
20.5313 10.867
20.5464 10.798
20.5616 10.816
20.5768 10.935
20.5920 10.887
20.6071 10.725
20.6223 10.731
20.6375 10.720
20.6527 10.840
20.6678 10.551
20.6830 10.630
20.6982 10.620
20.7134 10.668
20.7285 10.672
20.7437 10.586
20.7589 10.498
20.7741 10.601
20.7892 10.430
20.8044 10.554
20.8196 10.374
20.8348 10.144
20.8499 10.544
20.8651 10.483
20.8803 10.381
20.8955 10.387
20.9106 10.369
20.9258 10.126
20.9410 10.161
20.9562 10.054
20.9713 10.267
20.9865 10.030
21.0017 10.035
21.0169 10.077
21.0320 10.207
21.0472 9.837
21.0624 9.822
21.0776 9.713
21.0927 9.759
21.1079 9.883
21.1231 9.887
21.1383 9.756
21.1534 9.515
21.1686 9.576
21.1838 9.630
21.1990 9.843
21.2141 9.808
21.2293 9.769
21.2445 9.742
21.2597 9.648
21.2748 9.621
21.2900 9.498
21.3052 9.515
21.3204 9.279
21.3355 9.607
21.3507 9.338
21.3659 9.733
21.3811 9.642
21.3962 9.647
21.4114 9.619
21.4266 9.716
21.4418 9.579
21.4569 9.779
21.4721 9.447
21.4873 9.462
21.5025 9.201
21.5176 9.380
21.5328 9.477
21.5480 9.216
21.5632 9.248
21.5783 9.156
21.5935 9.043
21.6087 9.191
21.6239 9.083
21.6390 9.410
21.6542 9.256
21.6694 9.195
21.6846 9.072
21.6997 9.092
21.7149 8.927
21.7301 8.878
21.7453 9.005
21.7604 9.134
21.7756 9.157
21.7908 8.955
21.8060 9.053
21.8211 9.263
21.8363 9.100
21.8515 9.043
21.8667 8.972
21.8818 8.700
21.8970 8.758
21.9122 8.985
21.9274 9.069
21.9425 8.889
21.9577 8.839
21.9729 8.873
21.9881 8.801
22.0032 8.880
22.0184 8.767
22.0336 8.541
22.0488 8.641
22.0639 8.958
22.0791 8.938
22.0943 8.896
22.1095 8.962
22.1246 8.714
22.1398 8.649
22.1550 8.803
22.1702 8.762
22.1853 8.859
22.2005 8.771
22.2157 8.488
22.2309 8.542
22.2460 8.620
22.2612 8.475
22.2764 8.693
22.2916 8.661
22.3067 8.894
22.3219 8.746
22.3371 8.648
22.3523 8.538
22.3674 8.463
22.3826 8.332
22.3978 8.335
22.4130 8.596
22.4281 8.678
22.4433 8.713
22.4585 8.550
22.4737 8.408
22.4888 8.401
22.5040 8.421
22.5192 8.451
22.5344 8.531
22.5495 8.225
22.5647 8.905
22.5799 8.613
22.5951 8.674
22.6102 8.434
22.6254 8.762
22.6406 8.492
22.6558 8.334
22.6709 8.287
22.6861 8.471
22.7013 8.240
22.7165 7.940
22.7316 6.543
