'Id: "" Comment: "" Operator: "Lab Manager" Anode: "Mo" Scantype: "Still (Eiger2R_500K (1D mode))" TimePerStep: "300" X: "11.8" Y: "9.4" Z: "11.284" 
7.2532 18.617
7.2684 18.623
7.2836 19.223
7.2987 18.986
7.3139 19.304
7.3291 18.699
7.3443 19.406
7.3594 19.197
7.3746 19.398
7.3898 19.242
7.4050 19.761
7.4201 19.847
7.4353 19.625
7.4505 20.091
7.4657 19.537
7.4808 19.276
7.4960 19.730
7.5112 19.966
7.5264 20.127
7.5415 19.621
7.5567 19.764
7.5719 19.737
7.5871 19.778
7.6022 19.936
7.6174 19.994
7.6326 20.035
7.6478 20.164
7.6629 20.036
7.6781 20.162
7.6933 20.288
7.7085 20.359
7.7236 20.349
7.7388 20.505
7.7540 20.629
7.7692 20.640
7.7843 20.512
7.7995 20.393
7.8147 20.492
7.8299 20.401
7.8450 20.593
7.8602 21.070
7.8754 20.813
7.8905 20.799
7.9057 21.093
7.9209 20.959
7.9361 20.805
7.9512 21.095
7.9664 21.311
7.9816 21.206
7.9968 20.885
8.0119 21.214
8.0271 21.215
8.0423 21.219
8.0575 21.451
8.0726 21.429
8.0878 21.206
8.1030 21.277
8.1182 21.240
8.1333 21.641
8.1485 21.720
8.1637 21.337
8.1789 21.504
8.1940 21.766
8.2092 21.545
8.2244 21.764
8.2396 21.255
8.2547 21.998
8.2699 21.916
8.2851 22.182
8.3003 21.620
8.3154 21.558
8.3306 21.742
8.3458 21.692
8.3610 21.808
8.3761 21.897
8.3913 21.838
8.4065 21.762
8.4217 21.738
8.4368 22.710
8.4520 22.234
8.4672 21.837
8.4824 21.768
8.4975 21.595
8.5127 22.207
8.5279 22.090
8.5431 22.154
8.5582 22.288
8.5734 22.378
8.5886 22.351
8.6038 22.262
8.6189 22.489
8.6341 22.530
8.6493 22.122
8.6645 22.196
8.6796 22.373
8.6948 22.910
8.7100 22.279
8.7252 22.392
8.7403 22.741
8.7555 22.714
8.7707 22.960
8.7859 22.692
8.8010 22.610
8.8162 22.760
8.8314 22.628
8.8466 22.998
8.8617 22.649
8.8769 22.258
8.8921 22.632
8.9073 22.815
8.9224 22.307
8.9376 22.741
8.9528 22.882
8.9680 22.934
8.9831 22.454
8.9983 22.890
9.0135 22.984
9.0287 22.351
9.0438 22.533
9.0590 23.009
9.0742 22.698
9.0894 23.034
9.1045 22.991
9.1197 23.191
9.1349 23.207
9.1501 22.704
9.1652 22.784
9.1804 23.055
9.1956 23.307
9.2108 23.176
9.2259 23.139
9.2411 23.117
9.2563 22.914
9.2715 23.274
9.2866 23.218
9.3018 23.055
9.3170 23.399
9.3322 23.297
9.3473 23.069
9.3625 23.052
9.3777 22.861
9.3929 23.172
9.4080 23.137
9.4232 23.014
9.4384 23.442
9.4536 23.355
9.4687 23.228
9.4839 23.499
9.4991 23.311
9.5143 23.471
9.5294 23.273
9.5446 23.458
9.5598 23.362
9.5750 23.094
9.5901 23.450
9.6053 23.631
9.6205 23.631
9.6357 23.643
9.6508 23.746
9.6660 24.043
9.6812 24.047
9.6964 23.968
9.7115 24.021
9.7267 24.092
9.7419 24.065
9.7571 24.165
9.7722 23.937
9.7874 23.492
9.8026 23.683
9.8178 23.713
9.8329 23.519
9.8481 23.888
9.8633 23.814
9.8785 23.566
9.8936 23.695
9.9088 23.534
9.9240 23.283
9.9392 23.306
9.9543 23.372
9.9695 23.405
9.9847 23.491
9.9999 23.485
10.0150 23.317
10.0302 23.308
10.0454 23.514
10.0606 23.175
10.0757 22.790
10.0909 22.879
10.1061 23.054
10.1213 23.294
10.1364 23.649
10.1516 23.631
10.1668 23.719
10.1820 23.675
10.1971 23.299
10.2123 23.158
10.2275 23.223
10.2427 23.364
10.2578 23.750
10.2730 23.626
10.2882 23.485
10.3034 23.604
10.3185 23.161
10.3337 23.201
10.3489 23.098
10.3641 23.043
10.3792 22.784
10.3944 23.117
10.4096 23.197
10.4248 23.143
10.4399 22.867
10.4551 22.646
10.4703 22.562
10.4855 22.415
10.5006 22.545
10.5158 22.983
10.5310 23.037
10.5462 22.966
10.5613 22.684
10.5765 22.612
10.5917 22.718
10.6069 22.678
10.6220 22.286
10.6372 22.477
10.6524 22.984
10.6676 22.870
10.6827 22.778
10.6979 22.847
10.7131 22.874
10.7283 22.571
10.7434 22.246
10.7586 22.606
10.7738 22.418
10.7890 22.354
10.8041 22.238
10.8193 22.476
10.8345 22.514
10.8497 22.490
10.8648 22.247
10.8800 22.044
10.8952 22.064
10.9104 21.979
10.9255 22.200
10.9407 22.412
10.9559 22.065
10.9711 22.160
10.9862 22.337
11.0014 22.599
11.0166 22.497
11.0318 22.456
11.0469 21.972
11.0621 21.872
11.0773 22.025
11.0925 22.113
11.1076 22.276
11.1228 22.110
11.1380 22.214
11.1532 22.052
11.1683 22.508
11.1835 22.366
11.1987 22.070
11.2139 22.116
11.2290 22.008
11.2442 21.716
11.2594 22.048
11.2746 22.082
11.2897 21.481
11.3049 21.808
11.3201 21.957
11.3353 22.003
11.3504 21.924
11.3656 21.368
11.3808 21.411
11.3960 21.251
11.4111 21.219
11.4263 21.811
11.4415 21.567
11.4567 21.297
11.4718 21.242
11.4870 21.493
11.5022 21.185
11.5174 21.279
11.5325 21.712
11.5477 21.222
11.5629 20.959
11.5781 21.020
11.5932 20.869
11.6084 20.759
11.6236 21.101
11.6388 21.121
11.6539 20.578
11.6691 20.437
11.6843 20.752
11.6995 20.822
11.7146 20.660
11.7298 20.717
11.7450 20.786
11.7602 20.740
11.7753 20.473
11.7905 20.197
11.8057 20.327
11.8209 20.376
11.8360 20.391
11.8512 20.372
11.8664 20.026
11.8816 19.839
11.8967 19.617
11.9119 19.548
11.9271 19.660
11.9423 19.873
11.9574 19.337
11.9726 19.398
11.9878 19.112
12.0030 19.119
12.0181 19.317
12.0333 19.210
12.0485 18.969
12.0637 19.250
12.0788 19.395
12.0940 19.032
12.1092 18.646
12.1244 18.814
12.1395 18.612
12.1547 18.601
12.1699 18.388
12.1851 18.302
12.2002 18.250
12.2154 18.322
12.2306 18.353
12.2458 18.270
12.2609 18.357
12.2761 17.596
12.2913 17.647
12.3065 17.987
12.3216 18.097
12.3368 18.011
12.3520 17.875
12.3672 17.512
12.3823 17.516
12.3975 17.417
12.4127 17.239
12.4279 17.093
12.4430 17.040
12.4582 17.086
12.4734 17.386
12.4886 17.427
12.5037 17.185
12.5189 17.072
12.5341 16.822
12.5493 16.927
12.5644 16.644
12.5796 16.333
12.5948 16.530
12.6100 16.489
12.6251 16.283
12.6403 15.976
12.6555 15.986
12.6707 15.972
12.6858 15.922
12.7010 15.611
12.7162 15.433
12.7314 15.802
12.7465 15.541
12.7617 15.420
12.7769 15.650
12.7921 15.429
12.8072 15.176
12.8224 15.171
12.8376 14.985
12.8528 15.118
12.8679 15.060
12.8831 14.941
12.8983 14.836
12.9135 14.518
12.9286 14.711
12.9438 14.810
12.9590 14.641
12.9742 14.734
12.9893 14.599
13.0045 14.434
13.0197 14.340
13.0349 14.039
13.0500 13.908
13.0652 14.171
13.0804 14.241
13.0956 13.993
13.1107 14.093
13.1259 13.945
13.1411 13.924
13.1563 14.098
13.1714 13.683
13.1866 13.640
13.2018 13.731
13.2170 13.455
13.2321 13.303
13.2473 13.389
13.2625 13.529
13.2777 13.488
13.2928 13.426
13.3080 13.499
13.3232 13.224
13.3384 13.043
13.3535 13.296
13.3687 13.252
13.3839 13.197
13.3991 13.182
13.4142 13.085
13.4294 12.955
13.4446 12.844
13.4598 12.974
13.4749 13.024
13.4901 12.751
13.5053 12.717
13.5205 12.555
13.5356 12.491
13.5508 12.511
13.5660 12.675
13.5812 12.511
13.5963 12.402
13.6115 12.227
13.6267 12.248
13.6419 12.305
13.6570 12.474
13.6722 12.401
13.6874 12.277
13.7026 12.200
13.7177 12.311
13.7329 12.120
13.7481 11.984
13.7633 12.031
13.7784 12.184
13.7936 12.151
13.8088 11.968
13.8239 12.133
13.8391 12.409
13.8543 12.446
13.8695 12.366
13.8846 12.289
13.8998 12.378
13.9150 12.046
13.9302 11.934
13.9453 11.860
13.9605 11.791
13.9757 11.763
13.9909 11.672
14.0060 11.383
14.0212 11.588
14.0364 12.078
14.0516 11.934
14.0667 11.694
14.0819 11.549
14.0971 11.551
14.1123 11.447
14.1274 11.442
14.1426 11.418
14.1578 11.496
14.1730 11.611
14.1881 11.752
14.2033 11.409
14.2185 11.698
14.2337 11.629
14.2488 11.725
14.2640 11.917
14.2792 11.981
14.2944 11.871
14.3095 11.937
14.3247 12.086
14.3399 12.165
14.3551 12.048
14.3702 12.682
14.3854 12.544
14.4006 12.384
14.4158 12.392
14.4309 12.243
14.4461 12.126
14.4613 12.246
14.4765 11.753
14.4916 11.912
14.5068 11.368
14.5220 11.362
14.5372 11.275
14.5523 11.478
14.5675 11.397
14.5827 11.359
14.5979 11.363
14.6130 11.470
14.6282 11.060
14.6434 11.071
14.6586 11.165
14.6737 10.843
14.6889 10.587
14.7041 10.601
14.7193 10.867
14.7344 11.088
14.7496 11.195
14.7648 11.070
14.7800 10.700
14.7951 10.860
14.8103 10.753
14.8255 10.971
14.8407 10.906
14.8558 10.768
14.8710 10.548
14.8862 10.607
14.9014 10.891
14.9165 11.101
14.9317 10.767
14.9469 10.863
14.9621 10.709
14.9772 10.382
14.9924 10.361
15.0076 10.480
15.0228 10.620
15.0379 10.762
15.0531 10.905
15.0683 10.632
15.0835 10.465
15.0986 10.702
15.1138 10.837
15.1290 10.574
15.1442 10.587
15.1593 10.279
15.1745 10.249
15.1897 10.577
15.2049 10.281
15.2200 10.089
15.2352 10.329
15.2504 10.447
15.2656 10.149
15.2807 10.360
15.2959 10.019
15.3111 10.384
15.3263 10.560
15.3414 10.193
15.3566 10.332
15.3718 10.598
15.3870 10.362
15.4021 10.724
15.4173 10.815
15.4325 10.445
15.4477 10.839
15.4628 10.649
15.4780 10.435
15.4932 10.375
15.5084 10.287
15.5235 10.304
15.5387 10.328
15.5539 10.219
15.5691 10.270
15.5842 10.241
15.5994 10.006
15.6146 9.922
15.6298 10.151
15.6449 9.986
15.6601 10.118
15.6753 10.111
15.6905 10.032
15.7056 9.962
15.7208 9.891
15.7360 9.947
15.7512 9.926
15.7663 9.378
15.7815 9.506
15.7967 9.686
15.8119 9.880
15.8270 9.908
15.8422 10.080
15.8574 10.140
15.8726 9.950
15.8877 9.925
15.9029 9.690
15.9181 9.985
15.9333 10.208
15.9484 9.926
15.9636 10.003
15.9788 10.125
15.9940 9.730
16.0091 9.801
16.0243 10.006
16.0395 9.790
16.0547 9.803
16.0698 9.754
16.0850 9.660
16.1002 9.643
16.1154 9.584
16.1305 9.597
16.1457 9.608
16.1609 9.746
16.1761 9.515
16.1912 9.767
16.2064 9.781
16.2216 9.634
16.2368 9.844
16.2519 10.031
16.2671 9.975
16.2823 10.102
16.2975 9.943
16.3126 9.735
16.3278 9.900
16.3430 9.949
16.3582 10.000
16.3733 10.014
16.3885 10.091
16.4037 10.196
16.4189 10.213
16.4340 10.212
16.4492 10.136
16.4644 10.143
16.4796 9.993
16.4947 9.928
16.5099 9.917
16.5251 9.812
16.5403 9.855
16.5554 9.912
16.5706 10.074
16.5858 10.143
16.6010 9.998
16.6161 9.762
16.6313 9.704
16.6465 10.000
16.6617 9.886
16.6768 10.018
16.6920 10.029
16.7072 9.959
16.7224 9.870
16.7375 10.068
16.7527 10.054
16.7679 10.099
16.7831 10.283
16.7982 9.943
16.8134 9.965
16.8286 10.213
16.8438 9.958
16.8589 9.637
16.8741 9.614
16.8893 9.814
16.9045 9.831
16.9196 9.878
16.9348 9.907
16.9500 9.657
16.9652 9.590
16.9803 9.733
16.9955 9.915
17.0107 10.095
17.0259 10.186
17.0410 10.075
17.0562 10.245
17.0714 10.247
17.0866 10.361
17.1017 10.642
17.1169 10.714
17.1321 11.002
17.1473 11.563
17.1624 12.111
17.1776 12.495
17.1928 13.232
17.2080 13.975
17.2231 15.206
17.2383 16.605
17.2535 17.819
17.2687 18.651
17.2838 18.625
17.2990 17.930
17.3142 16.875
17.3294 16.332
17.3445 16.010
17.3597 16.130
17.3749 16.290
17.3901 15.485
17.4052 14.416
17.4204 13.437
17.4356 12.576
17.4508 11.943
17.4659 11.607
17.4811 11.611
17.4963 11.577
17.5115 11.372
17.5266 11.191
17.5418 10.891
17.5570 10.934
17.5722 11.148
17.5873 11.219
17.6025 11.346
17.6177 11.108
17.6329 10.940
17.6480 10.894
17.6632 10.720
17.6784 10.466
17.6936 10.442
17.7087 10.504
17.7239 10.585
17.7391 10.606
17.7543 10.319
17.7694 10.024
17.7846 10.032
17.7998 10.083
17.8150 9.930
17.8301 10.051
17.8453 10.100
17.8605 9.906
17.8757 9.888
17.8908 10.200
17.9060 10.160
17.9212 10.175
17.9364 10.239
17.9515 10.260
17.9667 10.338
17.9819 10.390
17.9971 10.245
18.0122 10.356
18.0274 10.389
18.0426 10.361
18.0578 10.230
18.0729 9.961
18.0881 9.945
18.1033 10.032
18.1185 9.897
18.1336 10.070
18.1488 10.124
18.1640 10.000
18.1792 10.114
18.1943 10.025
18.2095 9.876
18.2247 9.789
18.2399 9.928
18.2550 9.982
18.2702 9.873
18.2854 9.829
18.3006 9.957
18.3157 10.108
18.3309 9.894
18.3461 9.791
18.3613 9.779
18.3764 9.698
18.3916 9.631
18.4068 9.728
18.4220 9.813
18.4371 9.702
18.4523 9.900
18.4675 10.050
18.4827 9.830
18.4978 9.806
18.5130 9.961
18.5282 9.910
18.5434 10.021
18.5585 9.969
18.5737 9.903
18.5889 9.869
18.6041 9.844
18.6192 9.761
18.6344 9.735
18.6496 9.647
18.6648 9.660
18.6799 9.798
18.6951 9.560
18.7103 9.391
18.7255 9.794
18.7406 9.906
18.7558 9.644
18.7710 9.598
18.7862 9.809
18.8013 9.772
18.8165 9.976
18.8317 9.986
18.8469 9.952
18.8620 9.784
18.8772 9.837
18.8924 10.034
18.9076 10.124
18.9227 10.211
18.9379 10.192
18.9531 10.068
18.9683 9.983
18.9834 9.922
18.9986 10.065
19.0138 10.034
19.0290 9.889
19.0441 10.034
19.0593 10.214
19.0745 10.079
19.0897 10.217
19.1048 10.415
19.1200 10.417
19.1352 10.619
19.1504 10.565
19.1655 10.234
19.1807 10.412
19.1959 10.746
19.2111 10.769
19.2262 10.823
19.2414 10.798
19.2566 10.774
19.2718 10.870
19.2869 11.070
19.3021 11.044
19.3173 10.899
19.3325 11.058
19.3476 11.272
19.3628 11.217
19.3780 11.341
19.3932 11.461
19.4083 11.197
19.4235 11.089
19.4387 11.177
19.4539 11.188
19.4690 11.178
19.4842 11.339
19.4994 11.557
19.5146 11.469
19.5297 11.654
19.5449 11.839
19.5601 11.779
19.5753 11.603
19.5904 11.379
19.6056 11.606
19.6208 11.833
19.6360 11.755
19.6511 11.581
19.6663 11.539
19.6815 11.591
19.6967 11.711
19.7118 11.646
19.7270 11.738
19.7422 11.861
19.7574 11.826
19.7725 11.826
19.7877 11.962
19.8029 12.073
19.8180 12.033
19.8332 12.130
19.8484 12.386
19.8636 12.449
19.8787 12.451
19.8939 12.860
19.9091 13.236
19.9243 13.472
19.9394 13.804
19.9546 14.325
19.9698 14.513
19.9850 14.519
20.0001 14.243
20.0153 13.902
20.0305 13.819
20.0457 13.933
20.0608 13.881
20.0760 13.610
20.0912 13.677
20.1064 13.629
20.1215 13.543
20.1367 13.289
20.1519 13.438
20.1671 13.290
20.1822 12.871
20.1974 12.665
20.2126 12.735
20.2278 12.848
20.2429 12.758
20.2581 12.406
20.2733 11.958
20.2885 12.015
20.3036 11.962
20.3188 11.886
20.3340 11.675
20.3492 11.450
20.3643 11.342
20.3795 11.484
20.3947 11.319
20.4099 11.247
20.4250 11.061
20.4402 10.841
20.4554 10.697
20.4706 11.075
20.4857 10.767
20.5009 10.682
20.5161 10.682
20.5313 10.715
20.5464 10.585
20.5616 10.665
20.5768 10.502
20.5920 10.544
20.6071 10.659
20.6223 10.742
20.6375 10.797
20.6527 10.650
20.6678 10.342
20.6830 10.803
20.6982 10.695
20.7134 10.375
20.7285 10.405
20.7437 10.298
20.7589 10.433
20.7741 10.401
20.7892 10.350
20.8044 10.266
20.8196 10.390
20.8348 10.485
20.8499 9.967
20.8651 10.145
20.8803 10.139
20.8955 10.096
20.9106 10.051
20.9258 10.141
20.9410 10.115
20.9562 10.189
20.9713 10.149
20.9865 10.132
21.0017 10.205
21.0169 10.186
21.0320 9.942
21.0472 10.127
21.0624 10.174
21.0776 9.842
21.0927 10.207
21.1079 9.787
21.1231 9.878
21.1383 9.952
21.1534 10.098
21.1686 9.734
21.1838 9.647
21.1990 9.852
21.2141 9.697
21.2293 9.844
21.2445 9.743
21.2597 9.684
21.2748 9.834
21.2900 9.884
21.3052 9.534
21.3204 9.970
21.3355 9.393
21.3507 9.515
21.3659 9.440
21.3811 9.514
21.3962 9.364
21.4114 9.338
21.4266 9.612
21.4418 9.220
21.4569 9.334
21.4721 9.263
21.4873 9.259
21.5025 9.675
21.5176 9.429
21.5328 9.179
21.5480 9.246
21.5632 9.496
21.5783 9.252
21.5935 9.397
21.6087 9.245
21.6239 9.311
21.6390 9.213
21.6542 9.131
21.6694 8.822
21.6846 9.084
21.6997 9.198
21.7149 9.123
21.7301 8.976
21.7453 8.881
21.7604 9.022
21.7756 8.950
21.7908 8.986
21.8060 9.123
21.8211 9.216
21.8363 9.137
21.8515 9.001
21.8667 9.084
21.8818 9.046
21.8970 8.906
21.9122 8.812
21.9274 9.048
21.9425 9.055
21.9577 8.908
21.9729 8.909
21.9881 9.085
22.0032 8.886
22.0184 8.719
22.0336 8.693
22.0488 8.909
22.0639 8.743
22.0791 8.772
22.0943 8.943
22.1095 8.708
22.1246 8.832
22.1398 9.011
22.1550 8.881
22.1702 8.464
22.1853 8.552
22.2005 8.705
22.2157 8.642
22.2309 8.564
22.2460 8.735
22.2612 8.590
22.2764 8.536
22.2916 8.634
22.3067 8.941
22.3219 8.886
22.3371 8.373
22.3523 8.506
22.3674 8.738
22.3826 8.945
22.3978 8.798
22.4130 8.348
22.4281 8.411
22.4433 8.492
22.4585 8.348
22.4737 8.542
22.4888 8.678
22.5040 8.226
22.5192 8.490
22.5344 8.468
22.5495 8.705
22.5647 8.606
22.5799 8.814
22.5951 8.621
22.6102 8.324
22.6254 8.578
22.6406 8.417
22.6558 8.644
22.6709 8.246
22.6861 8.402
22.7013 8.423
22.7165 8.057
22.7316 6.650
