'Id: "" Comment: "" Operator: "Lab Manager" Anode: "Mo" Scantype: "Still (Eiger2R_500K (1D mode))" TimePerStep: "300" X: "11.8" Y: "9.4" Z: "11.284" 
7.2532 18.648
7.2684 18.598
7.2836 18.756
7.2987 19.065
7.3139 19.200
7.3291 19.361
7.3443 19.036
7.3594 19.470
7.3746 19.383
7.3898 19.361
7.4050 19.721
7.4201 19.050
7.4353 19.588
7.4505 19.668
7.4657 19.605
7.4808 19.418
7.4960 19.595
7.5112 20.063
7.5264 19.787
7.5415 19.664
7.5567 19.457
7.5719 19.667
7.5871 19.816
7.6022 19.743
7.6174 20.135
7.6326 20.144
7.6478 20.148
7.6629 20.339
7.6781 20.484
7.6933 20.304
7.7085 20.299
7.7236 20.454
7.7388 20.508
7.7540 20.642
7.7692 20.596
7.7843 20.570
7.7995 20.586
7.8147 20.426
7.8299 20.330
7.8450 20.812
7.8602 20.801
7.8754 20.526
7.8905 21.056
7.9057 21.296
7.9209 21.294
7.9361 20.993
7.9512 20.896
7.9664 21.173
7.9816 21.412
7.9968 21.149
8.0119 20.843
8.0271 20.799
8.0423 20.935
8.0575 21.246
8.0726 21.068
8.0878 21.121
8.1030 21.117
8.1182 21.366
8.1333 21.160
8.1485 21.292
8.1637 21.704
8.1789 21.708
8.1940 21.227
8.2092 21.748
8.2244 21.327
8.2396 21.221
8.2547 21.174
8.2699 21.541
8.2851 21.764
8.3003 21.725
8.3154 22.144
8.3306 22.031
8.3458 22.092
8.3610 21.982
8.3761 21.937
8.3913 21.762
8.4065 21.570
8.4217 22.094
8.4368 22.176
8.4520 22.151
8.4672 22.374
8.4824 22.069
8.4975 21.781
8.5127 21.920
8.5279 21.944
8.5431 22.036
8.5582 22.797
8.5734 22.681
8.5886 21.986
8.6038 22.221
8.6189 22.047
8.6341 22.811
8.6493 22.533
8.6645 23.001
8.6796 22.534
8.6948 22.651
8.7100 22.825
8.7252 22.511
8.7403 23.186
8.7555 22.958
8.7707 22.652
8.7859 22.944
8.8010 22.688
8.8162 22.582
8.8314 22.753
8.8466 22.365
8.8617 22.822
8.8769 22.478
8.8921 22.498
8.9073 22.398
8.9224 22.422
8.9376 22.451
8.9528 22.977
8.9680 22.520
8.9831 22.924
8.9983 22.497
9.0135 22.897
9.0287 22.879
9.0438 23.017
9.0590 22.532
9.0742 22.538
9.0894 23.131
9.1045 23.196
9.1197 23.295
9.1349 22.664
9.1501 22.774
9.1652 22.935
9.1804 22.874
9.1956 22.843
9.2108 22.902
9.2259 23.081
9.2411 22.776
9.2563 23.228
9.2715 23.208
9.2866 22.976
9.3018 23.151
9.3170 23.208
9.3322 23.121
9.3473 22.851
9.3625 23.114
9.3777 23.304
9.3929 23.201
9.4080 23.124
9.4232 23.256
9.4384 23.166
9.4536 23.154
9.4687 23.386
9.4839 23.175
9.4991 23.148
9.5143 23.576
9.5294 23.431
9.5446 23.218
9.5598 23.208
9.5750 23.056
9.5901 23.181
9.6053 23.511
9.6205 23.261
9.6357 23.613
9.6508 23.656
9.6660 23.468
9.6812 23.716
9.6964 23.908
9.7115 24.328
9.7267 24.591
9.7419 24.604
9.7571 24.626
9.7722 24.428
9.7874 24.081
9.8026 23.546
9.8178 23.462
9.8329 23.186
9.8481 23.151
9.8633 23.630
9.8785 23.471
9.8936 23.475
9.9088 23.783
9.9240 23.693
9.9392 23.330
9.9543 23.416
9.9695 23.621
9.9847 23.757
9.9999 23.811
10.0150 23.715
10.0302 23.570
10.0454 23.627
10.0606 23.481
10.0757 23.772
10.0909 23.947
10.1061 23.662
10.1213 23.673
10.1364 24.053
10.1516 23.916
10.1668 24.054
10.1820 23.970
10.1971 23.845
10.2123 23.938
10.2275 23.851
10.2427 24.188
10.2578 24.350
10.2730 24.180
10.2882 23.864
10.3034 23.720
10.3185 23.427
10.3337 23.557
10.3489 23.352
10.3641 22.860
10.3792 22.883
10.3944 22.749
10.4096 22.527
10.4248 22.744
10.4399 22.936
10.4551 22.711
10.4703 22.665
10.4855 22.640
10.5006 22.636
10.5158 22.803
10.5310 22.826
10.5462 22.682
10.5613 22.757
10.5765 23.108
10.5917 22.874
10.6069 22.715
10.6220 22.679
10.6372 23.207
10.6524 23.008
10.6676 22.654
10.6827 22.702
10.6979 22.866
10.7131 22.866
10.7283 22.559
10.7434 22.617
10.7586 22.593
10.7738 22.366
10.7890 22.583
10.8041 22.666
10.8193 22.281
10.8345 21.990
10.8497 22.409
10.8648 22.472
10.8800 22.398
10.8952 22.055
10.9104 22.007
10.9255 22.533
10.9407 22.503
10.9559 22.384
10.9711 22.364
10.9862 22.420
11.0014 22.207
11.0166 22.127
11.0318 22.355
11.0469 21.916
11.0621 21.828
11.0773 21.913
11.0925 21.868
11.1076 21.741
11.1228 21.984
11.1380 22.337
11.1532 22.093
11.1683 21.848
11.1835 21.933
11.1987 22.361
11.2139 22.172
11.2290 22.084
11.2442 21.925
11.2594 21.859
11.2746 22.024
11.2897 21.933
11.3049 21.376
11.3201 21.525
11.3353 21.615
11.3504 21.593
11.3656 21.526
11.3808 21.263
11.3960 20.995
11.4111 21.117
11.4263 21.107
11.4415 21.113
11.4567 21.316
11.4718 21.126
11.4870 21.163
11.5022 21.227
11.5174 20.986
11.5325 20.804
11.5477 20.736
11.5629 21.036
11.5781 21.005
11.5932 20.727
11.6084 20.652
11.6236 20.527
11.6388 20.734
11.6539 20.818
11.6691 20.623
11.6843 20.831
11.6995 20.694
11.7146 20.809
11.7298 20.576
11.7450 20.209
11.7602 20.303
11.7753 20.213
11.7905 20.195
11.8057 20.261
11.8209 20.096
11.8360 19.986
11.8512 19.401
11.8664 19.662
11.8816 19.850
11.8967 19.740
11.9119 19.314
11.9271 19.505
11.9423 19.700
11.9574 19.701
11.9726 19.480
11.9878 19.372
12.0030 18.962
12.0181 18.917
12.0333 19.014
12.0485 18.776
12.0637 18.436
12.0788 18.727
12.0940 18.588
12.1092 18.540
12.1244 18.688
12.1395 18.899
12.1547 18.827
12.1699 18.439
12.1851 18.335
12.2002 18.306
12.2154 18.259
12.2306 18.163
12.2458 17.734
12.2609 17.504
12.2761 17.726
12.2913 17.726
12.3065 17.563
12.3216 17.927
12.3368 17.576
12.3520 17.123
12.3672 17.302
12.3823 17.360
12.3975 17.210
12.4127 17.424
12.4279 17.470
12.4430 17.101
12.4582 16.911
12.4734 17.268
12.4886 17.587
12.5037 17.256
12.5189 16.631
12.5341 16.593
12.5493 16.659
12.5644 16.441
12.5796 16.250
12.5948 16.273
12.6100 16.284
12.6251 16.316
12.6403 16.002
12.6555 16.049
12.6707 15.998
12.6858 15.591
12.7010 15.699
12.7162 15.529
12.7314 15.427
12.7465 15.448
12.7617 15.403
12.7769 15.479
12.7921 15.441
12.8072 14.805
12.8224 14.530
12.8376 14.991
12.8528 15.203
12.8679 15.047
12.8831 15.029
12.8983 14.928
12.9135 15.038
12.9286 14.885
12.9438 14.371
12.9590 14.569
12.9742 14.515
12.9893 14.404
13.0045 14.525
13.0197 14.468
13.0349 14.348
13.0500 14.114
13.0652 14.053
13.0804 13.932
13.0956 13.881
13.1107 13.898
13.1259 13.814
13.1411 13.675
13.1563 13.567
13.1714 13.555
13.1866 13.542
13.2018 13.580
13.2170 13.597
13.2321 13.632
13.2473 13.342
13.2625 13.009
13.2777 13.099
13.2928 13.147
13.3080 13.107
13.3232 13.059
13.3384 12.897
13.3535 12.890
13.3687 12.987
13.3839 12.976
13.3991 13.003
13.4142 13.026
13.4294 13.019
13.4446 12.856
13.4598 12.735
13.4749 12.446
13.4901 12.497
13.5053 12.710
13.5205 12.317
13.5356 12.374
13.5508 12.484
13.5660 12.519
13.5812 12.303
13.5963 12.209
13.6115 12.395
13.6267 12.474
13.6419 12.446
13.6570 12.394
13.6722 12.071
13.6874 11.968
13.7026 12.064
13.7177 12.036
13.7329 11.964
13.7481 11.953
13.7633 12.144
13.7784 12.239
13.7936 12.257
13.8088 11.935
13.8239 11.767
13.8391 12.175
13.8543 12.352
13.8695 12.086
13.8846 12.311
13.8998 12.137
13.9150 12.260
13.9302 12.043
13.9453 11.794
13.9605 11.711
13.9757 11.472
13.9909 11.754
14.0060 11.759
14.0212 11.591
14.0364 11.709
14.0516 11.429
14.0667 11.625
14.0819 11.371
14.0971 11.261
14.1123 11.478
14.1274 11.612
14.1426 11.478
14.1578 11.532
14.1730 11.534
14.1881 11.684
14.2033 11.761
14.2185 11.811
14.2337 11.800
14.2488 11.858
14.2640 11.938
14.2792 12.035
14.2944 12.040
14.3095 12.242
14.3247 12.485
14.3399 12.469
14.3551 12.974
14.3702 13.143
14.3854 13.256
14.4006 13.103
14.4158 12.793
14.4309 12.503
14.4461 12.670
14.4613 13.000
14.4765 12.538
14.4916 12.405
14.5068 12.393
14.5220 12.171
14.5372 11.950
14.5523 11.579
14.5675 11.772
14.5827 11.545
14.5979 11.401
14.6130 10.986
14.6282 11.239
14.6434 11.325
14.6586 11.128
14.6737 10.963
14.6889 11.172
14.7041 10.828
14.7193 10.885
14.7344 10.736
14.7496 10.904
14.7648 10.738
14.7800 10.941
14.7951 10.736
14.8103 10.554
14.8255 10.932
14.8407 10.773
14.8558 10.755
14.8710 10.600
14.8862 10.298
14.9014 10.413
14.9165 10.996
14.9317 11.003
14.9469 10.529
14.9621 10.548
14.9772 10.533
14.9924 10.680
15.0076 10.387
15.0228 10.267
15.0379 10.655
15.0531 10.280
15.0683 10.592
15.0835 10.497
15.0986 10.323
15.1138 10.225
15.1290 10.403
15.1442 10.569
15.1593 10.354
15.1745 10.321
15.1897 10.704
15.2049 10.563
15.2200 10.617
15.2352 10.708
15.2504 10.430
15.2656 10.300
15.2807 10.317
15.2959 10.281
15.3111 10.027
15.3263 10.425
15.3414 10.261
15.3566 10.157
15.3718 10.175
15.3870 10.498
15.4021 10.703
15.4173 10.616
15.4325 10.344
15.4477 10.704
15.4628 10.280
15.4780 10.328
15.4932 10.359
15.5084 10.587
15.5235 10.486
15.5387 10.354
15.5539 10.383
15.5691 10.356
15.5842 10.203
15.5994 10.233
15.6146 10.316
15.6298 9.963
15.6449 10.195
15.6601 9.955
15.6753 9.745
15.6905 9.847
15.7056 9.948
15.7208 9.895
15.7360 9.812
15.7512 9.931
15.7663 9.980
15.7815 9.849
15.7967 9.874
15.8119 9.891
15.8270 9.875
15.8422 9.657
15.8574 9.628
15.8726 9.720
15.8877 9.488
15.9029 9.940
15.9181 9.716
15.9333 9.906
15.9484 9.931
15.9636 9.885
15.9788 10.015
15.9940 9.852
16.0091 10.003
16.0243 9.981
16.0395 9.974
16.0547 9.678
16.0698 9.824
16.0850 9.668
16.1002 9.663
16.1154 9.571
16.1305 9.512
16.1457 9.552
16.1609 9.765
16.1761 9.607
16.1912 9.720
16.2064 9.911
16.2216 9.791
16.2368 9.892
16.2519 9.694
16.2671 9.706
16.2823 9.965
16.2975 9.996
16.3126 10.050
16.3278 10.206
16.3430 10.086
16.3582 10.146
16.3733 9.899
16.3885 9.963
16.4037 10.309
16.4189 9.893
16.4340 9.709
16.4492 9.877
16.4644 9.947
16.4796 10.188
16.4947 9.786
16.5099 9.538
16.5251 9.691
16.5403 9.805
16.5554 9.576
16.5706 9.730
16.5858 9.668
16.6010 9.666
16.6161 9.820
16.6313 9.844
16.6465 9.764
16.6617 9.777
16.6768 9.786
16.6920 9.765
16.7072 9.983
16.7224 9.946
16.7375 9.894
16.7527 10.086
16.7679 9.969
16.7831 9.815
16.7982 9.577
16.8134 9.719
16.8286 9.917
16.8438 10.007
16.8589 9.900
16.8741 9.890
16.8893 10.012
16.9045 9.810
16.9196 9.867
16.9348 9.857
16.9500 9.870
16.9652 9.988
16.9803 10.021
16.9955 10.047
17.0107 9.893
17.0259 9.850
17.0410 9.937
17.0562 10.030
17.0714 10.207
17.0866 10.287
17.1017 10.523
17.1169 10.743
17.1321 10.834
17.1473 11.062
17.1624 11.691
17.1776 12.391
17.1928 13.039
17.2080 13.942
17.2231 14.850
17.2383 16.029
17.2535 17.415
17.2687 18.661
17.2838 18.846
17.2990 17.942
17.3142 16.925
17.3294 16.340
17.3445 16.363
17.3597 16.301
17.3749 15.761
17.3901 15.053
17.4052 14.191
17.4204 13.329
17.4356 12.666
17.4508 12.110
17.4659 11.774
17.4811 11.483
17.4963 11.267
17.5115 11.319
17.5266 11.341
17.5418 11.280
17.5570 11.235
17.5722 11.393
17.5873 11.664
17.6025 11.789
17.6177 11.640
17.6329 11.156
17.6480 11.005
17.6632 11.127
17.6784 11.033
17.6936 10.872
17.7087 10.960
17.7239 10.828
17.7391 10.542
17.7543 10.627
17.7694 10.783
17.7846 10.641
17.7998 10.513
17.8150 10.700
17.8301 10.832
17.8453 10.582
17.8605 10.699
17.8757 10.583
17.8908 10.482
17.9060 10.613
17.9212 10.669
17.9364 10.630
17.9515 10.570
17.9667 10.529
17.9819 10.498
17.9971 10.282
18.0122 10.177
18.0274 10.073
18.0426 10.225
18.0578 10.228
18.0729 10.203
18.0881 10.449
18.1033 10.125
18.1185 9.732
18.1336 9.936
18.1488 10.169
18.1640 10.117
18.1792 9.951
18.1943 9.899
18.2095 9.758
18.2247 9.881
18.2399 9.788
18.2550 9.888
18.2702 10.050
18.2854 10.018
18.3006 9.898
18.3157 9.800
18.3309 9.742
18.3461 9.779
18.3613 9.714
18.3764 9.904
18.3916 9.880
18.4068 9.780
18.4220 9.888
18.4371 9.723
18.4523 9.896
18.4675 9.759
18.4827 9.675
18.4978 9.755
18.5130 9.568
18.5282 9.672
18.5434 9.787
18.5585 9.845
18.5737 9.662
18.5889 9.796
18.6041 9.904
18.6192 9.737
18.6344 9.706
18.6496 9.580
18.6648 9.750
18.6799 9.712
18.6951 9.782
18.7103 9.918
18.7255 9.880
18.7406 9.956
18.7558 9.668
18.7710 9.461
18.7862 9.703
18.8013 9.695
18.8165 9.473
18.8317 9.566
18.8469 9.524
18.8620 9.904
18.8772 9.996
18.8924 9.827
18.9076 9.889
18.9227 10.020
18.9379 10.076
18.9531 9.982
18.9683 9.946
18.9834 10.032
18.9986 9.879
19.0138 10.013
19.0290 10.414
19.0441 10.269
19.0593 10.125
19.0745 10.187
19.0897 10.451
19.1048 10.420
19.1200 10.487
19.1352 10.441
19.1504 10.591
19.1655 10.619
19.1807 10.584
19.1959 10.804
19.2111 10.592
19.2262 10.700
19.2414 10.859
19.2566 11.037
19.2718 10.975
19.2869 10.676
19.3021 10.865
19.3173 10.927
19.3325 10.898
19.3476 11.004
19.3628 10.882
19.3780 10.887
19.3932 11.298
19.4083 11.457
19.4235 11.212
19.4387 11.238
19.4539 11.298
19.4690 11.395
19.4842 11.488
19.4994 11.472
19.5146 11.443
19.5297 11.320
19.5449 11.323
19.5601 11.370
19.5753 11.314
19.5904 11.468
19.6056 11.672
19.6208 11.521
19.6360 11.454
19.6511 11.653
19.6663 11.814
19.6815 11.643
19.6967 11.581
19.7118 11.649
19.7270 11.616
19.7422 11.664
19.7574 11.808
19.7725 11.631
19.7877 11.527
19.8029 11.741
19.8180 11.821
19.8332 11.981
19.8484 12.198
19.8636 12.278
19.8787 12.478
19.8939 12.899
19.9091 12.958
19.9243 13.128
19.9394 13.516
19.9546 13.752
19.9698 14.242
19.9850 14.222
20.0001 13.931
20.0153 14.262
20.0305 14.033
20.0457 13.641
20.0608 13.646
20.0760 13.409
20.0912 13.549
20.1064 13.909
20.1215 13.584
20.1367 13.402
20.1519 13.379
20.1671 13.175
20.1822 13.052
20.1974 12.880
20.2126 13.039
20.2278 13.157
20.2429 13.055
20.2581 12.517
20.2733 12.264
20.2885 12.096
20.3036 11.869
20.3188 12.035
20.3340 12.014
20.3492 11.690
20.3643 11.625
20.3795 11.335
20.3947 11.039
20.4099 10.993
20.4250 10.878
20.4402 10.969
20.4554 10.925
20.4706 10.741
20.4857 10.770
20.5009 10.892
20.5161 10.899
20.5313 10.991
20.5464 11.013
20.5616 10.814
20.5768 10.704
20.5920 10.654
20.6071 10.626
20.6223 11.008
20.6375 10.951
20.6527 10.894
20.6678 10.968
20.6830 10.699
20.6982 10.550
20.7134 10.414
20.7285 10.269
20.7437 10.468
20.7589 10.564
20.7741 10.750
20.7892 10.541
20.8044 10.422
20.8196 10.090
20.8348 10.348
20.8499 10.510
20.8651 10.201
20.8803 10.256
20.8955 10.073
20.9106 10.304
20.9258 10.354
20.9410 10.181
20.9562 10.157
20.9713 10.299
20.9865 10.202
21.0017 9.878
21.0169 9.987
21.0320 9.947
21.0472 10.043
21.0624 10.198
21.0776 9.914
21.0927 10.024
21.1079 9.964
21.1231 9.437
21.1383 9.732
21.1534 9.741
21.1686 9.519
21.1838 9.616
21.1990 9.599
21.2141 9.609
21.2293 9.583
21.2445 9.881
21.2597 9.569
21.2748 9.478
21.2900 9.690
21.3052 9.397
21.3204 9.657
21.3355 9.425
21.3507 9.724
21.3659 9.502
21.3811 9.780
21.3962 9.687
21.4114 9.419
21.4266 9.332
21.4418 9.378
21.4569 9.278
21.4721 9.453
21.4873 9.587
21.5025 9.635
21.5176 9.507
21.5328 9.167
21.5480 9.160
21.5632 8.977
21.5783 9.335
21.5935 9.350
21.6087 9.380
21.6239 9.059
21.6390 9.071
21.6542 8.968
21.6694 9.172
21.6846 9.107
21.6997 9.127
21.7149 9.228
21.7301 9.102
21.7453 8.947
21.7604 9.154
21.7756 8.924
21.7908 9.090
21.8060 9.093
21.8211 8.832
21.8363 8.936
21.8515 9.133
21.8667 9.245
21.8818 9.228
21.8970 9.222
21.9122 8.944
21.9274 8.929
21.9425 8.845
21.9577 8.879
21.9729 9.033
21.9881 8.982
22.0032 8.950
22.0184 8.976
22.0336 8.846
22.0488 8.763
22.0639 8.876
22.0791 8.760
22.0943 8.716
22.1095 8.814
22.1246 8.749
22.1398 8.621
22.1550 8.391
22.1702 8.529
22.1853 8.723
22.2005 8.619
22.2157 8.706
22.2309 8.908
22.2460 8.762
22.2612 8.678
22.2764 8.832
22.2916 8.613
22.3067 8.480
22.3219 8.770
22.3371 8.910
22.3523 8.533
22.3674 8.584
22.3826 8.673
22.3978 8.573
22.4130 8.559
22.4281 8.384
22.4433 8.365
22.4585 8.419
22.4737 8.459
22.4888 8.274
22.5040 8.420
22.5192 8.056
22.5344 8.681
22.5495 8.391
22.5647 8.326
22.5799 8.330
22.5951 8.478
22.6102 8.973
22.6254 8.670
22.6406 8.396
22.6558 8.436
22.6709 8.279
22.6861 8.262
22.7013 8.292
22.7165 8.098
22.7316 6.529
