'Id: "" Comment: "" Operator: "Lab Manager" Anode: "Mo" Scantype: "Still (Eiger2R_500K (1D mode))" TimePerStep: "300" X: "11.8" Y: "9.4" Z: "11.284" 
7.2532 18.143
7.2684 18.547
7.2836 18.723
7.2987 19.333
7.3139 18.956
7.3291 19.274
7.3443 18.790
7.3594 19.034
7.3746 19.184
7.3898 19.655
7.4050 19.727
7.4201 19.383
7.4353 19.488
7.4505 19.722
7.4657 19.371
7.4808 19.656
7.4960 19.603
7.5112 19.975
7.5264 19.649
7.5415 19.677
7.5567 19.620
7.5719 19.317
7.5871 19.641
7.6022 19.961
7.6174 20.211
7.6326 20.008
7.6478 20.002
7.6629 19.981
7.6781 20.031
7.6933 20.150
7.7085 20.065
7.7236 19.870
7.7388 19.993
7.7540 20.222
7.7692 20.337
7.7843 19.977
7.7995 20.286
7.8147 20.644
7.8299 20.407
7.8450 20.557
7.8602 20.765
7.8754 20.740
7.8905 20.606
7.9057 20.597
7.9209 20.700
7.9361 20.959
7.9512 20.821
7.9664 20.923
7.9816 20.803
7.9968 21.048
8.0119 21.085
8.0271 21.129
8.0423 20.816
8.0575 20.720
8.0726 20.995
8.0878 21.327
8.1030 21.473
8.1182 21.300
8.1333 20.817
8.1485 21.024
8.1637 21.118
8.1789 21.243
8.1940 21.518
8.2092 21.347
8.2244 21.451
8.2396 21.869
8.2547 21.457
8.2699 21.799
8.2851 21.640
8.3003 21.299
8.3154 21.532
8.3306 21.360
8.3458 21.728
8.3610 21.605
8.3761 21.552
8.3913 21.667
8.4065 21.514
8.4217 21.921
8.4368 21.914
8.4520 21.641
8.4672 22.008
8.4824 22.458
8.4975 22.516
8.5127 21.736
8.5279 22.206
8.5431 22.189
8.5582 22.109
8.5734 21.674
8.5886 22.154
8.6038 21.747
8.6189 22.017
8.6341 21.905
8.6493 21.975
8.6645 22.103
8.6796 21.880
8.6948 22.265
8.7100 22.044
8.7252 21.945
8.7403 21.690
8.7555 22.245
8.7707 22.329
8.7859 22.833
8.8010 22.394
8.8162 22.534
8.8314 22.764
8.8466 22.635
8.8617 22.605
8.8769 22.066
8.8921 22.268
8.9073 22.527
8.9224 22.305
8.9376 22.554
8.9528 22.683
8.9680 22.594
8.9831 22.447
8.9983 22.633
9.0135 22.605
9.0287 22.618
9.0438 22.880
9.0590 22.557
9.0742 22.692
9.0894 22.776
9.1045 22.967
9.1197 22.901
9.1349 22.868
9.1501 22.813
9.1652 22.465
9.1804 22.466
9.1956 22.898
9.2108 23.119
9.2259 22.715
9.2411 22.855
9.2563 22.857
9.2715 23.213
9.2866 22.994
9.3018 22.954
9.3170 23.181
9.3322 23.014
9.3473 22.938
9.3625 22.976
9.3777 22.864
9.3929 23.058
9.4080 23.240
9.4232 23.306
9.4384 23.245
9.4536 23.077
9.4687 23.124
9.4839 22.957
9.4991 22.652
9.5143 22.866
9.5294 23.116
9.5446 23.260
9.5598 23.255
9.5750 23.276
9.5901 23.129
9.6053 23.039
9.6205 23.325
9.6357 23.376
9.6508 23.306
9.6660 23.278
9.6812 23.260
9.6964 23.406
9.7115 23.627
9.7267 23.634
9.7419 23.722
9.7571 24.104
9.7722 23.891
9.7874 23.668
9.8026 23.509
9.8178 23.351
9.8329 23.131
9.8481 22.935
9.8633 23.038
9.8785 23.291
9.8936 23.243
9.9088 22.891
9.9240 23.013
9.9392 23.225
9.9543 23.259
9.9695 23.566
9.9847 23.354
9.9999 23.305
10.0150 23.493
10.0302 23.187
10.0454 22.855
10.0606 23.055
10.0757 23.382
10.0909 23.198
10.1061 23.375
10.1213 23.874
10.1364 23.826
10.1516 23.493
10.1668 23.451
10.1820 23.443
10.1971 23.164
10.2123 23.028
10.2275 23.055
10.2427 22.983
10.2578 22.807
10.2730 22.834
10.2882 22.979
10.3034 23.031
10.3185 23.180
10.3337 22.831
10.3489 22.467
10.3641 22.518
10.3792 22.550
10.3944 22.566
10.4096 22.623
10.4248 22.722
10.4399 22.473
10.4551 22.837
10.4703 22.591
10.4855 22.446
10.5006 22.620
10.5158 22.721
10.5310 22.334
10.5462 22.256
10.5613 22.267
10.5765 22.334
10.5917 22.543
10.6069 22.595
10.6220 22.200
10.6372 22.323
10.6524 22.304
10.6676 22.353
10.6827 22.376
10.6979 22.327
10.7131 22.158
10.7283 22.112
10.7434 22.177
10.7586 22.212
10.7738 22.588
10.7890 22.757
10.8041 22.138
10.8193 21.885
10.8345 21.990
10.8497 21.999
10.8648 22.377
10.8800 21.858
10.8952 21.870
10.9104 21.918
10.9255 22.060
10.9407 22.036
10.9559 22.237
10.9711 22.118
10.9862 21.824
11.0014 21.783
11.0166 21.850
11.0318 21.970
11.0469 21.387
11.0621 21.661
11.0773 21.859
11.0925 21.898
11.1076 21.701
11.1228 21.682
11.1380 21.486
11.1532 21.700
11.1683 21.631
11.1835 21.537
11.1987 21.683
11.2139 21.736
11.2290 21.584
11.2442 21.970
11.2594 21.748
11.2746 21.327
11.2897 21.421
11.3049 21.671
11.3201 21.744
11.3353 21.573
11.3504 21.354
11.3656 21.136
11.3808 21.205
11.3960 21.489
11.4111 21.464
11.4263 21.097
11.4415 20.773
11.4567 21.023
11.4718 21.314
11.4870 21.154
11.5022 20.882
11.5174 20.806
11.5325 20.794
11.5477 21.033
11.5629 21.065
11.5781 20.949
11.5932 20.911
11.6084 20.640
11.6236 20.574
11.6388 20.666
11.6539 20.311
11.6691 20.430
11.6843 20.629
11.6995 20.380
11.7146 20.513
11.7298 20.156
11.7450 20.107
11.7602 20.277
11.7753 19.942
11.7905 20.095
11.8057 20.002
11.8209 20.017
11.8360 20.209
11.8512 20.166
11.8664 20.238
11.8816 19.784
11.8967 19.901
11.9119 19.668
11.9271 19.532
11.9423 19.344
11.9574 18.947
11.9726 19.217
11.9878 19.595
12.0030 19.313
12.0181 19.059
12.0333 19.303
12.0485 19.244
12.0637 18.728
12.0788 19.022
12.0940 18.734
12.1092 18.405
12.1244 18.811
12.1395 18.811
12.1547 18.604
12.1699 18.329
12.1851 18.179
12.2002 18.296
12.2154 18.379
12.2306 18.258
12.2458 18.022
12.2609 17.804
12.2761 17.937
12.2913 18.124
12.3065 17.994
12.3216 17.759
12.3368 17.758
12.3520 17.266
12.3672 17.455
12.3823 17.371
12.3975 16.891
12.4127 16.765
12.4279 16.831
12.4430 16.949
12.4582 16.668
12.4734 16.465
12.4886 16.473
12.5037 16.611
12.5189 16.315
12.5341 16.265
12.5493 16.360
12.5644 16.371
12.5796 16.362
12.5948 16.350
12.6100 16.411
12.6251 16.129
12.6403 15.901
12.6555 15.737
12.6707 15.605
12.6858 15.673
12.7010 15.650
12.7162 15.625
12.7314 15.414
12.7465 15.204
12.7617 15.440
12.7769 15.345
12.7921 15.042
12.8072 14.924
12.8224 14.953
12.8376 14.973
12.8528 14.793
12.8679 14.808
12.8831 14.710
12.8983 14.418
12.9135 14.498
12.9286 14.639
12.9438 14.387
12.9590 14.309
12.9742 14.205
12.9893 14.413
13.0045 14.585
13.0197 14.082
13.0349 13.798
13.0500 13.834
13.0652 13.808
13.0804 13.815
13.0956 13.965
13.1107 13.915
13.1259 13.751
13.1411 13.735
13.1563 13.683
13.1714 13.573
13.1866 13.430
13.2018 13.347
13.2170 13.365
13.2321 13.213
13.2473 13.185
13.2625 13.392
13.2777 13.279
13.2928 13.293
13.3080 13.549
13.3232 13.107
13.3384 12.742
13.3535 12.870
13.3687 12.822
13.3839 13.120
13.3991 12.995
13.4142 12.599
13.4294 12.753
13.4446 13.013
13.4598 12.962
13.4749 12.587
13.4901 12.533
13.5053 12.483
13.5205 12.549
13.5356 12.688
13.5508 12.541
13.5660 12.424
13.5812 12.361
13.5963 12.410
13.6115 12.423
13.6267 12.351
13.6419 12.258
13.6570 12.053
13.6722 12.170
13.6874 11.985
13.7026 12.079
13.7177 12.182
13.7329 12.209
13.7481 12.509
13.7633 12.355
13.7784 12.285
13.7936 12.191
13.8088 12.095
13.8239 12.401
13.8391 12.546
13.8543 12.130
13.8695 12.122
13.8846 12.207
13.8998 12.171
13.9150 12.139
13.9302 12.118
13.9453 12.066
13.9605 11.650
13.9757 11.784
13.9909 11.649
14.0060 11.630
14.0212 11.532
14.0364 11.337
14.0516 11.625
14.0667 11.669
14.0819 11.601
14.0971 11.783
14.1123 11.758
14.1274 11.666
14.1426 11.719
14.1578 11.793
14.1730 11.797
14.1881 11.811
14.2033 11.617
14.2185 11.590
14.2337 11.865
14.2488 11.983
14.2640 11.733
14.2792 11.552
14.2944 11.951
14.3095 11.877
14.3247 11.960
14.3399 12.579
14.3551 12.590
14.3702 12.979
14.3854 13.305
14.4006 13.131
14.4158 13.227
14.4309 13.226
14.4461 13.178
14.4613 12.973
14.4765 12.252
14.4916 12.201
14.5068 11.640
14.5220 12.003
14.5372 11.701
14.5523 11.314
14.5675 10.896
14.5827 10.679
14.5979 11.297
14.6130 10.633
14.6282 11.054
14.6434 10.681
14.6586 10.856
14.6737 10.870
14.6889 10.577
14.7041 10.984
14.7193 10.658
14.7344 10.618
14.7496 10.759
14.7648 10.457
14.7800 10.382
14.7951 10.239
14.8103 10.554
14.8255 10.428
14.8407 10.589
14.8558 10.510
14.8710 10.222
14.8862 10.498
14.9014 10.654
14.9165 11.114
14.9317 10.753
14.9469 10.602
14.9621 10.400
14.9772 10.204
14.9924 10.413
15.0076 10.433
15.0228 10.431
15.0379 10.628
15.0531 10.100
15.0683 9.811
15.0835 10.271
15.0986 10.415
15.1138 10.297
15.1290 10.545
15.1442 10.233
15.1593 10.485
15.1745 10.029
15.1897 9.761
15.2049 10.248
15.2200 10.305
15.2352 10.228
15.2504 10.083
15.2656 10.181
15.2807 9.906
15.2959 9.821
15.3111 10.079
15.3263 10.287
15.3414 10.038
15.3566 10.155
15.3718 10.125
15.3870 9.978
15.4021 10.115
15.4173 9.929
15.4325 10.336
15.4477 10.187
15.4628 9.874
15.4780 10.278
15.4932 10.061
15.5084 10.165
15.5235 10.180
15.5387 10.264
15.5539 10.060
15.5691 9.994
15.5842 9.969
15.5994 9.844
15.6146 9.814
15.6298 9.978
15.6449 10.056
15.6601 9.856
15.6753 9.901
15.6905 9.763
15.7056 9.645
15.7208 9.488
15.7360 9.340
15.7512 9.787
15.7663 9.953
15.7815 9.637
15.7967 9.756
15.8119 9.589
15.8270 9.680
15.8422 9.852
15.8574 9.928
15.8726 9.750
15.8877 9.438
15.9029 9.480
15.9181 9.735
15.9333 9.786
15.9484 9.535
15.9636 9.713
15.9788 9.896
15.9940 9.821
16.0091 9.705
16.0243 9.572
16.0395 9.778
16.0547 9.489
16.0698 9.714
16.0850 9.689
16.1002 9.707
16.1154 9.629
16.1305 9.530
16.1457 9.627
16.1609 9.628
16.1761 9.684
16.1912 9.504
16.2064 9.797
16.2216 9.840
16.2368 9.881
16.2519 9.788
16.2671 9.743
16.2823 9.676
16.2975 9.843
16.3126 9.837
16.3278 9.863
16.3430 9.504
16.3582 9.781
16.3733 9.939
16.3885 9.893
16.4037 9.742
16.4189 9.922
16.4340 9.848
16.4492 9.886
16.4644 9.684
16.4796 9.703
16.4947 9.764
16.5099 9.854
16.5251 10.042
16.5403 9.926
16.5554 9.497
16.5706 9.534
16.5858 9.681
16.6010 9.675
16.6161 9.611
16.6313 9.688
16.6465 9.933
16.6617 10.078
16.6768 9.825
16.6920 10.012
16.7072 10.060
16.7224 10.002
16.7375 9.993
16.7527 10.039
16.7679 10.063
16.7831 10.040
16.7982 10.072
16.8134 9.904
16.8286 9.831
16.8438 9.909
16.8589 9.910
16.8741 9.834
16.8893 9.789
16.9045 9.784
16.9196 9.829
16.9348 9.680
16.9500 9.666
16.9652 9.917
16.9803 9.994
16.9955 9.933
17.0107 9.762
17.0259 9.824
17.0410 10.047
17.0562 10.025
17.0714 10.149
17.0866 10.435
17.1017 10.553
17.1169 10.755
17.1321 11.044
17.1473 11.366
17.1624 11.820
17.1776 12.450
17.1928 13.102
17.2080 14.107
17.2231 14.894
17.2383 15.839
17.2535 17.296
17.2687 18.374
17.2838 18.513
17.2990 17.907
17.3142 17.135
17.3294 16.458
17.3445 16.092
17.3597 15.911
17.3749 15.858
17.3901 15.296
17.4052 14.366
17.4204 13.470
17.4356 12.613
17.4508 12.122
17.4659 11.953
17.4811 11.776
17.4963 11.616
17.5115 11.413
17.5266 11.164
17.5418 11.080
17.5570 10.979
17.5722 10.923
17.5873 10.923
17.6025 11.075
17.6177 11.166
17.6329 11.116
17.6480 11.253
17.6632 11.496
17.6784 11.444
17.6936 11.483
17.7087 11.425
17.7239 11.119
17.7391 10.990
17.7543 11.131
17.7694 11.202
17.7846 11.089
17.7998 10.865
17.8150 10.609
17.8301 10.467
17.8453 10.435
17.8605 10.482
17.8757 10.449
17.8908 10.191
17.9060 10.284
17.9212 10.387
17.9364 10.365
17.9515 10.230
17.9667 10.247
17.9819 10.401
17.9971 10.160
18.0122 10.015
18.0274 10.101
18.0426 10.250
18.0578 10.201
18.0729 10.283
18.0881 10.357
18.1033 10.134
18.1185 10.098
18.1336 9.960
18.1488 9.914
18.1640 9.857
18.1792 9.865
18.1943 9.789
18.2095 9.901
18.2247 9.890
18.2399 9.725
18.2550 9.665
18.2702 9.871
18.2854 9.794
18.3006 9.897
18.3157 9.965
18.3309 9.949
18.3461 9.916
18.3613 9.643
18.3764 9.598
18.3916 9.775
18.4068 9.719
18.4220 9.776
18.4371 9.692
18.4523 9.586
18.4675 9.707
18.4827 9.854
18.4978 9.689
18.5130 9.708
18.5282 9.819
18.5434 9.836
18.5585 10.053
18.5737 9.829
18.5889 9.671
18.6041 9.960
18.6192 9.696
18.6344 9.656
18.6496 9.876
18.6648 9.835
18.6799 9.633
18.6951 9.601
18.7103 9.783
18.7255 9.826
18.7406 9.806
18.7558 9.844
18.7710 9.762
18.7862 9.707
18.8013 9.757
18.8165 9.832
18.8317 9.732
18.8469 9.753
18.8620 9.859
18.8772 9.788
18.8924 9.855
18.9076 10.095
18.9227 10.100
18.9379 9.771
18.9531 9.764
18.9683 9.969
18.9834 10.018
18.9986 10.255
19.0138 10.071
19.0290 9.939
19.0441 9.814
19.0593 9.938
19.0745 10.094
19.0897 10.074
19.1048 10.166
19.1200 10.164
19.1352 10.242
19.1504 10.554
19.1655 10.619
19.1807 10.505
19.1959 10.540
19.2111 10.738
19.2262 10.813
19.2414 10.702
19.2566 10.851
19.2718 10.989
19.2869 10.806
19.3021 10.723
19.3173 10.662
19.3325 11.028
19.3476 10.996
19.3628 10.798
19.3780 11.112
19.3932 11.345
19.4083 11.193
19.4235 11.010
19.4387 11.151
19.4539 11.101
19.4690 10.895
19.4842 10.969
19.4994 11.202
19.5146 11.336
19.5297 11.236
19.5449 11.543
19.5601 11.716
19.5753 11.460
19.5904 11.517
19.6056 11.550
19.6208 11.616
19.6360 11.668
19.6511 11.680
19.6663 11.626
19.6815 11.599
19.6967 11.536
19.7118 11.698
19.7270 11.904
19.7422 11.940
19.7574 11.767
19.7725 11.759
19.7877 11.931
19.8029 11.813
19.8180 11.872
19.8332 12.194
19.8484 12.337
19.8636 12.435
19.8787 12.700
19.8939 12.958
19.9091 13.253
19.9243 13.348
19.9394 13.686
19.9546 13.955
19.9698 14.123
19.9850 14.451
20.0001 14.467
20.0153 14.213
20.0305 13.888
20.0457 13.844
20.0608 13.986
20.0760 13.714
20.0912 13.507
20.1064 13.549
20.1215 13.575
20.1367 13.336
20.1519 13.232
20.1671 12.913
20.1822 12.913
20.1974 12.833
20.2126 12.775
20.2278 12.794
20.2429 12.557
20.2581 12.144
20.2733 12.124
20.2885 12.170
20.3036 12.197
20.3188 12.056
20.3340 11.921
20.3492 11.897
20.3643 11.847
20.3795 11.810
20.3947 11.679
20.4099 12.023
20.4250 11.904
20.4402 11.941
20.4554 11.883
20.4706 11.971
20.4857 11.833
20.5009 11.743
20.5161 11.713
20.5313 11.487
20.5464 11.223
20.5616 11.101
20.5768 11.104
20.5920 11.276
20.6071 10.858
20.6223 10.978
20.6375 11.113
20.6527 10.734
20.6678 10.494
20.6830 10.448
20.6982 10.603
20.7134 10.303
20.7285 10.461
20.7437 10.279
20.7589 10.354
20.7741 10.298
20.7892 10.332
20.8044 10.304
20.8196 10.479
20.8348 10.211
20.8499 10.391
20.8651 10.090
20.8803 10.103
20.8955 10.393
20.9106 10.316
20.9258 9.970
20.9410 10.157
20.9562 10.167
20.9713 9.940
20.9865 10.077
21.0017 10.090
21.0169 10.178
21.0320 9.910
21.0472 9.872
21.0624 9.893
21.0776 9.600
21.0927 9.957
21.1079 9.587
21.1231 10.352
21.1383 9.691
21.1534 9.904
21.1686 9.507
21.1838 9.709
21.1990 9.963
21.2141 9.597
21.2293 9.752
21.2445 9.625
21.2597 9.931
21.2748 9.804
21.2900 9.538
21.3052 9.944
21.3204 9.538
21.3355 9.508
21.3507 9.735
21.3659 9.253
21.3811 9.476
21.3962 9.152
21.4114 9.204
21.4266 9.355
21.4418 9.547
21.4569 9.287
21.4721 9.510
21.4873 9.368
21.5025 9.184
21.5176 9.055
21.5328 9.272
21.5480 8.984
21.5632 9.183
21.5783 9.324
21.5935 9.249
21.6087 9.235
21.6239 9.135
21.6390 9.158
21.6542 9.192
21.6694 8.998
21.6846 9.150
21.6997 9.064
21.7149 9.028
21.7301 8.989
21.7453 9.192
21.7604 9.253
21.7756 9.200
21.7908 9.048
21.8060 9.050
21.8211 8.995
21.8363 8.949
21.8515 9.129
21.8667 9.005
21.8818 9.063
21.8970 8.943
21.9122 8.945
21.9274 9.036
21.9425 8.878
21.9577 8.886
21.9729 8.974
21.9881 8.885
22.0032 8.863
22.0184 8.827
22.0336 8.716
22.0488 8.917
22.0639 8.860
22.0791 8.649
22.0943 8.783
22.1095 8.879
22.1246 8.765
22.1398 8.626
22.1550 8.612
22.1702 8.705
22.1853 8.774
22.2005 8.682
22.2157 8.528
22.2309 8.600
22.2460 8.604
22.2612 8.722
22.2764 8.499
22.2916 8.340
22.3067 8.513
22.3219 8.567
22.3371 8.439
22.3523 8.494
22.3674 8.649
22.3826 8.353
22.3978 8.328
22.4130 8.304
22.4281 8.390
22.4433 8.248
22.4585 8.479
22.4737 8.272
22.4888 8.256
22.5040 8.316
22.5192 8.629
22.5344 8.246
22.5495 8.152
22.5647 8.282
22.5799 8.497
22.5951 8.441
22.6102 8.466
22.6254 8.670
22.6406 8.370
22.6558 8.641
22.6709 8.252
22.6861 8.280
22.7013 8.026
22.7165 7.949
22.7316 6.569
