'Id: "" Comment: "" Operator: "Lab Manager" Anode: "Mo" Scantype: "Still (Eiger2R_500K (1D mode))" TimePerStep: "300" X: "11.8" Y: "9.4" Z: "11.284" 
7.2532 19.216
7.2684 18.458
7.2836 18.781
7.2987 18.690
7.3139 18.504
7.3291 18.658
7.3443 18.984
7.3594 19.069
7.3746 19.139
7.3898 19.123
7.4050 19.164
7.4201 19.398
7.4353 19.279
7.4505 19.201
7.4657 19.299
7.4808 19.571
7.4960 19.515
7.5112 19.699
7.5264 19.489
7.5415 19.401
7.5567 19.710
7.5719 20.236
7.5871 20.098
7.6022 20.143
7.6174 19.848
7.6326 19.747
7.6478 20.154
7.6629 20.111
7.6781 20.086
7.6933 20.143
7.7085 19.909
7.7236 19.916
7.7388 20.447
7.7540 20.430
7.7692 20.264
7.7843 20.396
7.7995 20.527
7.8147 20.385
7.8299 20.146
7.8450 20.281
7.8602 20.492
7.8754 20.650
7.8905 20.725
7.9057 20.603
7.9209 20.665
7.9361 20.741
7.9512 20.565
7.9664 20.409
7.9816 20.941
7.9968 20.869
8.0119 20.786
8.0271 20.778
8.0423 20.844
8.0575 20.812
8.0726 21.163
8.0878 21.191
8.1030 21.351
8.1182 21.070
8.1333 21.118
8.1485 20.985
8.1637 21.297
8.1789 21.255
8.1940 21.235
8.2092 21.358
8.2244 21.271
8.2396 21.426
8.2547 21.151
8.2699 21.100
8.2851 21.174
8.3003 21.484
8.3154 21.406
8.3306 21.401
8.3458 21.637
8.3610 21.483
8.3761 22.113
8.3913 22.081
8.4065 22.235
8.4217 22.046
8.4368 22.419
8.4520 21.867
8.4672 21.347
8.4824 21.769
8.4975 22.214
8.5127 22.216
8.5279 22.053
8.5431 22.112
8.5582 21.983
8.5734 22.051
8.5886 22.074
8.6038 22.134
8.6189 21.952
8.6341 21.632
8.6493 22.377
8.6645 22.089
8.6796 22.212
8.6948 22.229
8.7100 22.253
8.7252 22.130
8.7403 22.148
8.7555 22.498
8.7707 22.134
8.7859 22.428
8.8010 22.399
8.8162 22.317
8.8314 22.288
8.8466 22.447
8.8617 22.446
8.8769 22.547
8.8921 22.400
8.9073 22.255
8.9224 22.471
8.9376 22.572
8.9528 22.533
8.9680 22.368
8.9831 23.163
8.9983 22.322
9.0135 22.637
9.0287 22.170
9.0438 22.566
9.0590 22.506
9.0742 22.505
9.0894 22.758
9.1045 22.896
9.1197 22.603
9.1349 23.044
9.1501 22.970
9.1652 22.795
9.1804 22.664
9.1956 22.778
9.2108 23.031
9.2259 22.562
9.2411 22.876
9.2563 23.040
9.2715 22.656
9.2866 22.954
9.3018 22.986
9.3170 22.816
9.3322 22.868
9.3473 23.225
9.3625 23.231
9.3777 22.926
9.3929 23.031
9.4080 23.051
9.4232 23.243
9.4384 22.867
9.4536 22.844
9.4687 22.916
9.4839 23.038
9.4991 23.118
9.5143 22.881
9.5294 23.161
9.5446 23.465
9.5598 23.187
9.5750 23.165
9.5901 23.369
9.6053 23.145
9.6205 23.228
9.6357 23.216
9.6508 23.216
9.6660 23.590
9.6812 23.747
9.6964 23.879
9.7115 23.732
9.7267 23.790
9.7419 24.108
9.7571 23.723
9.7722 23.654
9.7874 24.067
9.8026 23.784
9.8178 23.368
9.8329 23.375
9.8481 23.430
9.8633 23.040
9.8785 23.257
9.8936 23.595
9.9088 23.408
9.9240 23.348
9.9392 23.095
9.9543 23.203
9.9695 23.404
9.9847 23.315
9.9999 23.284
10.0150 23.297
10.0302 23.296
10.0454 23.146
10.0606 23.021
10.0757 23.277
10.0909 23.344
10.1061 23.402
10.1213 23.501
10.1364 23.166
10.1516 23.160
10.1668 23.191
10.1820 23.066
10.1971 23.108
10.2123 22.907
10.2275 23.047
10.2427 22.935
10.2578 22.819
10.2730 23.046
10.2882 22.753
10.3034 22.538
10.3185 22.470
10.3337 22.382
10.3489 22.292
10.3641 22.405
10.3792 22.548
10.3944 22.425
10.4096 22.843
10.4248 23.008
10.4399 22.628
10.4551 22.863
10.4703 22.952
10.4855 22.792
10.5006 22.645
10.5158 22.925
10.5310 22.371
10.5462 22.228
10.5613 22.386
10.5765 22.400
10.5917 22.318
10.6069 22.122
10.6220 22.469
10.6372 22.539
10.6524 22.312
10.6676 22.323
10.6827 22.715
10.6979 22.411
10.7131 22.326
10.7283 22.446
10.7434 22.285
10.7586 22.201
10.7738 22.152
10.7890 22.170
10.8041 22.271
10.8193 22.205
10.8345 21.947
10.8497 22.067
10.8648 21.803
10.8800 21.910
10.8952 21.815
10.9104 21.915
10.9255 21.806
10.9407 21.806
10.9559 21.656
10.9711 21.729
10.9862 22.050
11.0014 21.731
11.0166 22.104
11.0318 22.322
11.0469 21.651
11.0621 21.569
11.0773 21.858
11.0925 21.730
11.1076 21.925
11.1228 22.103
11.1380 21.678
11.1532 21.257
11.1683 22.122
11.1835 21.828
11.1987 22.048
11.2139 21.830
11.2290 21.533
11.2442 21.702
11.2594 21.226
11.2746 21.357
11.2897 21.866
11.3049 21.814
11.3201 21.577
11.3353 21.891
11.3504 21.534
11.3656 21.451
11.3808 21.217
11.3960 21.461
11.4111 21.459
11.4263 21.313
11.4415 21.283
11.4567 21.604
11.4718 21.310
11.4870 21.340
11.5022 21.086
11.5174 20.892
11.5325 20.737
11.5477 20.956
11.5629 20.782
11.5781 20.678
11.5932 20.984
11.6084 20.787
11.6236 20.657
11.6388 20.497
11.6539 20.650
11.6691 20.748
11.6843 20.496
11.6995 20.584
11.7146 20.585
11.7298 20.577
11.7450 20.157
11.7602 20.552
11.7753 20.378
11.7905 20.221
11.8057 19.894
11.8209 20.114
11.8360 20.302
11.8512 20.028
11.8664 19.851
11.8816 19.721
11.8967 19.604
11.9119 19.709
11.9271 19.525
11.9423 19.615
11.9574 19.416
11.9726 19.370
11.9878 19.472
12.0030 19.490
12.0181 19.427
12.0333 18.941
12.0485 18.983
12.0637 19.086
12.0788 18.913
12.0940 18.790
12.1092 18.963
12.1244 18.708
12.1395 18.642
12.1547 18.699
12.1699 18.356
12.1851 18.152
12.2002 18.072
12.2154 18.271
12.2306 17.917
12.2458 17.767
12.2609 18.012
12.2761 17.873
12.2913 17.678
12.3065 17.841
12.3216 17.586
12.3368 17.404
12.3520 17.602
12.3672 17.615
12.3823 17.470
12.3975 17.257
12.4127 17.269
12.4279 17.023
12.4430 17.009
12.4582 17.016
12.4734 17.016
12.4886 16.847
12.5037 16.694
12.5189 16.755
12.5341 16.542
12.5493 16.630
12.5644 16.585
12.5796 16.120
12.5948 16.130
12.6100 16.292
12.6251 16.181
12.6403 16.027
12.6555 15.882
12.6707 15.658
12.6858 15.524
12.7010 15.479
12.7162 15.425
12.7314 15.303
12.7465 15.175
12.7617 15.335
12.7769 15.502
12.7921 15.166
12.8072 14.997
12.8224 15.067
12.8376 14.914
12.8528 14.836
12.8679 14.884
12.8831 14.801
12.8983 14.715
12.9135 14.804
12.9286 14.519
12.9438 14.357
12.9590 14.566
12.9742 14.506
12.9893 14.337
13.0045 14.081
13.0197 14.126
13.0349 14.344
13.0500 14.075
13.0652 13.836
13.0804 13.807
13.0956 13.859
13.1107 13.833
13.1259 13.689
13.1411 13.565
13.1563 13.599
13.1714 13.536
13.1866 13.419
13.2018 13.488
13.2170 13.314
13.2321 13.314
13.2473 13.476
13.2625 13.380
13.2777 13.334
13.2928 13.111
13.3080 12.962
13.3232 13.170
13.3384 13.230
13.3535 13.290
13.3687 13.220
13.3839 13.036
13.3991 12.980
13.4142 12.878
13.4294 12.972
13.4446 13.139
13.4598 12.754
13.4749 12.373
13.4901 12.435
13.5053 12.736
13.5205 12.790
13.5356 12.750
13.5508 12.610
13.5660 12.464
13.5812 12.523
13.5963 12.291
13.6115 12.170
13.6267 12.346
13.6419 12.207
13.6570 12.246
13.6722 12.234
13.6874 12.185
13.7026 12.205
13.7177 12.123
13.7329 12.128
13.7481 12.156
13.7633 12.389
13.7784 12.365
13.7936 12.136
13.8088 12.408
13.8239 12.267
13.8391 12.305
13.8543 12.355
13.8695 12.192
13.8846 12.262
13.8998 12.209
13.9150 12.090
13.9302 11.974
13.9453 11.858
13.9605 11.786
13.9757 11.687
13.9909 11.503
14.0060 11.852
14.0212 11.748
14.0364 11.551
14.0516 11.589
14.0667 11.616
14.0819 11.559
14.0971 11.516
14.1123 11.694
14.1274 11.810
14.1426 11.765
14.1578 12.063
14.1730 11.713
14.1881 11.851
14.2033 11.686
14.2185 11.545
14.2337 11.744
14.2488 11.891
14.2640 12.015
14.2792 11.803
14.2944 11.968
14.3095 12.227
14.3247 12.418
14.3399 12.431
14.3551 12.417
14.3702 12.536
14.3854 12.561
14.4006 12.755
14.4158 12.987
14.4309 12.834
14.4461 13.067
14.4613 12.598
14.4765 12.262
14.4916 12.297
14.5068 12.023
14.5220 11.592
14.5372 11.441
14.5523 11.439
14.5675 11.284
14.5827 11.191
14.5979 10.682
14.6130 10.764
14.6282 10.666
14.6434 10.790
14.6586 10.846
14.6737 10.701
14.6889 10.737
14.7041 10.791
14.7193 10.381
14.7344 10.800
14.7496 10.706
14.7648 10.739
14.7800 10.663
14.7951 10.370
14.8103 10.435
14.8255 10.584
14.8407 10.505
14.8558 10.555
14.8710 10.472
14.8862 10.407
14.9014 10.546
14.9165 10.883
14.9317 10.610
14.9469 10.425
14.9621 10.388
14.9772 10.305
14.9924 10.286
15.0076 10.318
15.0228 10.348
15.0379 10.335
15.0531 10.192
15.0683 10.168
15.0835 10.007
15.0986 9.954
15.1138 10.361
15.1290 10.020
15.1442 10.001
15.1593 10.028
15.1745 9.805
15.1897 10.049
15.2049 9.860
15.2200 10.034
15.2352 10.001
15.2504 10.062
15.2656 10.091
15.2807 9.956
15.2959 10.065
15.3111 10.289
15.3263 9.880
15.3414 10.165
15.3566 9.688
15.3718 9.901
15.3870 9.965
15.4021 10.220
15.4173 10.068
15.4325 10.413
15.4477 9.842
15.4628 10.072
15.4780 9.995
15.4932 9.938
15.5084 9.990
15.5235 9.949
15.5387 9.781
15.5539 9.896
15.5691 9.674
15.5842 9.738
15.5994 9.875
15.6146 9.892
15.6298 9.898
15.6449 9.815
15.6601 9.749
15.6753 9.690
15.6905 9.539
15.7056 9.702
15.7208 9.971
15.7360 9.719
15.7512 9.641
15.7663 9.718
15.7815 9.540
15.7967 9.781
15.8119 9.973
15.8270 9.834
15.8422 9.769
15.8574 9.795
15.8726 9.337
15.8877 9.546
15.9029 9.550
15.9181 9.660
15.9333 9.514
15.9484 9.638
15.9636 9.704
15.9788 9.759
15.9940 9.663
16.0091 9.474
16.0243 9.635
16.0395 9.594
16.0547 9.666
16.0698 9.549
16.0850 9.690
16.1002 9.329
16.1154 9.378
16.1305 9.361
16.1457 9.466
16.1609 9.456
16.1761 9.539
16.1912 9.331
16.2064 9.533
16.2216 9.945
16.2368 9.834
16.2519 9.787
16.2671 9.912
16.2823 9.691
16.2975 9.815
16.3126 9.718
16.3278 9.609
16.3430 9.652
16.3582 9.795
16.3733 9.863
16.3885 9.733
16.4037 9.672
16.4189 9.537
16.4340 9.637
16.4492 9.584
16.4644 9.567
16.4796 9.569
16.4947 9.765
16.5099 9.754
16.5251 9.514
16.5403 9.472
16.5554 9.565
16.5706 9.532
16.5858 9.298
16.6010 9.436
16.6161 9.612
16.6313 9.590
16.6465 9.589
16.6617 9.773
16.6768 9.707
16.6920 9.759
16.7072 9.832
16.7224 9.948
16.7375 9.945
16.7527 9.960
16.7679 9.883
16.7831 9.964
16.7982 10.126
16.8134 10.012
16.8286 9.695
16.8438 9.741
16.8589 9.928
16.8741 9.924
16.8893 9.707
16.9045 9.764
16.9196 9.767
16.9348 9.689
16.9500 9.908
16.9652 10.065
16.9803 10.083
16.9955 10.284
17.0107 10.236
17.0259 10.103
17.0410 10.073
17.0562 10.109
17.0714 10.378
17.0866 10.457
17.1017 10.524
17.1169 10.696
17.1321 10.859
17.1473 11.261
17.1624 11.789
17.1776 12.418
17.1928 13.014
17.2080 13.909
17.2231 15.150
17.2383 16.232
17.2535 17.513
17.2687 18.659
17.2838 18.775
17.2990 17.932
17.3142 16.994
17.3294 16.306
17.3445 15.977
17.3597 16.269
17.3749 16.362
17.3901 15.643
17.4052 14.591
17.4204 13.238
17.4356 12.395
17.4508 12.057
17.4659 11.584
17.4811 11.452
17.4963 11.349
17.5115 11.176
17.5266 11.011
17.5418 10.976
17.5570 11.085
17.5722 11.001
17.5873 11.018
17.6025 11.336
17.6177 11.349
17.6329 11.256
17.6480 11.311
17.6632 11.359
17.6784 11.593
17.6936 11.680
17.7087 11.486
17.7239 11.333
17.7391 11.121
17.7543 11.015
17.7694 10.903
17.7846 10.735
17.7998 10.831
17.8150 10.713
17.8301 10.475
17.8453 10.418
17.8605 10.365
17.8757 10.464
17.8908 10.261
17.9060 10.192
17.9212 10.438
17.9364 10.093
17.9515 9.953
17.9667 10.111
17.9819 10.237
17.9971 10.351
18.0122 10.300
18.0274 10.257
18.0426 10.212
18.0578 10.080
18.0729 10.115
18.0881 10.043
18.1033 9.982
18.1185 9.956
18.1336 9.994
18.1488 9.788
18.1640 9.797
18.1792 9.824
18.1943 9.823
18.2095 9.860
18.2247 9.866
18.2399 9.796
18.2550 10.039
18.2702 10.145
18.2854 9.978
18.3006 10.041
18.3157 9.983
18.3309 9.772
18.3461 10.018
18.3613 10.062
18.3764 9.877
18.3916 9.817
18.4068 9.822
18.4220 9.890
18.4371 9.802
18.4523 9.922
18.4675 10.005
18.4827 9.792
18.4978 9.580
18.5130 9.702
18.5282 9.838
18.5434 9.885
18.5585 9.699
18.5737 9.836
18.5889 9.609
18.6041 9.643
18.6192 9.730
18.6344 9.639
18.6496 9.849
18.6648 9.753
18.6799 9.532
18.6951 9.694
18.7103 9.688
18.7255 9.603
18.7406 9.667
18.7558 9.917
18.7710 9.840
18.7862 9.882
18.8013 9.803
18.8165 9.734
18.8317 9.910
18.8469 9.956
18.8620 9.897
18.8772 10.089
18.8924 10.234
18.9076 9.969
18.9227 9.888
18.9379 9.976
18.9531 10.013
18.9683 10.044
18.9834 10.104
18.9986 9.981
19.0138 9.958
19.0290 10.006
19.0441 10.119
19.0593 10.147
19.0745 10.057
19.0897 10.135
19.1048 10.384
19.1200 10.537
19.1352 10.378
19.1504 10.376
19.1655 10.270
19.1807 10.448
19.1959 10.583
19.2111 10.555
19.2262 10.618
19.2414 10.634
19.2566 10.690
19.2718 11.088
19.2869 11.182
19.3021 11.072
19.3173 10.926
19.3325 10.926
19.3476 11.158
19.3628 11.202
19.3780 11.068
19.3932 11.074
19.4083 11.235
19.4235 11.269
19.4387 11.186
19.4539 11.280
19.4690 11.264
19.4842 11.492
19.4994 11.619
19.5146 11.738
19.5297 11.671
19.5449 11.575
19.5601 11.660
19.5753 11.558
19.5904 11.650
19.6056 12.014
19.6208 11.842
19.6360 11.621
19.6511 11.751
19.6663 11.934
19.6815 11.819
19.6967 11.710
19.7118 11.869
19.7270 11.967
19.7422 11.919
19.7574 11.896
19.7725 12.066
19.7877 12.149
19.8029 12.113
19.8180 11.934
19.8332 12.139
19.8484 12.251
19.8636 12.384
19.8787 12.805
19.8939 13.007
19.9091 13.110
19.9243 13.264
19.9394 13.672
19.9546 14.218
19.9698 14.588
19.9850 14.649
20.0001 14.334
20.0153 14.071
20.0305 14.095
20.0457 14.104
20.0608 13.885
20.0760 13.990
20.0912 13.764
20.1064 13.429
20.1215 13.241
20.1367 13.152
20.1519 13.190
20.1671 12.890
20.1822 12.864
20.1974 12.805
20.2126 12.876
20.2278 12.662
20.2429 12.451
20.2581 12.328
20.2733 12.187
20.2885 12.041
20.3036 11.946
20.3188 12.189
20.3340 12.399
20.3492 12.319
20.3643 11.876
20.3795 11.791
20.3947 11.722
20.4099 11.825
20.4250 11.839
20.4402 11.587
20.4554 11.898
20.4706 11.863
20.4857 11.771
20.5009 11.543
20.5161 11.458
20.5313 11.570
20.5464 11.232
20.5616 11.280
20.5768 10.933
20.5920 11.143
20.6071 11.178
20.6223 11.037
20.6375 10.858
20.6527 10.732
20.6678 10.597
20.6830 11.025
20.6982 10.889
20.7134 10.624
20.7285 10.610
20.7437 10.819
20.7589 10.582
20.7741 10.425
20.7892 10.477
20.8044 10.445
20.8196 10.404
20.8348 10.403
20.8499 10.369
20.8651 10.331
20.8803 10.471
20.8955 10.181
20.9106 10.165
20.9258 10.237
20.9410 10.400
20.9562 10.260
20.9713 10.310
20.9865 10.275
21.0017 9.987
21.0169 10.245
21.0320 10.149
21.0472 10.119
21.0624 10.067
21.0776 9.703
21.0927 9.706
21.1079 9.662
21.1231 9.898
21.1383 9.767
21.1534 9.593
21.1686 9.587
21.1838 9.774
21.1990 9.555
21.2141 9.671
21.2293 9.714
21.2445 9.768
21.2597 9.728
21.2748 9.939
21.2900 9.747
21.3052 9.720
21.3204 9.508
21.3355 9.738
21.3507 9.640
21.3659 9.227
21.3811 9.712
21.3962 9.705
21.4114 9.525
21.4266 9.816
21.4418 9.667
21.4569 9.775
21.4721 9.299
21.4873 9.347
21.5025 9.375
21.5176 9.523
21.5328 9.403
21.5480 9.185
21.5632 9.370
21.5783 9.243
21.5935 9.173
21.6087 9.352
21.6239 9.227
21.6390 9.252
21.6542 9.186
21.6694 9.101
21.6846 9.141
21.6997 9.301
21.7149 9.356
21.7301 9.174
21.7453 9.125
21.7604 9.084
21.7756 8.977
21.7908 9.009
21.8060 9.045
21.8211 9.111
21.8363 9.052
21.8515 9.156
21.8667 9.146
21.8818 9.117
21.8970 9.233
21.9122 8.883
21.9274 8.771
21.9425 8.937
21.9577 9.090
21.9729 9.075
21.9881 8.989
22.0032 8.967
22.0184 8.581
22.0336 8.631
22.0488 8.852
22.0639 8.801
22.0791 8.769
22.0943 8.877
22.1095 8.578
22.1246 8.536
22.1398 8.758
22.1550 8.662
22.1702 8.680
22.1853 8.690
22.2005 8.715
22.2157 8.601
22.2309 8.653
22.2460 8.470
22.2612 8.677
22.2764 8.720
22.2916 8.600
22.3067 8.459
22.3219 8.569
22.3371 8.605
22.3523 8.336
22.3674 8.301
22.3826 8.211
22.3978 8.303
22.4130 8.525
22.4281 8.476
22.4433 8.509
22.4585 8.602
22.4737 8.474
22.4888 8.628
22.5040 8.348
22.5192 8.525
22.5344 8.354
22.5495 8.635
22.5647 8.463
22.5799 8.320
22.5951 8.469
22.6102 8.608
22.6254 8.464
22.6406 8.556
22.6558 8.419
22.6709 8.177
22.6861 8.721
22.7013 8.444
22.7165 7.931
22.7316 6.604
