'Id: "" Comment: "" Operator: "Lab Manager" Anode: "Mo" Scantype: "Still (Eiger2R_500K (1D mode))" TimePerStep: "300" X: "11.8" Y: "9.4" Z: "11.284" 
7.2532 19.762
7.2684 18.712
7.2836 19.457
7.2987 19.228
7.3139 19.394
7.3291 19.429
7.3443 19.451
7.3594 19.314
7.3746 19.888
7.3898 19.927
7.4050 19.124
7.4201 19.191
7.4353 19.600
7.4505 19.622
7.4657 19.449
7.4808 19.755
7.4960 19.729
7.5112 19.817
7.5264 19.803
7.5415 19.904
7.5567 20.029
7.5719 19.710
7.5871 19.897
7.6022 19.979
7.6174 19.968
7.6326 19.804
7.6478 19.893
7.6629 20.214
7.6781 20.388
7.6933 20.467
7.7085 20.404
7.7236 20.436
7.7388 20.516
7.7540 20.253
7.7692 20.150
7.7843 20.341
7.7995 20.593
7.8147 20.695
7.8299 20.692
7.8450 20.546
7.8602 20.351
7.8754 20.484
7.8905 20.866
7.9057 21.067
7.9209 20.898
7.9361 20.991
7.9512 21.101
7.9664 21.264
7.9816 21.212
7.9968 21.176
8.0119 21.209
8.0271 21.313
8.0423 21.405
8.0575 21.505
8.0726 21.565
8.0878 21.434
8.1030 21.024
8.1182 21.345
8.1333 21.496
8.1485 21.496
8.1637 21.520
8.1789 21.720
8.1940 21.873
8.2092 21.626
8.2244 21.664
8.2396 21.523
8.2547 21.840
8.2699 21.811
8.2851 22.031
8.3003 21.662
8.3154 21.421
8.3306 21.783
8.3458 22.177
8.3610 21.664
8.3761 21.736
8.3913 22.044
8.4065 22.140
8.4217 22.223
8.4368 22.265
8.4520 21.650
8.4672 22.081
8.4824 21.762
8.4975 21.852
8.5127 21.483
8.5279 21.515
8.5431 22.196
8.5582 22.081
8.5734 21.685
8.5886 22.134
8.6038 22.341
8.6189 22.198
8.6341 22.256
8.6493 22.822
8.6645 22.813
8.6796 22.532
8.6948 22.377
8.7100 22.185
8.7252 22.489
8.7403 22.025
8.7555 22.490
8.7707 22.227
8.7859 22.747
8.8010 22.162
8.8162 22.495
8.8314 22.429
8.8466 23.154
8.8617 22.731
8.8769 22.365
8.8921 22.642
8.9073 22.467
8.9224 22.637
8.9376 22.724
8.9528 22.730
8.9680 22.842
8.9831 23.159
8.9983 22.724
9.0135 23.012
9.0287 22.600
9.0438 22.862
9.0590 22.953
9.0742 23.001
9.0894 22.879
9.1045 22.625
9.1197 22.741
9.1349 22.479
9.1501 22.687
9.1652 22.829
9.1804 23.069
9.1956 22.721
9.2108 22.762
9.2259 23.105
9.2411 23.257
9.2563 23.561
9.2715 23.246
9.2866 22.905
9.3018 22.913
9.3170 22.956
9.3322 22.859
9.3473 23.331
9.3625 23.325
9.3777 22.945
9.3929 22.886
9.4080 23.282
9.4232 23.235
9.4384 23.349
9.4536 23.236
9.4687 22.862
9.4839 23.112
9.4991 23.218
9.5143 23.268
9.5294 23.206
9.5446 23.648
9.5598 23.523
9.5750 23.263
9.5901 23.401
9.6053 23.376
9.6205 23.152
9.6357 23.182
9.6508 23.371
9.6660 23.361
9.6812 23.514
9.6964 23.867
9.7115 24.077
9.7267 24.338
9.7419 24.299
9.7571 24.307
9.7722 24.379
9.7874 24.465
9.8026 24.252
9.8178 23.964
9.8329 24.186
9.8481 24.028
9.8633 23.541
9.8785 23.811
9.8936 24.445
9.9088 24.546
9.9240 24.084
9.9392 23.799
9.9543 23.838
9.9695 23.822
9.9847 24.071
9.9999 24.063
10.0150 23.621
10.0302 23.664
10.0454 23.477
10.0606 23.090
10.0757 23.389
10.0909 23.364
10.1061 23.393
10.1213 23.397
10.1364 23.369
10.1516 23.495
10.1668 23.392
10.1820 23.447
10.1971 23.426
10.2123 23.758
10.2275 23.844
10.2427 23.656
10.2578 23.547
10.2730 23.391
10.2882 23.543
10.3034 23.635
10.3185 23.438
10.3337 23.132
10.3489 23.142
10.3641 23.424
10.3792 23.233
10.3944 23.179
10.4096 23.578
10.4248 23.644
10.4399 23.256
10.4551 23.134
10.4703 23.146
10.4855 23.156
10.5006 23.140
10.5158 22.658
10.5310 22.322
10.5462 22.781
10.5613 22.592
10.5765 22.600
10.5917 22.514
10.6069 22.852
10.6220 22.941
10.6372 22.929
10.6524 22.572
10.6676 22.814
10.6827 22.708
10.6979 22.696
10.7131 23.214
10.7283 23.065
10.7434 22.773
10.7586 22.678
10.7738 22.348
10.7890 22.643
10.8041 22.464
10.8193 21.766
10.8345 22.039
10.8497 22.301
10.8648 22.367
10.8800 22.358
10.8952 22.577
10.9104 22.208
10.9255 22.035
10.9407 22.081
10.9559 21.829
10.9711 22.019
10.9862 22.072
11.0014 22.007
11.0166 22.011
11.0318 22.034
11.0469 22.073
11.0621 22.462
11.0773 22.124
11.0925 21.745
11.1076 21.728
11.1228 21.518
11.1380 21.752
11.1532 21.591
11.1683 21.727
11.1835 22.021
11.1987 21.947
11.2139 21.672
11.2290 21.548
11.2442 21.411
11.2594 21.343
11.2746 21.708
11.2897 21.562
11.3049 21.506
11.3201 21.789
11.3353 21.541
11.3504 21.351
11.3656 21.448
11.3808 21.226
11.3960 21.332
11.4111 21.194
11.4263 21.312
11.4415 21.258
11.4567 21.094
11.4718 21.598
11.4870 21.329
11.5022 21.122
11.5174 21.186
11.5325 21.290
11.5477 21.475
11.5629 21.211
11.5781 21.342
11.5932 20.989
11.6084 21.029
11.6236 21.013
11.6388 21.140
11.6539 20.675
11.6691 20.939
11.6843 20.746
11.6995 20.488
11.7146 20.556
11.7298 20.645
11.7450 20.494
11.7602 20.474
11.7753 20.630
11.7905 20.425
11.8057 19.993
11.8209 20.007
11.8360 20.359
11.8512 20.284
11.8664 20.259
11.8816 19.865
11.8967 19.601
11.9119 19.712
11.9271 19.484
11.9423 19.158
11.9574 19.216
11.9726 19.267
11.9878 19.204
12.0030 19.617
12.0181 19.211
12.0333 18.870
12.0485 19.155
12.0637 18.913
12.0788 18.638
12.0940 18.677
12.1092 18.557
12.1244 18.876
12.1395 18.583
12.1547 18.391
12.1699 18.574
12.1851 18.219
12.2002 18.175
12.2154 18.212
12.2306 18.191
12.2458 18.056
12.2609 17.773
12.2761 17.762
12.2913 17.611
12.3065 17.620
12.3216 17.498
12.3368 17.434
12.3520 17.404
12.3672 17.571
12.3823 17.464
12.3975 17.197
12.4127 16.885
12.4279 16.671
12.4430 16.826
12.4582 16.729
12.4734 16.408
12.4886 16.767
12.5037 16.620
12.5189 16.554
12.5341 16.470
12.5493 16.315
12.5644 16.321
12.5796 16.240
12.5948 16.306
12.6100 16.244
12.6251 16.086
12.6403 15.979
12.6555 16.121
12.6707 15.897
12.6858 15.641
12.7010 15.806
12.7162 15.489
12.7314 15.277
12.7465 15.150
12.7617 15.292
12.7769 15.202
12.7921 14.938
12.8072 14.881
12.8224 15.054
12.8376 14.900
12.8528 14.527
12.8679 14.515
12.8831 14.572
12.8983 14.656
12.9135 14.644
12.9286 14.663
12.9438 14.726
12.9590 14.672
12.9742 14.461
12.9893 14.332
13.0045 14.448
13.0197 14.259
13.0349 14.249
13.0500 14.303
13.0652 13.960
13.0804 13.796
13.0956 13.638
13.1107 13.631
13.1259 13.725
13.1411 13.653
13.1563 13.734
13.1714 13.933
13.1866 13.745
13.2018 13.322
13.2170 13.417
13.2321 13.494
13.2473 13.376
13.2625 13.361
13.2777 13.187
13.2928 13.172
13.3080 13.239
13.3232 13.036
13.3384 12.959
13.3535 13.142
13.3687 13.183
13.3839 13.133
13.3991 13.053
13.4142 12.745
13.4294 12.587
13.4446 12.543
13.4598 12.466
13.4749 12.683
13.4901 12.529
13.5053 12.387
13.5205 12.291
13.5356 12.254
13.5508 12.335
13.5660 12.286
13.5812 12.209
13.5963 12.264
13.6115 12.141
13.6267 12.015
13.6419 12.086
13.6570 12.366
13.6722 12.236
13.6874 12.363
13.7026 12.072
13.7177 12.006
13.7329 12.187
13.7481 12.017
13.7633 11.918
13.7784 12.100
13.7936 12.273
13.8088 12.392
13.8239 12.188
13.8391 12.105
13.8543 12.214
13.8695 12.294
13.8846 12.319
13.8998 12.303
13.9150 12.066
13.9302 11.740
13.9453 11.898
13.9605 11.873
13.9757 11.712
13.9909 11.399
14.0060 11.397
14.0212 11.365
14.0364 11.545
14.0516 11.553
14.0667 11.309
14.0819 11.331
14.0971 11.480
14.1123 11.340
14.1274 11.279
14.1426 11.208
14.1578 11.177
14.1730 11.004
14.1881 11.424
14.2033 11.276
14.2185 11.191
14.2337 10.995
14.2488 11.650
14.2640 11.623
14.2792 11.210
14.2944 11.027
14.3095 11.269
14.3247 11.713
14.3399 11.836
14.3551 11.866
14.3702 12.305
14.3854 12.503
14.4006 13.042
14.4158 13.262
14.4309 13.368
14.4461 13.512
14.4613 13.399
14.4765 13.637
14.4916 13.152
14.5068 13.096
14.5220 13.606
14.5372 13.294
14.5523 13.327
14.5675 12.970
14.5827 12.324
14.5979 12.164
14.6130 12.334
14.6282 12.364
14.6434 12.018
14.6586 12.005
14.6737 11.815
14.6889 11.484
14.7041 11.315
14.7193 11.395
14.7344 11.531
14.7496 11.250
14.7648 11.146
14.7800 11.380
14.7951 11.317
14.8103 10.965
14.8255 11.383
14.8407 10.967
14.8558 11.235
14.8710 11.306
14.8862 10.932
14.9014 10.978
14.9165 11.075
14.9317 11.027
14.9469 10.962
14.9621 10.557
14.9772 10.559
14.9924 10.725
15.0076 10.880
15.0228 10.659
15.0379 10.951
15.0531 10.781
15.0683 10.548
15.0835 10.682
15.0986 10.526
15.1138 10.397
15.1290 10.686
15.1442 10.277
15.1593 10.533
15.1745 10.632
15.1897 10.207
15.2049 10.194
15.2200 10.637
15.2352 10.526
15.2504 10.531
15.2656 10.494
15.2807 10.507
15.2959 10.318
15.3111 10.223
15.3263 10.382
15.3414 10.221
15.3566 10.316
15.3718 10.435
15.3870 10.043
15.4021 10.330
15.4173 10.329
15.4325 10.472
15.4477 10.167
15.4628 10.512
15.4780 10.273
15.4932 10.228
15.5084 10.554
15.5235 10.723
15.5387 10.663
15.5539 10.325
15.5691 10.379
15.5842 10.235
15.5994 10.140
15.6146 10.139
15.6298 9.933
15.6449 10.408
15.6601 10.487
15.6753 10.187
15.6905 9.952
15.7056 10.060
15.7208 10.101
15.7360 10.053
15.7512 9.923
15.7663 9.905
15.7815 9.798
15.7967 10.092
15.8119 9.870
15.8270 9.953
15.8422 10.013
15.8574 9.799
15.8726 9.971
15.8877 9.765
15.9029 9.678
15.9181 9.667
15.9333 9.678
15.9484 9.754
15.9636 9.701
15.9788 9.827
15.9940 9.889
16.0091 9.843
16.0243 9.877
16.0395 10.047
16.0547 9.775
16.0698 9.794
16.0850 9.542
16.1002 9.471
16.1154 9.580
16.1305 9.730
16.1457 9.869
16.1609 9.759
16.1761 10.036
16.1912 10.003
16.2064 9.905
16.2216 9.593
16.2368 9.752
16.2519 10.006
16.2671 10.206
16.2823 9.978
16.2975 10.136
16.3126 10.480
16.3278 10.360
16.3430 10.151
16.3582 10.243
16.3733 10.371
16.3885 10.339
16.4037 10.175
16.4189 10.187
16.4340 10.061
16.4492 9.843
16.4644 9.873
16.4796 10.013
16.4947 9.816
16.5099 9.997
16.5251 9.936
16.5403 9.715
16.5554 9.908
16.5706 10.014
16.5858 10.010
16.6010 9.767
16.6161 9.754
16.6313 9.909
16.6465 9.786
16.6617 9.692
16.6768 9.911
16.6920 10.120
16.7072 10.203
16.7224 10.261
16.7375 10.195
16.7527 10.126
16.7679 10.115
16.7831 10.101
16.7982 10.052
16.8134 10.116
16.8286 9.938
16.8438 9.955
16.8589 9.947
16.8741 9.919
16.8893 9.754
16.9045 9.815
16.9196 9.791
16.9348 9.608
16.9500 9.646
16.9652 9.657
16.9803 9.743
16.9955 10.016
17.0107 10.069
17.0259 10.149
17.0410 10.236
17.0562 10.227
17.0714 10.400
17.0866 10.624
17.1017 10.809
17.1169 11.077
17.1321 11.308
17.1473 11.568
17.1624 12.137
17.1776 12.506
17.1928 13.199
17.2080 14.234
17.2231 15.192
17.2383 16.346
17.2535 17.684
17.2687 18.370
17.2838 18.777
17.2990 18.439
17.3142 17.209
17.3294 16.378
17.3445 16.168
17.3597 16.180
17.3749 15.918
17.3901 15.315
17.4052 14.414
17.4204 13.183
17.4356 12.383
17.4508 11.958
17.4659 11.420
17.4811 11.049
17.4963 10.922
17.5115 10.830
17.5266 10.406
17.5418 10.404
17.5570 10.516
17.5722 10.316
17.5873 10.193
17.6025 10.149
17.6177 10.317
17.6329 10.359
17.6480 10.110
17.6632 10.272
17.6784 10.506
17.6936 10.345
17.7087 10.355
17.7239 10.362
17.7391 10.363
17.7543 10.754
17.7694 11.008
17.7846 11.060
17.7998 11.325
17.8150 11.929
17.8301 12.223
17.8453 12.276
17.8605 12.501
17.8757 12.715
17.8908 12.655
17.9060 12.279
17.9212 12.370
17.9364 12.255
17.9515 11.772
17.9667 11.845
17.9819 11.777
17.9971 11.537
18.0122 11.138
18.0274 10.823
18.0426 10.683
18.0578 10.534
18.0729 10.313
18.0881 10.166
18.1033 10.223
18.1185 10.294
18.1336 10.125
18.1488 9.984
18.1640 10.160
18.1792 10.202
18.1943 9.957
18.2095 10.046
18.2247 10.134
18.2399 9.994
18.2550 9.765
18.2702 9.793
18.2854 9.925
18.3006 9.818
18.3157 9.558
18.3309 9.690
18.3461 10.089
18.3613 10.103
18.3764 9.951
18.3916 9.964
18.4068 9.971
18.4220 9.959
18.4371 9.898
18.4523 9.760
18.4675 9.836
18.4827 9.807
18.4978 9.700
18.5130 9.742
18.5282 9.640
18.5434 9.706
18.5585 9.869
18.5737 9.947
18.5889 9.774
18.6041 9.687
18.6192 9.898
18.6344 9.834
18.6496 9.847
18.6648 9.839
18.6799 9.725
18.6951 9.554
18.7103 9.592
18.7255 9.674
18.7406 9.677
18.7558 9.823
18.7710 9.683
18.7862 9.753
18.8013 9.783
18.8165 9.566
18.8317 9.623
18.8469 9.828
18.8620 9.779
18.8772 9.834
18.8924 9.945
18.9076 9.919
18.9227 9.944
18.9379 10.015
18.9531 10.040
18.9683 10.183
18.9834 10.088
18.9986 10.004
19.0138 9.972
19.0290 10.082
19.0441 10.096
19.0593 10.187
19.0745 10.261
19.0897 10.299
19.1048 10.525
19.1200 10.447
19.1352 10.381
19.1504 10.562
19.1655 10.355
19.1807 10.508
19.1959 10.727
19.2111 10.910
19.2262 10.886
19.2414 10.874
19.2566 10.870
19.2718 10.835
19.2869 10.942
19.3021 11.047
19.3173 11.074
19.3325 11.070
19.3476 11.023
19.3628 11.121
19.3780 11.238
19.3932 11.316
19.4083 11.366
19.4235 11.412
19.4387 11.386
19.4539 11.323
19.4690 11.422
19.4842 11.504
19.4994 11.529
19.5146 11.407
19.5297 11.496
19.5449 11.492
19.5601 11.525
19.5753 11.501
19.5904 11.207
19.6056 11.323
19.6208 11.596
19.6360 11.698
19.6511 11.599
19.6663 11.586
19.6815 11.635
19.6967 11.515
19.7118 11.524
19.7270 11.902
19.7422 12.026
19.7574 12.006
19.7725 12.116
19.7877 12.067
19.8029 11.919
19.8180 11.880
19.8332 11.864
19.8484 11.860
19.8636 12.179
19.8787 12.426
19.8939 12.702
19.9091 13.111
19.9243 13.294
19.9394 13.577
19.9546 14.045
19.9698 14.389
19.9850 14.650
20.0001 14.713
20.0153 14.480
20.0305 14.167
20.0457 13.930
20.0608 13.809
20.0760 13.930
20.0912 13.831
20.1064 13.486
20.1215 13.289
20.1367 12.930
20.1519 12.656
20.1671 12.683
20.1822 12.555
20.1974 12.420
20.2126 12.566
20.2278 12.674
20.2429 12.685
20.2581 12.322
20.2733 11.904
20.2885 11.710
20.3036 11.606
20.3188 11.458
20.3340 11.743
20.3492 11.529
20.3643 11.400
20.3795 11.283
20.3947 10.924
20.4099 10.896
20.4250 11.025
20.4402 10.932
20.4554 10.731
20.4706 10.765
20.4857 10.700
20.5009 10.862
20.5161 10.793
20.5313 10.711
20.5464 10.787
20.5616 10.845
20.5768 10.856
20.5920 11.042
20.6071 10.972
20.6223 11.166
20.6375 11.026
20.6527 10.935
20.6678 10.947
20.6830 10.938
20.6982 10.666
20.7134 10.861
20.7285 10.614
20.7437 10.444
20.7589 10.864
20.7741 10.454
20.7892 10.492
20.8044 10.674
20.8196 10.375
20.8348 10.569
20.8499 10.664
20.8651 10.587
20.8803 10.698
20.8955 10.622
20.9106 10.715
20.9258 10.696
20.9410 10.779
20.9562 10.497
20.9713 10.463
20.9865 10.534
21.0017 10.641
21.0169 10.642
21.0320 10.355
21.0472 10.450
21.0624 10.753
21.0776 10.488
21.0927 10.163
21.1079 10.291
21.1231 10.235
21.1383 10.320
21.1534 9.480
21.1686 9.742
21.1838 9.822
21.1990 9.993
21.2141 9.912
21.2293 9.783
21.2445 10.157
21.2597 9.706
21.2748 9.465
21.2900 9.708
21.3052 9.372
21.3204 9.552
21.3355 9.372
21.3507 9.633
21.3659 9.379
21.3811 9.489
21.3962 9.481
21.4114 9.373
21.4266 9.375
21.4418 9.615
21.4569 9.679
21.4721 9.562
21.4873 9.377
21.5025 9.122
21.5176 9.484
21.5328 9.517
21.5480 9.417
21.5632 9.262
21.5783 9.121
21.5935 9.058
21.6087 8.967
21.6239 9.096
21.6390 8.975
21.6542 8.997
21.6694 9.072
21.6846 9.064
21.6997 9.049
21.7149 9.066
21.7301 8.781
21.7453 8.990
21.7604 8.975
21.7756 9.007
21.7908 9.005
21.8060 9.060
21.8211 9.037
21.8363 9.116
21.8515 9.262
21.8667 8.987
21.8818 8.881
21.8970 9.076
21.9122 9.022
21.9274 8.836
21.9425 8.568
21.9577 8.763
21.9729 8.960
21.9881 8.654
22.0032 8.731
22.0184 8.715
22.0336 8.657
22.0488 8.797
22.0639 8.840
22.0791 8.728
22.0943 8.551
22.1095 8.376
22.1246 8.427
22.1398 8.585
22.1550 8.775
22.1702 8.654
22.1853 8.377
22.2005 8.325
22.2157 8.551
22.2309 8.570
22.2460 8.499
22.2612 8.362
22.2764 8.367
22.2916 8.500
22.3067 8.412
22.3219 8.348
22.3371 8.242
22.3523 8.448
22.3674 8.393
22.3826 8.381
22.3978 8.398
22.4130 8.530
22.4281 8.477
22.4433 8.478
22.4585 8.254
22.4737 8.645
22.4888 8.651
22.5040 8.002
22.5192 8.283
22.5344 8.383
22.5495 8.245
22.5647 8.621
22.5799 8.588
22.5951 8.425
22.6102 8.398
22.6254 8.561
22.6406 8.296
22.6558 8.382
22.6709 8.326
22.6861 8.477
22.7013 8.187
22.7165 7.828
22.7316 6.339
