'Id: "" Comment: "" Operator: "Lab Manager" Anode: "Mo" Scantype: "Still (Eiger2R_500K (1D mode))" TimePerStep: "300" X: "11.8" Y: "9.4" Z: "11.284" 
7.2532 18.988
7.2684 19.197
7.2836 18.761
7.2987 18.924
7.3139 19.110
7.3291 18.905
7.3443 18.905
7.3594 18.775
7.3746 19.162
7.3898 19.141
7.4050 19.428
7.4201 19.404
7.4353 19.305
7.4505 19.067
7.4657 19.680
7.4808 19.797
7.4960 19.851
7.5112 19.894
7.5264 19.570
7.5415 19.638
7.5567 19.561
7.5719 19.822
7.5871 19.922
7.6022 20.305
7.6174 20.287
7.6326 20.157
7.6478 20.039
7.6629 20.022
7.6781 20.317
7.6933 20.539
7.7085 20.409
7.7236 20.345
7.7388 20.763
7.7540 21.084
7.7692 20.733
7.7843 20.693
7.7995 20.673
7.8147 20.479
7.8299 20.650
7.8450 20.945
7.8602 20.955
7.8754 20.968
7.8905 21.032
7.9057 21.079
7.9209 21.299
7.9361 21.089
7.9512 21.078
7.9664 20.978
7.9816 21.120
7.9968 21.301
8.0119 21.118
8.0271 20.859
8.0423 21.034
8.0575 20.988
8.0726 21.190
8.0878 21.554
8.1030 21.132
8.1182 20.987
8.1333 21.382
8.1485 21.298
8.1637 21.200
8.1789 21.503
8.1940 21.379
8.2092 21.416
8.2244 21.530
8.2396 21.500
8.2547 20.965
8.2699 21.028
8.2851 21.856
8.3003 21.877
8.3154 21.795
8.3306 21.912
8.3458 21.482
8.3610 21.551
8.3761 21.748
8.3913 21.947
8.4065 21.515
8.4217 22.474
8.4368 21.959
8.4520 22.068
8.4672 22.178
8.4824 22.178
8.4975 22.039
8.5127 22.144
8.5279 22.230
8.5431 22.576
8.5582 22.168
8.5734 21.951
8.5886 22.138
8.6038 22.570
8.6189 22.348
8.6341 22.561
8.6493 22.771
8.6645 22.689
8.6796 22.710
8.6948 22.329
8.7100 23.037
8.7252 22.981
8.7403 22.710
8.7555 22.716
8.7707 22.497
8.7859 22.889
8.8010 22.717
8.8162 22.412
8.8314 22.790
8.8466 22.939
8.8617 22.399
8.8769 22.192
8.8921 22.429
8.9073 22.484
8.9224 23.003
8.9376 22.830
8.9528 22.662
8.9680 22.878
8.9831 22.577
8.9983 22.666
9.0135 22.475
9.0287 22.693
9.0438 22.827
9.0590 22.831
9.0742 22.326
9.0894 22.458
9.1045 22.553
9.1197 22.628
9.1349 22.553
9.1501 23.188
9.1652 22.868
9.1804 22.835
9.1956 23.027
9.2108 22.887
9.2259 22.906
9.2411 22.887
9.2563 22.844
9.2715 22.840
9.2866 22.875
9.3018 22.565
9.3170 22.628
9.3322 22.655
9.3473 22.831
9.3625 23.077
9.3777 23.230
9.3929 23.518
9.4080 23.325
9.4232 22.906
9.4384 23.048
9.4536 22.981
9.4687 23.377
9.4839 23.458
9.4991 23.415
9.5143 23.244
9.5294 23.185
9.5446 23.136
9.5598 23.272
9.5750 23.125
9.5901 22.948
9.6053 22.994
9.6205 23.172
9.6357 23.154
9.6508 23.427
9.6660 23.565
9.6812 23.694
9.6964 23.817
9.7115 23.859
9.7267 23.952
9.7419 24.186
9.7571 24.198
9.7722 24.190
9.7874 24.106
9.8026 23.622
9.8178 23.505
9.8329 23.669
9.8481 23.543
9.8633 23.266
9.8785 23.265
9.8936 23.327
9.9088 23.291
9.9240 23.240
9.9392 23.358
9.9543 23.394
9.9695 23.426
9.9847 23.619
9.9999 23.614
10.0150 23.552
10.0302 23.770
10.0454 23.631
10.0606 23.131
10.0757 23.208
10.0909 23.434
10.1061 23.708
10.1213 23.537
10.1364 23.672
10.1516 23.915
10.1668 23.824
10.1820 23.634
10.1971 23.599
10.2123 23.759
10.2275 24.068
10.2427 24.322
10.2578 24.066
10.2730 23.847
10.2882 23.766
10.3034 23.527
10.3185 23.448
10.3337 23.192
10.3489 22.918
10.3641 23.115
10.3792 22.792
10.3944 22.745
10.4096 22.834
10.4248 22.885
10.4399 22.867
10.4551 22.792
10.4703 22.887
10.4855 22.616
10.5006 22.535
10.5158 22.695
10.5310 22.659
10.5462 23.183
10.5613 22.915
10.5765 22.320
10.5917 22.737
10.6069 22.808
10.6220 22.647
10.6372 22.982
10.6524 22.485
10.6676 22.639
10.6827 22.610
10.6979 22.466
10.7131 22.578
10.7283 22.326
10.7434 22.704
10.7586 22.775
10.7738 22.326
10.7890 22.392
10.8041 22.511
10.8193 22.329
10.8345 22.163
10.8497 22.113
10.8648 22.248
10.8800 21.968
10.8952 22.282
10.9104 22.459
10.9255 22.213
10.9407 22.211
10.9559 21.743
10.9711 21.912
10.9862 22.371
11.0014 22.225
11.0166 22.407
11.0318 22.248
11.0469 22.315
11.0621 22.131
11.0773 22.274
11.0925 22.133
11.1076 21.762
11.1228 22.085
11.1380 22.191
11.1532 22.116
11.1683 21.851
11.1835 22.020
11.1987 21.960
11.2139 21.831
11.2290 21.675
11.2442 21.970
11.2594 22.099
11.2746 21.778
11.2897 21.830
11.3049 22.111
11.3201 22.015
11.3353 21.660
11.3504 21.497
11.3656 21.667
11.3808 21.411
11.3960 21.474
11.4111 21.647
11.4263 21.408
11.4415 21.151
11.4567 21.084
11.4718 21.282
11.4870 21.319
11.5022 21.005
11.5174 21.086
11.5325 20.922
11.5477 20.763
11.5629 20.994
11.5781 20.759
11.5932 21.038
11.6084 20.689
11.6236 20.678
11.6388 20.269
11.6539 20.444
11.6691 20.984
11.6843 20.854
11.6995 20.314
11.7146 20.354
11.7298 20.434
11.7450 20.331
11.7602 20.585
11.7753 20.579
11.7905 20.430
11.8057 20.357
11.8209 20.154
11.8360 20.235
11.8512 20.065
11.8664 20.110
11.8816 19.733
11.8967 19.781
11.9119 19.733
11.9271 19.900
11.9423 19.628
11.9574 19.592
11.9726 19.510
11.9878 19.282
12.0030 19.108
12.0181 19.255
12.0333 19.365
12.0485 19.302
12.0637 19.168
12.0788 18.813
12.0940 18.891
12.1092 18.723
12.1244 18.454
12.1395 18.655
12.1547 18.644
12.1699 18.274
12.1851 18.433
12.2002 18.628
12.2154 18.393
12.2306 18.053
12.2458 17.871
12.2609 18.102
12.2761 18.037
12.2913 18.117
12.3065 18.181
12.3216 18.435
12.3368 17.837
12.3520 17.427
12.3672 17.529
12.3823 17.330
12.3975 17.162
12.4127 17.124
12.4279 17.150
12.4430 17.221
12.4582 16.970
12.4734 16.939
12.4886 16.794
12.5037 16.953
12.5189 16.899
12.5341 16.510
12.5493 16.345
12.5644 16.386
12.5796 16.242
12.5948 16.204
12.6100 16.393
12.6251 16.075
12.6403 16.068
12.6555 15.824
12.6707 15.750
12.6858 15.824
12.7010 15.757
12.7162 15.628
12.7314 15.686
12.7465 15.322
12.7617 15.403
12.7769 15.616
12.7921 15.387
12.8072 15.508
12.8224 15.417
12.8376 15.245
12.8528 15.175
12.8679 15.072
12.8831 14.884
12.8983 14.989
12.9135 14.941
12.9286 14.758
12.9438 14.661
12.9590 14.238
12.9742 14.245
12.9893 14.646
13.0045 14.597
13.0197 14.476
13.0349 14.441
13.0500 14.228
13.0652 14.258
13.0804 14.225
13.0956 14.222
13.1107 14.224
13.1259 14.007
13.1411 14.047
13.1563 13.941
13.1714 13.849
13.1866 13.780
13.2018 13.527
13.2170 13.432
13.2321 13.240
13.2473 13.208
13.2625 13.218
13.2777 13.296
13.2928 13.339
13.3080 13.145
13.3232 13.306
13.3384 13.419
13.3535 13.187
13.3687 12.964
13.3839 13.062
13.3991 13.101
13.4142 12.950
13.4294 12.806
13.4446 13.040
13.4598 12.982
13.4749 12.834
13.4901 12.951
13.5053 12.594
13.5205 12.254
13.5356 12.325
13.5508 12.510
13.5660 12.588
13.5812 12.734
13.5963 12.653
13.6115 12.385
13.6267 12.152
13.6419 12.232
13.6570 12.421
13.6722 12.342
13.6874 12.143
13.7026 12.164
13.7177 12.154
13.7329 12.167
13.7481 12.231
13.7633 12.049
13.7784 12.019
13.7936 12.372
13.8088 12.454
13.8239 12.277
13.8391 12.519
13.8543 12.589
13.8695 12.297
13.8846 12.312
13.8998 12.283
13.9150 12.100
13.9302 12.096
13.9453 12.164
13.9605 12.049
13.9757 11.868
13.9909 11.665
14.0060 11.599
14.0212 11.610
14.0364 11.541
14.0516 11.441
14.0667 11.390
14.0819 11.254
14.0971 11.248
14.1123 11.560
14.1274 11.161
14.1426 11.368
14.1578 11.564
14.1730 11.981
14.1881 12.100
14.2033 11.690
14.2185 11.897
14.2337 11.909
14.2488 11.887
14.2640 11.968
14.2792 11.863
14.2944 11.783
14.3095 11.994
14.3247 12.309
14.3399 12.393
14.3551 12.725
14.3702 12.930
14.3854 12.762
14.4006 13.100
14.4158 12.657
14.4309 12.528
14.4461 12.402
14.4613 12.304
14.4765 12.408
14.4916 11.673
14.5068 11.822
14.5220 11.850
14.5372 11.455
14.5523 11.389
14.5675 11.394
14.5827 11.197
14.5979 11.495
14.6130 11.285
14.6282 11.210
14.6434 10.798
14.6586 11.103
14.6737 11.194
14.6889 11.236
14.7041 10.814
14.7193 10.965
14.7344 10.901
14.7496 10.595
14.7648 10.625
14.7800 10.538
14.7951 10.833
14.8103 11.053
14.8255 10.978
14.8407 10.884
14.8558 10.593
14.8710 10.654
14.8862 10.676
14.9014 10.627
14.9165 11.014
14.9317 10.926
14.9469 10.600
14.9621 10.649
14.9772 10.348
14.9924 10.448
15.0076 10.507
15.0228 10.658
15.0379 10.350
15.0531 10.356
15.0683 10.757
15.0835 10.409
15.0986 10.502
15.1138 10.837
15.1290 10.878
15.1442 10.601
15.1593 10.459
15.1745 10.397
15.1897 10.381
15.2049 10.088
15.2200 10.395
15.2352 10.531
15.2504 10.329
15.2656 10.129
15.2807 10.367
15.2959 10.262
15.3111 10.482
15.3263 10.522
15.3414 10.146
15.3566 10.312
15.3718 10.271
15.3870 10.420
15.4021 10.373
15.4173 10.409
15.4325 10.513
15.4477 10.504
15.4628 10.492
15.4780 10.341
15.4932 10.507
15.5084 10.218
15.5235 10.544
15.5387 10.549
15.5539 10.438
15.5691 10.484
15.5842 10.079
15.5994 10.365
15.6146 10.129
15.6298 10.031
15.6449 10.185
15.6601 9.839
15.6753 9.942
15.6905 10.042
15.7056 9.968
15.7208 9.930
15.7360 9.842
15.7512 9.787
15.7663 9.929
15.7815 9.906
15.7967 9.927
15.8119 10.073
15.8270 9.881
15.8422 9.686
15.8574 9.900
15.8726 9.976
15.8877 10.024
15.9029 9.720
15.9181 10.065
15.9333 9.906
15.9484 9.778
15.9636 9.850
15.9788 9.713
15.9940 9.872
16.0091 9.807
16.0243 9.603
16.0395 9.769
16.0547 9.643
16.0698 9.737
16.0850 9.973
16.1002 9.960
16.1154 9.630
16.1305 9.584
16.1457 9.729
16.1609 9.805
16.1761 9.938
16.1912 9.576
16.2064 9.903
16.2216 9.977
16.2368 9.930
16.2519 9.864
16.2671 9.546
16.2823 9.635
16.2975 9.887
16.3126 10.124
16.3278 9.954
16.3430 9.835
16.3582 9.894
16.3733 10.217
16.3885 10.227
16.4037 10.254
16.4189 10.169
16.4340 10.122
16.4492 10.096
16.4644 9.979
16.4796 9.924
16.4947 9.864
16.5099 9.517
16.5251 9.445
16.5403 9.792
16.5554 9.947
16.5706 9.718
16.5858 9.656
16.6010 9.598
16.6161 9.985
16.6313 9.995
16.6465 9.787
16.6617 9.499
16.6768 9.661
16.6920 9.936
16.7072 9.984
16.7224 9.983
16.7375 10.089
16.7527 10.213
16.7679 10.148
16.7831 10.051
16.7982 9.965
16.8134 9.969
16.8286 10.132
16.8438 9.768
16.8589 9.766
16.8741 9.758
16.8893 9.649
16.9045 9.782
16.9196 9.708
16.9348 9.783
16.9500 10.079
16.9652 9.956
16.9803 9.760
16.9955 9.656
17.0107 9.878
17.0259 10.106
17.0410 10.102
17.0562 9.905
17.0714 10.037
17.0866 10.447
17.1017 10.754
17.1169 10.882
17.1321 11.144
17.1473 11.541
17.1624 11.729
17.1776 12.150
17.1928 12.985
17.2080 13.976
17.2231 15.099
17.2383 16.393
17.2535 17.680
17.2687 18.567
17.2838 18.729
17.2990 18.128
17.3142 16.838
17.3294 16.108
17.3445 16.176
17.3597 16.272
17.3749 15.938
17.3901 15.081
17.4052 14.297
17.4204 13.242
17.4356 12.377
17.4508 12.084
17.4659 11.778
17.4811 11.581
17.4963 11.321
17.5115 11.255
17.5266 11.214
17.5418 11.108
17.5570 11.369
17.5722 11.537
17.5873 11.539
17.6025 11.280
17.6177 11.170
17.6329 11.087
17.6480 10.923
17.6632 10.866
17.6784 10.799
17.6936 10.916
17.7087 10.853
17.7239 10.639
17.7391 10.492
17.7543 10.326
17.7694 10.015
17.7846 10.193
17.7998 10.424
17.8150 10.122
17.8301 10.064
17.8453 9.956
17.8605 9.916
17.8757 10.172
17.8908 10.473
17.9060 10.539
17.9212 10.528
17.9364 10.544
17.9515 10.298
17.9667 10.131
17.9819 10.153
17.9971 10.209
18.0122 10.173
18.0274 10.370
18.0426 10.408
18.0578 10.236
18.0729 10.099
18.0881 10.090
18.1033 10.085
18.1185 10.039
18.1336 10.024
18.1488 9.990
18.1640 9.861
18.1792 9.949
18.1943 10.063
18.2095 9.761
18.2247 9.814
18.2399 10.053
18.2550 9.962
18.2702 9.918
18.2854 9.833
18.3006 9.893
18.3157 9.904
18.3309 9.838
18.3461 9.884
18.3613 9.853
18.3764 9.779
18.3916 9.730
18.4068 9.799
18.4220 10.035
18.4371 9.988
18.4523 9.977
18.4675 10.042
18.4827 9.790
18.4978 9.888
18.5130 9.759
18.5282 9.692
18.5434 9.784
18.5585 9.707
18.5737 9.759
18.5889 9.916
18.6041 9.961
18.6192 9.917
18.6344 9.605
18.6496 9.518
18.6648 9.755
18.6799 9.706
18.6951 9.791
18.7103 9.820
18.7255 9.954
18.7406 9.847
18.7558 9.803
18.7710 9.847
18.7862 9.869
18.8013 9.741
18.8165 9.496
18.8317 9.716
18.8469 10.102
18.8620 10.081
18.8772 9.933
18.8924 9.967
18.9076 10.057
18.9227 9.934
18.9379 9.845
18.9531 9.986
18.9683 9.959
18.9834 9.870
18.9986 9.857
19.0138 9.766
19.0290 10.027
19.0441 10.163
19.0593 10.201
19.0745 10.031
19.0897 10.024
19.1048 10.192
19.1200 10.118
19.1352 10.322
19.1504 10.224
19.1655 10.309
19.1807 10.536
19.1959 10.762
19.2111 10.639
19.2262 10.589
19.2414 10.678
19.2566 10.810
19.2718 10.768
19.2869 10.851
19.3021 10.819
19.3173 10.954
19.3325 11.109
19.3476 11.231
19.3628 11.217
19.3780 11.172
19.3932 11.239
19.4083 11.262
19.4235 11.183
19.4387 11.216
19.4539 11.343
19.4690 11.424
19.4842 11.536
19.4994 11.396
19.5146 11.292
19.5297 11.541
19.5449 11.437
19.5601 11.424
19.5753 11.562
19.5904 11.394
19.6056 11.559
19.6208 11.701
19.6360 11.514
19.6511 11.613
19.6663 11.730
19.6815 11.604
19.6967 11.514
19.7118 11.620
19.7270 11.898
19.7422 11.900
19.7574 11.846
19.7725 11.714
19.7877 11.560
19.8029 11.969
19.8180 12.067
19.8332 11.908
19.8484 12.037
19.8636 12.232
19.8787 12.523
19.8939 12.798
19.9091 13.179
19.9243 13.662
19.9394 13.611
19.9546 13.944
19.9698 14.613
19.9850 14.440
20.0001 14.170
20.0153 14.143
20.0305 13.961
20.0457 13.849
20.0608 14.063
20.0760 13.776
20.0912 13.811
20.1064 13.871
20.1215 13.613
20.1367 13.233
20.1519 12.967
20.1671 12.920
20.1822 13.110
20.1974 13.142
20.2126 12.988
20.2278 12.945
20.2429 12.722
20.2581 12.379
20.2733 12.313
20.2885 12.050
20.3036 12.071
20.3188 12.085
20.3340 11.768
20.3492 11.765
20.3643 11.547
20.3795 11.331
20.3947 11.245
20.4099 11.129
20.4250 11.172
20.4402 11.208
20.4554 10.830
20.4706 10.887
20.4857 10.817
20.5009 10.878
20.5161 10.628
20.5313 10.555
20.5464 10.614
20.5616 10.654
20.5768 10.706
20.5920 10.619
20.6071 10.815
20.6223 10.808
20.6375 10.790
20.6527 10.718
20.6678 10.939
20.6830 10.803
20.6982 10.669
20.7134 10.509
20.7285 10.414
20.7437 10.487
20.7589 10.464
20.7741 10.513
20.7892 10.296
20.8044 10.258
20.8196 10.234
20.8348 10.272
20.8499 10.309
20.8651 10.115
20.8803 9.915
20.8955 9.973
20.9106 10.273
20.9258 10.334
20.9410 10.271
20.9562 10.185
20.9713 10.107
20.9865 10.268
21.0017 9.959
21.0169 10.017
21.0320 9.893
21.0472 9.656
21.0624 9.780
21.0776 9.521
21.0927 9.539
21.1079 9.807
21.1231 9.991
21.1383 9.809
21.1534 9.633
21.1686 9.750
21.1838 9.657
21.1990 9.788
21.2141 9.783
21.2293 10.021
21.2445 9.571
21.2597 9.578
21.2748 9.573
21.2900 9.543
21.3052 9.528
21.3204 9.583
21.3355 9.483
21.3507 9.384
21.3659 9.516
21.3811 9.457
21.3962 9.746
21.4114 9.538
21.4266 9.722
21.4418 9.297
21.4569 9.487
21.4721 9.452
21.4873 9.211
21.5025 9.235
21.5176 9.436
21.5328 9.152
21.5480 9.230
21.5632 9.334
21.5783 9.477
21.5935 9.346
21.6087 9.144
21.6239 8.909
21.6390 8.913
21.6542 9.039
21.6694 9.058
21.6846 9.080
21.6997 9.127
21.7149 8.955
21.7301 9.269
21.7453 9.024
21.7604 8.958
21.7756 8.943
21.7908 8.947
21.8060 9.085
21.8211 9.054
21.8363 9.155
21.8515 9.059
21.8667 8.994
21.8818 8.897
21.8970 8.976
21.9122 8.936
21.9274 8.956
21.9425 8.782
21.9577 8.717
21.9729 8.899
21.9881 9.143
22.0032 9.139
22.0184 8.888
22.0336 8.839
22.0488 8.685
22.0639 8.689
22.0791 8.747
22.0943 8.631
22.1095 8.649
22.1246 8.845
22.1398 8.888
22.1550 8.760
22.1702 8.651
22.1853 8.710
22.2005 8.681
22.2157 8.663
22.2309 8.899
22.2460 8.671
22.2612 8.615
22.2764 8.703
22.2916 8.669
22.3067 8.776
22.3219 8.816
22.3371 8.581
22.3523 8.915
22.3674 8.638
22.3826 8.867
22.3978 8.456
22.4130 8.716
22.4281 8.580
22.4433 8.704
22.4585 8.459
22.4737 8.367
22.4888 8.515
22.5040 8.203
22.5192 8.459
22.5344 8.582
22.5495 8.782
22.5647 8.723
22.5799 8.455
22.5951 8.570
22.6102 8.603
22.6254 8.384
22.6406 8.653
22.6558 8.590
22.6709 8.765
22.6861 8.321
22.7013 8.214
22.7165 8.027
22.7316 6.702
