'Id: "" Comment: "" Operator: "Lab Manager" Anode: "Mo" Scantype: "Still (Eiger2R_500K (1D mode))" TimePerStep: "300" X: "11.8" Y: "9.4" Z: "11.284" 
7.2532 18.869
7.2684 18.769
7.2836 18.550
7.2987 19.166
7.3139 19.212
7.3291 18.504
7.3443 18.598
7.3594 18.951
7.3746 18.921
7.3898 19.164
7.4050 18.946
7.4201 19.443
7.4353 19.407
7.4505 19.497
7.4657 19.569
7.4808 19.202
7.4960 19.366
7.5112 19.317
7.5264 19.691
7.5415 19.405
7.5567 19.399
7.5719 19.648
7.5871 19.911
7.6022 19.810
7.6174 19.615
7.6326 19.590
7.6478 19.960
7.6629 20.080
7.6781 20.174
7.6933 20.516
7.7085 20.248
7.7236 20.372
7.7388 20.286
7.7540 20.240
7.7692 20.111
7.7843 20.097
7.7995 20.414
7.8147 20.533
7.8299 20.440
7.8450 20.262
7.8602 20.342
7.8754 20.540
7.8905 20.718
7.9057 20.846
7.9209 20.923
7.9361 20.917
7.9512 21.036
7.9664 21.009
7.9816 20.788
7.9968 20.996
8.0119 21.337
8.0271 21.357
8.0423 21.138
8.0575 21.194
8.0726 20.985
8.0878 21.021
8.1030 21.153
8.1182 20.808
8.1333 21.093
8.1485 21.046
8.1637 21.128
8.1789 21.171
8.1940 21.242
8.2092 21.436
8.2244 21.201
8.2396 21.484
8.2547 21.360
8.2699 21.618
8.2851 21.504
8.3003 21.421
8.3154 21.072
8.3306 21.741
8.3458 21.536
8.3610 21.778
8.3761 21.271
8.3913 21.923
8.4065 22.200
8.4217 21.674
8.4368 21.674
8.4520 21.944
8.4672 21.916
8.4824 21.750
8.4975 21.694
8.5127 22.140
8.5279 22.017
8.5431 21.812
8.5582 21.888
8.5734 22.261
8.5886 21.879
8.6038 21.566
8.6189 22.263
8.6341 22.083
8.6493 21.815
8.6645 22.240
8.6796 22.376
8.6948 22.483
8.7100 22.301
8.7252 22.224
8.7403 22.597
8.7555 22.296
8.7707 22.445
8.7859 22.606
8.8010 22.297
8.8162 22.342
8.8314 22.653
8.8466 22.728
8.8617 22.422
8.8769 22.231
8.8921 22.058
8.9073 22.572
8.9224 22.351
8.9376 22.558
8.9528 22.414
8.9680 21.761
8.9831 22.788
8.9983 22.612
9.0135 22.784
9.0287 22.296
9.0438 22.534
9.0590 22.734
9.0742 22.672
9.0894 22.578
9.1045 22.640
9.1197 22.764
9.1349 22.641
9.1501 22.807
9.1652 22.374
9.1804 22.563
9.1956 22.921
9.2108 22.736
9.2259 22.736
9.2411 22.896
9.2563 22.734
9.2715 22.596
9.2866 22.633
9.3018 22.719
9.3170 22.609
9.3322 22.429
9.3473 22.757
9.3625 22.745
9.3777 22.670
9.3929 22.605
9.4080 22.865
9.4232 23.065
9.4384 23.329
9.4536 23.100
9.4687 22.916
9.4839 22.740
9.4991 22.955
9.5143 22.923
9.5294 22.515
9.5446 22.799
9.5598 22.925
9.5750 23.083
9.5901 23.200
9.6053 23.509
9.6205 23.448
9.6357 23.515
9.6508 23.512
9.6660 23.220
9.6812 23.327
9.6964 23.698
9.7115 23.821
9.7267 23.862
9.7419 23.921
9.7571 23.540
9.7722 23.593
9.7874 23.611
9.8026 23.564
9.8178 23.540
9.8329 23.256
9.8481 23.453
9.8633 23.521
9.8785 23.208
9.8936 23.048
9.9088 23.021
9.9240 22.910
9.9392 23.004
9.9543 23.243
9.9695 23.053
9.9847 22.942
9.9999 22.852
10.0150 23.097
10.0302 23.516
10.0454 23.536
10.0606 23.160
10.0757 22.974
10.0909 23.243
10.1061 23.518
10.1213 23.607
10.1364 23.341
10.1516 23.333
10.1668 23.356
10.1820 23.085
10.1971 23.108
10.2123 22.902
10.2275 22.818
10.2427 22.801
10.2578 22.770
10.2730 22.827
10.2882 22.994
10.3034 22.701
10.3185 22.609
10.3337 22.580
10.3489 22.634
10.3641 22.778
10.3792 22.882
10.3944 22.917
10.4096 22.701
10.4248 22.625
10.4399 22.494
10.4551 22.402
10.4703 22.769
10.4855 22.662
10.5006 22.309
10.5158 22.388
10.5310 22.536
10.5462 22.345
10.5613 22.434
10.5765 22.583
10.5917 22.647
10.6069 22.205
10.6220 22.285
10.6372 22.449
10.6524 22.501
10.6676 22.429
10.6827 22.435
10.6979 22.181
10.7131 22.123
10.7283 22.470
10.7434 22.379
10.7586 22.387
10.7738 22.162
10.7890 22.082
10.8041 22.131
10.8193 22.109
10.8345 22.134
10.8497 22.093
10.8648 22.132
10.8800 22.152
10.8952 21.837
10.9104 21.947
10.9255 21.854
10.9407 21.832
10.9559 21.820
10.9711 21.972
10.9862 21.878
11.0014 22.022
11.0166 22.274
11.0318 22.356
11.0469 21.381
11.0621 21.797
11.0773 22.007
11.0925 21.868
11.1076 21.712
11.1228 21.843
11.1380 21.938
11.1532 21.536
11.1683 21.361
11.1835 21.479
11.1987 21.697
11.2139 21.481
11.2290 21.787
11.2442 21.681
11.2594 21.533
11.2746 21.731
11.2897 21.461
11.3049 21.727
11.3201 21.737
11.3353 21.640
11.3504 21.688
11.3656 21.242
11.3808 21.203
11.3960 21.052
11.4111 20.968
11.4263 21.434
11.4415 21.049
11.4567 20.957
11.4718 20.894
11.4870 21.017
11.5022 20.838
11.5174 20.655
11.5325 20.873
11.5477 21.352
11.5629 20.922
11.5781 20.579
11.5932 20.611
11.6084 20.301
11.6236 20.352
11.6388 20.537
11.6539 20.807
11.6691 21.023
11.6843 20.603
11.6995 20.023
11.7146 20.167
11.7298 20.077
11.7450 20.159
11.7602 20.068
11.7753 19.994
11.7905 20.185
11.8057 19.890
11.8209 19.869
11.8360 20.086
11.8512 19.784
11.8664 19.732
11.8816 19.650
11.8967 19.788
11.9119 19.867
11.9271 19.668
11.9423 19.466
11.9574 19.474
11.9726 19.070
11.9878 18.973
12.0030 18.926
12.0181 19.205
12.0333 19.226
12.0485 19.324
12.0637 19.039
12.0788 18.555
12.0940 18.714
12.1092 18.852
12.1244 18.662
12.1395 18.632
12.1547 18.631
12.1699 18.620
12.1851 18.538
12.2002 18.442
12.2154 18.166
12.2306 17.985
12.2458 17.910
12.2609 18.086
12.2761 17.937
12.2913 17.868
12.3065 17.763
12.3216 17.450
12.3368 17.316
12.3520 17.328
12.3672 17.276
12.3823 17.157
12.3975 17.208
12.4127 17.196
12.4279 17.184
12.4430 17.142
12.4582 16.779
12.4734 16.615
12.4886 16.604
12.5037 16.602
12.5189 16.556
12.5341 16.366
12.5493 16.546
12.5644 16.074
12.5796 15.827
12.5948 15.834
12.6100 15.963
12.6251 15.884
12.6403 15.841
12.6555 15.701
12.6707 15.466
12.6858 15.648
12.7010 15.792
12.7162 15.555
12.7314 15.459
12.7465 15.459
12.7617 15.298
12.7769 15.066
12.7921 15.173
12.8072 15.230
12.8224 15.013
12.8376 14.955
12.8528 15.037
12.8679 15.243
12.8831 15.109
12.8983 14.756
12.9135 14.638
12.9286 14.395
12.9438 14.380
12.9590 14.178
12.9742 14.348
12.9893 14.467
13.0045 14.080
13.0197 14.058
13.0349 14.220
13.0500 14.208
13.0652 13.992
13.0804 13.919
13.0956 13.742
13.1107 13.594
13.1259 13.528
13.1411 13.671
13.1563 13.768
13.1714 13.615
13.1866 13.427
13.2018 13.334
13.2170 13.357
13.2321 13.061
13.2473 12.956
13.2625 13.283
13.2777 13.510
13.2928 13.347
13.3080 13.202
13.3232 13.147
13.3384 13.087
13.3535 13.145
13.3687 13.138
13.3839 13.115
13.3991 13.073
13.4142 12.936
13.4294 12.886
13.4446 12.778
13.4598 12.565
13.4749 12.710
13.4901 12.982
13.5053 12.708
13.5205 12.573
13.5356 12.415
13.5508 12.211
13.5660 12.180
13.5812 12.115
13.5963 12.217
13.6115 12.258
13.6267 12.234
13.6419 12.274
13.6570 12.308
13.6722 12.282
13.6874 12.117
13.7026 12.101
13.7177 11.919
13.7329 11.877
13.7481 11.977
13.7633 12.115
13.7784 12.133
13.7936 12.075
13.8088 12.053
13.8239 12.147
13.8391 12.144
13.8543 12.167
13.8695 12.283
13.8846 12.250
13.8998 12.224
13.9150 12.153
13.9302 11.886
13.9453 11.759
13.9605 11.777
13.9757 11.778
13.9909 11.670
14.0060 11.647
14.0212 11.767
14.0364 11.803
14.0516 11.870
14.0667 11.686
14.0819 11.635
14.0971 11.462
14.1123 11.833
14.1274 11.921
14.1426 11.866
14.1578 11.742
14.1730 11.945
14.1881 12.092
14.2033 11.762
14.2185 11.817
14.2337 11.980
14.2488 11.878
14.2640 11.919
14.2792 12.165
14.2944 12.035
14.3095 11.889
14.3247 12.410
14.3399 12.349
14.3551 12.699
14.3702 12.641
14.3854 12.936
14.4006 13.131
14.4158 13.080
14.4309 12.955
14.4461 12.746
14.4613 12.792
14.4765 12.422
14.4916 12.261
14.5068 11.709
14.5220 11.730
14.5372 11.427
14.5523 11.374
14.5675 11.254
14.5827 11.029
14.5979 10.794
14.6130 10.861
14.6282 10.827
14.6434 11.133
14.6586 10.880
14.6737 10.878
14.6889 10.800
14.7041 10.393
14.7193 10.491
14.7344 10.731
14.7496 10.744
14.7648 10.814
14.7800 10.551
14.7951 10.436
14.8103 10.523
14.8255 10.060
14.8407 10.264
14.8558 10.391
14.8710 10.406
14.8862 10.689
14.9014 10.541
14.9165 10.539
14.9317 10.806
14.9469 10.286
14.9621 10.440
14.9772 10.428
14.9924 10.359
15.0076 10.151
15.0228 10.308
15.0379 10.330
15.0531 10.294
15.0683 10.086
15.0835 10.297
15.0986 9.985
15.1138 10.300
15.1290 10.476
15.1442 10.512
15.1593 9.822
15.1745 10.162
15.1897 10.182
15.2049 10.024
15.2200 10.061
15.2352 10.236
15.2504 10.004
15.2656 10.065
15.2807 10.090
15.2959 10.176
15.3111 10.182
15.3263 10.024
15.3414 10.152
15.3566 10.258
15.3718 10.017
15.3870 10.160
15.4021 10.282
15.4173 10.092
15.4325 10.116
15.4477 9.840
15.4628 9.984
15.4780 10.075
15.4932 10.155
15.5084 10.223
15.5235 10.075
15.5387 10.243
15.5539 10.198
15.5691 10.067
15.5842 9.612
15.5994 9.885
15.6146 9.787
15.6298 9.692
15.6449 9.625
15.6601 9.910
15.6753 9.655
15.6905 9.616
15.7056 9.708
15.7208 9.834
15.7360 9.520
15.7512 9.605
15.7663 9.678
15.7815 9.545
15.7967 9.716
15.8119 9.933
15.8270 9.720
15.8422 9.874
15.8574 9.853
15.8726 9.681
15.8877 9.718
15.9029 9.520
15.9181 9.422
15.9333 9.510
15.9484 9.612
15.9636 9.546
15.9788 9.765
15.9940 9.556
16.0091 9.364
16.0243 9.254
16.0395 9.557
16.0547 9.601
16.0698 9.502
16.0850 9.466
16.1002 9.497
16.1154 9.445
16.1305 9.445
16.1457 9.399
16.1609 9.287
16.1761 9.517
16.1912 9.348
16.2064 9.376
16.2216 9.624
16.2368 9.697
16.2519 9.606
16.2671 9.467
16.2823 9.606
16.2975 9.671
16.3126 9.701
16.3278 9.415
16.3430 9.649
16.3582 9.563
16.3733 9.702
16.3885 9.884
16.4037 10.069
16.4189 10.003
16.4340 9.894
16.4492 9.617
16.4644 9.574
16.4796 9.621
16.4947 9.607
16.5099 9.787
16.5251 9.449
16.5403 9.402
16.5554 9.395
16.5706 9.626
16.5858 9.835
16.6010 9.816
16.6161 9.501
16.6313 9.656
16.6465 9.823
16.6617 9.883
16.6768 9.904
16.6920 9.823
16.7072 9.672
16.7224 9.774
16.7375 9.833
16.7527 9.847
16.7679 9.983
16.7831 10.013
16.7982 9.884
16.8134 9.921
16.8286 9.811
16.8438 9.676
16.8589 9.610
16.8741 9.581
16.8893 9.789
16.9045 9.651
16.9196 9.621
16.9348 9.661
16.9500 9.639
16.9652 9.828
16.9803 9.948
16.9955 9.716
17.0107 9.835
17.0259 9.961
17.0410 10.079
17.0562 10.277
17.0714 10.176
17.0866 10.302
17.1017 10.715
17.1169 10.843
17.1321 10.920
17.1473 10.971
17.1624 11.476
17.1776 12.365
17.1928 13.026
17.2080 13.846
17.2231 14.922
17.2383 16.169
17.2535 17.502
17.2687 18.622
17.2838 18.595
17.2990 17.859
17.3142 17.119
17.3294 16.411
17.3445 16.260
17.3597 16.228
17.3749 15.892
17.3901 15.373
17.4052 14.307
17.4204 13.228
17.4356 12.724
17.4508 12.358
17.4659 11.875
17.4811 11.372
17.4963 11.345
17.5115 11.455
17.5266 11.112
17.5418 10.801
17.5570 10.818
17.5722 10.996
17.5873 11.112
17.6025 11.165
17.6177 11.295
17.6329 11.256
17.6480 11.534
17.6632 11.725
17.6784 11.422
17.6936 11.343
17.7087 11.355
17.7239 11.502
17.7391 11.313
17.7543 10.887
17.7694 10.800
17.7846 10.792
17.7998 10.841
17.8150 10.663
17.8301 10.446
17.8453 10.385
17.8605 10.361
17.8757 10.422
17.8908 10.435
17.9060 10.195
17.9212 10.110
17.9364 10.064
17.9515 10.100
17.9667 9.951
17.9819 9.920
17.9971 10.020
18.0122 10.284
18.0274 10.363
18.0426 10.180
18.0578 10.049
18.0729 10.091
18.0881 10.206
18.1033 10.032
18.1185 10.105
18.1336 10.035
18.1488 9.841
18.1640 9.848
18.1792 9.854
18.1943 9.796
18.2095 9.958
18.2247 9.851
18.2399 9.792
18.2550 9.919
18.2702 10.079
18.2854 9.779
18.3006 9.681
18.3157 9.831
18.3309 10.144
18.3461 10.050
18.3613 9.810
18.3764 9.907
18.3916 9.814
18.4068 9.716
18.4220 9.783
18.4371 9.827
18.4523 9.830
18.4675 9.859
18.4827 9.923
18.4978 9.910
18.5130 9.952
18.5282 9.882
18.5434 9.838
18.5585 9.995
18.5737 9.945
18.5889 9.805
18.6041 9.676
18.6192 9.454
18.6344 9.557
18.6496 9.610
18.6648 9.678
18.6799 9.772
18.6951 9.806
18.7103 9.698
18.7255 9.590
18.7406 9.616
18.7558 9.824
18.7710 9.803
18.7862 9.739
18.8013 9.576
18.8165 9.516
18.8317 9.860
18.8469 9.968
18.8620 9.885
18.8772 10.037
18.8924 10.092
18.9076 10.125
18.9227 10.054
18.9379 10.070
18.9531 9.937
18.9683 10.146
18.9834 10.252
18.9986 10.206
19.0138 10.114
19.0290 9.929
19.0441 10.145
19.0593 10.146
19.0745 10.204
19.0897 10.323
19.1048 10.131
19.1200 10.315
19.1352 10.586
19.1504 10.496
19.1655 10.500
19.1807 10.442
19.1959 10.531
19.2111 10.863
19.2262 10.836
19.2414 10.878
19.2566 10.979
19.2718 10.960
19.2869 10.950
19.3021 10.957
19.3173 10.923
19.3325 10.949
19.3476 10.912
19.3628 11.194
19.3780 11.135
19.3932 10.958
19.4083 11.182
19.4235 11.213
19.4387 10.937
19.4539 11.082
19.4690 11.254
19.4842 11.378
19.4994 11.477
19.5146 11.434
19.5297 11.608
19.5449 11.604
19.5601 11.475
19.5753 11.506
19.5904 11.735
19.6056 11.779
19.6208 11.452
19.6360 11.716
19.6511 11.747
19.6663 11.582
19.6815 11.667
19.6967 11.555
19.7118 11.655
19.7270 11.855
19.7422 11.914
19.7574 12.109
19.7725 11.937
19.7877 11.789
19.8029 11.930
19.8180 12.093
19.8332 12.209
19.8484 12.203
19.8636 12.322
19.8787 12.747
19.8939 12.977
19.9091 12.981
19.9243 13.329
19.9394 13.846
19.9546 14.325
19.9698 14.472
19.9850 14.580
20.0001 14.727
20.0153 14.654
20.0305 14.051
20.0457 13.666
20.0608 13.678
20.0760 13.806
20.0912 14.020
20.1064 13.855
20.1215 13.714
20.1367 13.601
20.1519 13.195
20.1671 12.988
20.1822 13.044
20.1974 12.954
20.2126 12.883
20.2278 12.866
20.2429 12.625
20.2581 12.224
20.2733 12.094
20.2885 12.084
20.3036 12.039
20.3188 12.054
20.3340 11.919
20.3492 12.092
20.3643 12.260
20.3795 12.006
20.3947 11.813
20.4099 11.653
20.4250 11.841
20.4402 11.818
20.4554 11.768
20.4706 11.721
20.4857 11.902
20.5009 11.861
20.5161 11.789
20.5313 11.678
20.5464 11.368
20.5616 11.221
20.5768 11.567
20.5920 11.202
20.6071 10.860
20.6223 10.691
20.6375 10.486
20.6527 10.856
20.6678 10.796
20.6830 10.545
20.6982 10.203
20.7134 10.358
20.7285 10.502
20.7437 10.244
20.7589 10.553
20.7741 10.490
20.7892 10.028
20.8044 10.032
20.8196 10.077
20.8348 10.314
20.8499 10.027
20.8651 10.168
20.8803 10.210
20.8955 10.264
20.9106 10.191
20.9258 10.404
20.9410 9.843
20.9562 10.129
20.9713 9.917
20.9865 10.124
21.0017 10.372
21.0169 10.005
21.0320 10.155
21.0472 10.013
21.0624 9.732
21.0776 10.193
21.0927 9.574
21.1079 9.928
21.1231 9.767
21.1383 9.587
21.1534 9.622
21.1686 9.874
21.1838 9.588
21.1990 9.622
21.2141 9.663
21.2293 9.768
21.2445 9.676
21.2597 9.762
21.2748 9.724
21.2900 9.628
21.3052 9.493
21.3204 9.549
21.3355 9.661
21.3507 9.563
21.3659 9.414
21.3811 9.658
21.3962 9.576
21.4114 9.626
21.4266 9.393
21.4418 9.195
21.4569 9.163
21.4721 9.351
21.4873 9.388
21.5025 9.254
21.5176 9.173
21.5328 9.179
21.5480 9.155
21.5632 9.103
21.5783 9.371
21.5935 9.237
21.6087 9.172
21.6239 9.177
21.6390 9.105
21.6542 9.193
21.6694 9.172
21.6846 9.171
21.6997 9.232
21.7149 9.240
21.7301 9.136
21.7453 9.299
21.7604 9.090
21.7756 8.707
21.7908 8.953
21.8060 9.054
21.8211 9.003
21.8363 9.053
21.8515 9.176
21.8667 8.855
21.8818 9.029
21.8970 9.099
21.9122 8.853
21.9274 8.872
21.9425 8.832
21.9577 8.686
21.9729 8.857
21.9881 8.846
22.0032 8.647
22.0184 8.649
22.0336 8.643
22.0488 8.612
22.0639 8.662
22.0791 8.574
22.0943 8.524
22.1095 8.587
22.1246 8.677
22.1398 8.695
22.1550 8.612
22.1702 8.508
22.1853 8.488
22.2005 8.496
22.2157 8.498
22.2309 8.496
22.2460 8.731
22.2612 8.745
22.2764 8.466
22.2916 8.611
22.3067 8.780
22.3219 8.369
22.3371 8.378
22.3523 8.379
22.3674 8.123
22.3826 8.499
22.3978 8.525
22.4130 8.210
22.4281 8.350
22.4433 8.420
22.4585 8.303
22.4737 8.359
22.4888 8.541
22.5040 8.310
22.5192 8.604
22.5344 8.366
22.5495 8.401
22.5647 8.192
22.5799 8.280
22.5951 8.640
22.6102 8.193
22.6254 8.417
22.6406 8.463
22.6558 8.383
22.6709 8.424
22.6861 8.200
22.7013 8.277
22.7165 7.776
22.7316 6.337
