'Id: "" Comment: "" Operator: "Lab Manager" Anode: "Mo" Scantype: "Still (Eiger2R_500K (1D mode))" TimePerStep: "300" X: "11.8" Y: "9.4" Z: "11.284" 
7.2532 18.947
7.2684 18.987
7.2836 18.973
7.2987 18.829
7.3139 18.984
7.3291 19.435
7.3443 19.458
7.3594 19.422
7.3746 19.579
7.3898 19.347
7.4050 19.542
7.4201 19.669
7.4353 19.604
7.4505 19.495
7.4657 19.680
7.4808 19.610
7.4960 20.039
7.5112 20.075
7.5264 19.637
7.5415 19.649
7.5567 19.906
7.5719 20.073
7.5871 19.953
7.6022 20.192
7.6174 19.966
7.6326 19.965
7.6478 20.365
7.6629 20.243
7.6781 20.745
7.6933 20.588
7.7085 20.541
7.7236 20.373
7.7388 20.422
7.7540 20.416
7.7692 20.520
7.7843 20.719
7.7995 20.665
7.8147 20.867
7.8299 21.175
7.8450 20.851
7.8602 20.909
7.8754 21.230
7.8905 21.218
7.9057 20.877
7.9209 21.048
7.9361 21.419
7.9512 21.302
7.9664 21.247
7.9816 21.320
7.9968 21.234
8.0119 21.241
8.0271 21.260
8.0423 21.241
8.0575 21.464
8.0726 21.220
8.0878 21.607
8.1030 21.625
8.1182 21.528
8.1333 21.457
8.1485 21.293
8.1637 21.319
8.1789 21.558
8.1940 21.681
8.2092 21.906
8.2244 22.015
8.2396 21.551
8.2547 21.467
8.2699 21.616
8.2851 21.545
8.3003 21.464
8.3154 21.590
8.3306 21.759
8.3458 21.885
8.3610 21.351
8.3761 22.474
8.3913 21.951
8.4065 21.847
8.4217 21.624
8.4368 21.983
8.4520 22.380
8.4672 22.017
8.4824 22.343
8.4975 21.815
8.5127 22.191
8.5279 22.178
8.5431 22.528
8.5582 22.339
8.5734 22.073
8.5886 22.472
8.6038 22.310
8.6189 22.423
8.6341 22.123
8.6493 22.313
8.6645 22.525
8.6796 22.428
8.6948 22.696
8.7100 22.416
8.7252 22.667
8.7403 23.099
8.7555 22.659
8.7707 22.834
8.7859 22.345
8.8010 22.693
8.8162 22.903
8.8314 22.340
8.8466 22.696
8.8617 22.305
8.8769 22.746
8.8921 22.823
8.9073 22.776
8.9224 22.858
8.9376 22.416
8.9528 22.681
8.9680 23.066
8.9831 22.904
8.9983 22.707
9.0135 22.594
9.0287 22.596
9.0438 23.056
9.0590 22.868
9.0742 22.894
9.0894 23.110
9.1045 22.949
9.1197 23.089
9.1349 22.809
9.1501 22.983
9.1652 22.778
9.1804 22.705
9.1956 22.521
9.2108 22.997
9.2259 23.125
9.2411 23.110
9.2563 23.314
9.2715 23.207
9.2866 23.026
9.3018 23.195
9.3170 23.377
9.3322 23.350
9.3473 23.295
9.3625 23.560
9.3777 23.306
9.3929 23.114
9.4080 23.492
9.4232 23.010
9.4384 22.960
9.4536 23.138
9.4687 22.993
9.4839 23.361
9.4991 23.352
9.5143 23.164
9.5294 23.179
9.5446 23.356
9.5598 23.393
9.5750 23.346
9.5901 23.479
9.6053 23.431
9.6205 23.418
9.6357 23.626
9.6508 23.602
9.6660 23.522
9.6812 23.881
9.6964 23.922
9.7115 23.990
9.7267 24.029
9.7419 24.134
9.7571 24.106
9.7722 23.996
9.7874 23.921
9.8026 24.103
9.8178 23.987
9.8329 23.501
9.8481 23.666
9.8633 24.114
9.8785 23.885
9.8936 23.386
9.9088 23.298
9.9240 23.686
9.9392 23.587
9.9543 23.389
9.9695 23.749
9.9847 23.985
9.9999 23.654
10.0150 23.514
10.0302 23.752
10.0454 23.589
10.0606 23.423
10.0757 23.520
10.0909 23.671
10.1061 23.829
10.1213 23.814
10.1364 24.066
10.1516 24.106
10.1668 24.263
10.1820 24.357
10.1971 24.059
10.2123 24.185
10.2275 24.086
10.2427 24.196
10.2578 24.027
10.2730 23.548
10.2882 23.573
10.3034 23.845
10.3185 23.655
10.3337 23.239
10.3489 22.891
10.3641 22.687
10.3792 22.965
10.3944 23.413
10.4096 23.057
10.4248 22.797
10.4399 22.841
10.4551 22.516
10.4703 22.487
10.4855 22.704
10.5006 22.841
10.5158 22.840
10.5310 22.673
10.5462 22.734
10.5613 22.857
10.5765 22.798
10.5917 22.698
10.6069 22.581
10.6220 22.950
10.6372 23.050
10.6524 23.104
10.6676 22.989
10.6827 22.835
10.6979 22.685
10.7131 22.791
10.7283 22.391
10.7434 22.511
10.7586 22.664
10.7738 22.339
10.7890 22.005
10.8041 22.061
10.8193 22.267
10.8345 22.177
10.8497 21.862
10.8648 22.056
10.8800 22.211
10.8952 22.497
10.9104 22.345
10.9255 22.054
10.9407 22.038
10.9559 21.967
10.9711 22.205
10.9862 22.460
11.0014 22.188
11.0166 22.346
11.0318 22.512
11.0469 22.134
11.0621 22.197
11.0773 22.111
11.0925 21.874
11.1076 21.728
11.1228 21.699
11.1380 22.159
11.1532 22.078
11.1683 21.818
11.1835 21.831
11.1987 21.858
11.2139 22.010
11.2290 22.170
11.2442 22.302
11.2594 22.238
11.2746 21.972
11.2897 21.981
11.3049 21.868
11.3201 21.824
11.3353 21.854
11.3504 21.406
11.3656 21.547
11.3808 21.470
11.3960 21.508
11.4111 21.490
11.4263 21.360
11.4415 21.096
11.4567 21.337
11.4718 21.439
11.4870 21.293
11.5022 21.213
11.5174 21.413
11.5325 21.193
11.5477 20.919
11.5629 21.298
11.5781 21.219
11.5932 21.393
11.6084 21.104
11.6236 20.559
11.6388 20.462
11.6539 20.783
11.6691 20.670
11.6843 20.437
11.6995 20.347
11.7146 20.455
11.7298 20.095
11.7450 20.164
11.7602 20.399
11.7753 20.558
11.7905 19.899
11.8057 19.863
11.8209 20.040
11.8360 19.870
11.8512 19.993
11.8664 19.717
11.8816 19.535
11.8967 19.631
11.9119 19.441
11.9271 19.105
11.9423 19.312
11.9574 19.455
11.9726 19.153
11.9878 18.957
12.0030 19.085
12.0181 19.136
12.0333 18.845
12.0485 18.733
12.0637 18.795
12.0788 18.809
12.0940 18.743
12.1092 18.565
12.1244 18.830
12.1395 18.615
12.1547 18.565
12.1699 18.743
12.1851 18.450
12.2002 18.290
12.2154 17.936
12.2306 18.010
12.2458 17.722
12.2609 17.739
12.2761 17.787
12.2913 17.616
12.3065 17.787
12.3216 17.563
12.3368 17.307
12.3520 17.456
12.3672 17.394
12.3823 17.347
12.3975 17.427
12.4127 17.428
12.4279 17.458
12.4430 17.495
12.4582 17.139
12.4734 16.938
12.4886 16.989
12.5037 16.964
12.5189 17.057
12.5341 16.894
12.5493 16.644
12.5644 16.233
12.5796 16.208
12.5948 16.176
12.6100 15.889
12.6251 16.042
12.6403 16.007
12.6555 15.885
12.6707 15.693
12.6858 15.739
12.7010 15.770
12.7162 15.694
12.7314 15.681
12.7465 15.749
12.7617 15.385
12.7769 15.244
12.7921 15.358
12.8072 15.317
12.8224 15.391
12.8376 15.076
12.8528 15.095
12.8679 15.058
12.8831 14.972
12.8983 15.024
12.9135 14.658
12.9286 14.561
12.9438 14.470
12.9590 14.462
12.9742 14.642
12.9893 14.477
13.0045 14.301
13.0197 14.204
13.0349 14.179
13.0500 13.947
13.0652 13.834
13.0804 14.039
13.0956 14.084
13.1107 13.896
13.1259 13.872
13.1411 13.700
13.1563 13.593
13.1714 13.814
13.1866 13.768
13.2018 13.671
13.2170 13.408
13.2321 13.242
13.2473 13.243
13.2625 13.200
13.2777 13.171
13.2928 13.135
13.3080 13.190
13.3232 13.228
13.3384 13.265
13.3535 13.269
13.3687 13.073
13.3839 12.895
13.3991 13.049
13.4142 13.047
13.4294 12.917
13.4446 12.784
13.4598 12.617
13.4749 12.439
13.4901 12.388
13.5053 12.534
13.5205 12.633
13.5356 12.511
13.5508 12.340
13.5660 12.425
13.5812 12.505
13.5963 12.218
13.6115 11.940
13.6267 11.967
13.6419 11.955
13.6570 11.911
13.6722 12.176
13.6874 12.079
13.7026 12.062
13.7177 12.315
13.7329 12.025
13.7481 12.039
13.7633 12.419
13.7784 12.319
13.7936 11.981
13.8088 12.153
13.8239 12.048
13.8391 12.131
13.8543 12.266
13.8695 12.170
13.8846 12.045
13.8998 12.046
13.9150 12.160
13.9302 11.752
13.9453 11.856
13.9605 12.011
13.9757 11.802
13.9909 11.539
14.0060 11.684
14.0212 11.819
14.0364 11.541
14.0516 11.451
14.0667 11.496
14.0819 11.295
14.0971 11.304
14.1123 11.604
14.1274 11.577
14.1426 11.433
14.1578 11.605
14.1730 11.454
14.1881 11.619
14.2033 11.795
14.2185 11.818
14.2337 11.725
14.2488 11.804
14.2640 12.185
14.2792 12.176
14.2944 12.139
14.3095 12.437
14.3247 12.388
14.3399 12.546
14.3551 12.741
14.3702 13.261
14.3854 13.310
14.4006 13.340
14.4158 13.253
14.4309 13.079
14.4461 12.883
14.4613 12.714
14.4765 13.062
14.4916 12.568
14.5068 12.987
14.5220 12.702
14.5372 12.566
14.5523 12.683
14.5675 12.220
14.5827 12.193
14.5979 12.098
14.6130 11.884
14.6282 11.871
14.6434 11.297
14.6586 11.470
14.6737 11.473
14.6889 11.706
14.7041 11.096
14.7193 11.114
14.7344 11.387
14.7496 10.978
14.7648 11.218
14.7800 11.219
14.7951 10.835
14.8103 10.514
14.8255 10.463
14.8407 10.797
14.8558 10.359
14.8710 10.863
14.8862 10.602
14.9014 10.398
14.9165 10.988
14.9317 11.177
14.9469 10.608
14.9621 10.652
14.9772 10.083
14.9924 10.760
15.0076 10.592
15.0228 10.692
15.0379 10.777
15.0531 10.133
15.0683 10.659
15.0835 10.575
15.0986 10.723
15.1138 10.873
15.1290 10.697
15.1442 10.436
15.1593 10.450
15.1745 10.555
15.1897 10.369
15.2049 10.656
15.2200 10.527
15.2352 10.224
15.2504 10.703
15.2656 10.239
15.2807 10.276
15.2959 10.240
15.3111 10.487
15.3263 10.647
15.3414 10.360
15.3566 10.034
15.3718 10.376
15.3870 10.395
15.4021 10.310
15.4173 10.868
15.4325 10.391
15.4477 10.598
15.4628 10.392
15.4780 10.274
15.4932 10.570
15.5084 10.710
15.5235 10.365
15.5387 10.569
15.5539 10.162
15.5691 10.220
15.5842 10.371
15.5994 10.385
15.6146 10.085
15.6298 9.785
15.6449 9.655
15.6601 9.884
15.6753 9.916
15.6905 9.855
15.7056 9.796
15.7208 9.893
15.7360 9.890
15.7512 9.955
15.7663 10.467
15.7815 10.018
15.7967 9.967
15.8119 9.899
15.8270 9.850
15.8422 9.978
15.8574 10.187
15.8726 9.763
15.8877 9.620
15.9029 9.853
15.9181 9.774
15.9333 9.849
15.9484 9.614
15.9636 9.895
15.9788 9.863
15.9940 9.879
16.0091 9.939
16.0243 9.776
16.0395 9.610
16.0547 9.866
16.0698 9.723
16.0850 9.816
16.1002 9.795
16.1154 9.535
16.1305 9.673
16.1457 9.835
16.1609 9.903
16.1761 9.627
16.1912 9.472
16.2064 9.700
16.2216 9.839
16.2368 9.547
16.2519 9.837
16.2671 10.191
16.2823 9.986
16.2975 10.057
16.3126 10.364
16.3278 10.383
16.3430 10.134
16.3582 10.066
16.3733 10.191
16.3885 10.116
16.4037 10.117
16.4189 9.842
16.4340 9.808
16.4492 9.718
16.4644 9.817
16.4796 9.919
16.4947 9.886
16.5099 9.887
16.5251 9.759
16.5403 9.705
16.5554 9.709
16.5706 9.548
16.5858 9.784
16.6010 9.840
16.6161 9.821
16.6313 9.801
16.6465 9.834
16.6617 9.869
16.6768 10.071
16.6920 9.896
16.7072 10.002
16.7224 9.888
16.7375 9.996
16.7527 10.125
16.7679 9.969
16.7831 9.800
16.7982 9.770
16.8134 9.894
16.8286 9.886
16.8438 9.993
16.8589 10.000
16.8741 9.967
16.8893 9.866
16.9045 9.746
16.9196 9.668
16.9348 9.600
16.9500 9.719
16.9652 10.005
16.9803 9.965
16.9955 9.868
17.0107 9.835
17.0259 9.812
17.0410 9.935
17.0562 10.233
17.0714 10.389
17.0866 10.415
17.1017 10.618
17.1169 10.741
17.1321 10.973
17.1473 11.277
17.1624 11.617
17.1776 12.221
17.1928 12.956
17.2080 13.975
17.2231 15.081
17.2383 15.980
17.2535 17.288
17.2687 18.458
17.2838 18.769
17.2990 18.014
17.3142 16.958
17.3294 16.248
17.3445 15.992
17.3597 15.996
17.3749 15.860
17.3901 15.265
17.4052 14.158
17.4204 13.180
17.4356 12.335
17.4508 11.901
17.4659 11.710
17.4811 11.728
17.4963 11.621
17.5115 11.229
17.5266 11.157
17.5418 11.217
17.5570 11.379
17.5722 11.678
17.5873 11.819
17.6025 11.626
17.6177 11.489
17.6329 11.318
17.6480 11.225
17.6632 11.211
17.6784 11.125
17.6936 11.156
17.7087 11.126
17.7239 11.019
17.7391 10.969
17.7543 10.942
17.7694 10.998
17.7846 11.108
17.7998 11.078
17.8150 11.095
17.8301 11.086
17.8453 11.007
17.8605 10.995
17.8757 11.108
17.8908 11.263
17.9060 11.329
17.9212 11.134
17.9364 10.987
17.9515 10.785
17.9667 10.737
17.9819 11.012
17.9971 10.789
18.0122 10.639
18.0274 10.373
18.0426 10.369
18.0578 10.322
18.0729 9.987
18.0881 10.201
18.1033 10.276
18.1185 10.113
18.1336 9.935
18.1488 9.847
18.1640 10.083
18.1792 10.178
18.1943 10.025
18.2095 9.809
18.2247 9.947
18.2399 10.021
18.2550 9.956
18.2702 9.795
18.2854 9.825
18.3006 9.913
18.3157 9.932
18.3309 9.748
18.3461 9.790
18.3613 9.773
18.3764 9.810
18.3916 9.750
18.4068 9.784
18.4220 9.792
18.4371 9.882
18.4523 9.827
18.4675 9.687
18.4827 9.866
18.4978 9.879
18.5130 9.848
18.5282 10.112
18.5434 9.952
18.5585 9.873
18.5737 9.835
18.5889 9.809
18.6041 9.678
18.6192 9.854
18.6344 9.802
18.6496 9.799
18.6648 9.818
18.6799 9.800
18.6951 9.831
18.7103 9.847
18.7255 9.620
18.7406 9.805
18.7558 9.734
18.7710 9.739
18.7862 9.932
18.8013 9.816
18.8165 9.636
18.8317 9.657
18.8469 9.817
18.8620 9.953
18.8772 9.896
18.8924 9.891
18.9076 10.015
18.9227 9.922
18.9379 10.150
18.9531 10.283
18.9683 10.048
18.9834 9.984
18.9986 9.890
19.0138 9.929
19.0290 9.998
19.0441 10.296
19.0593 10.460
19.0745 10.265
19.0897 10.099
19.1048 10.242
19.1200 10.355
19.1352 10.294
19.1504 10.527
19.1655 10.617
19.1807 10.635
19.1959 10.685
19.2111 10.566
19.2262 10.706
19.2414 10.830
19.2566 10.855
19.2718 10.748
19.2869 10.636
19.3021 10.906
19.3173 11.027
19.3325 10.823
19.3476 10.807
19.3628 10.968
19.3780 11.269
19.3932 11.288
19.4083 11.074
19.4235 11.025
19.4387 11.023
19.4539 11.218
19.4690 11.348
19.4842 11.438
19.4994 11.380
19.5146 11.267
19.5297 11.555
19.5449 11.669
19.5601 11.492
19.5753 11.415
19.5904 11.652
19.6056 11.703
19.6208 11.354
19.6360 11.566
19.6511 11.779
19.6663 11.607
19.6815 11.594
19.6967 11.524
19.7118 11.453
19.7270 11.474
19.7422 11.511
19.7574 11.601
19.7725 11.911
19.7877 12.114
19.8029 12.006
19.8180 11.943
19.8332 11.927
19.8484 11.902
19.8636 12.147
19.8787 12.405
19.8939 12.505
19.9091 12.913
19.9243 13.484
19.9394 13.918
19.9546 14.267
19.9698 14.313
19.9850 14.145
20.0001 14.086
20.0153 13.715
20.0305 13.705
20.0457 13.908
20.0608 13.784
20.0760 13.641
20.0912 13.323
20.1064 13.500
20.1215 13.659
20.1367 13.252
20.1519 12.998
20.1671 12.782
20.1822 12.768
20.1974 13.059
20.2126 12.965
20.2278 12.818
20.2429 12.836
20.2581 12.580
20.2733 12.243
20.2885 12.302
20.3036 12.075
20.3188 12.056
20.3340 12.358
20.3492 12.133
20.3643 11.887
20.3795 11.709
20.3947 11.326
20.4099 11.321
20.4250 11.328
20.4402 11.198
20.4554 11.169
20.4706 11.228
20.4857 11.168
20.5009 11.006
20.5161 11.497
20.5313 11.115
20.5464 11.056
20.5616 11.010
20.5768 10.882
20.5920 10.930
20.6071 11.024
20.6223 10.688
20.6375 10.891
20.6527 11.048
20.6678 10.522
20.6830 10.667
20.6982 10.579
20.7134 10.543
20.7285 10.974
20.7437 10.701
20.7589 10.975
20.7741 10.718
20.7892 10.533
20.8044 10.534
20.8196 10.860
20.8348 10.428
20.8499 10.569
20.8651 10.017
20.8803 10.297
20.8955 9.960
20.9106 10.523
20.9258 10.399
20.9410 10.173
20.9562 10.303
20.9713 10.109
20.9865 10.148
21.0017 10.056
21.0169 9.890
21.0320 10.324
21.0472 9.864
21.0624 9.862
21.0776 9.863
21.0927 9.722
21.1079 10.098
21.1231 9.525
21.1383 9.900
21.1534 9.737
21.1686 9.746
21.1838 10.173
21.1990 9.866
21.2141 9.497
21.2293 9.786
21.2445 9.611
21.2597 9.681
21.2748 9.770
21.2900 9.378
21.3052 10.025
21.3204 9.656
21.3355 9.646
21.3507 9.355
21.3659 9.419
21.3811 9.540
21.3962 9.313
21.4114 9.359
21.4266 9.311
21.4418 9.792
21.4569 9.639
21.4721 9.329
21.4873 9.731
21.5025 9.654
21.5176 8.995
21.5328 9.565
21.5480 9.364
21.5632 9.419
21.5783 9.300
21.5935 9.156
21.6087 9.236
21.6239 9.184
21.6390 9.090
21.6542 9.218
21.6694 9.540
21.6846 9.183
21.6997 9.232
21.7149 9.114
21.7301 9.215
21.7453 9.354
21.7604 9.249
21.7756 8.970
21.7908 9.024
21.8060 9.032
21.8211 9.112
21.8363 9.028
21.8515 9.006
21.8667 9.356
21.8818 9.191
21.8970 9.018
21.9122 9.116
21.9274 9.374
21.9425 9.239
21.9577 8.873
21.9729 9.031
21.9881 8.935
22.0032 8.856
22.0184 8.931
22.0336 9.005
22.0488 9.050
22.0639 8.905
22.0791 8.662
22.0943 8.612
22.1095 8.751
22.1246 8.693
22.1398 8.572
22.1550 8.787
22.1702 8.788
22.1853 8.682
22.2005 8.618
22.2157 8.740
22.2309 8.619
22.2460 8.645
22.2612 8.712
22.2764 8.925
22.2916 8.727
22.3067 8.635
22.3219 8.501
22.3371 8.422
22.3523 8.559
22.3674 8.621
22.3826 8.421
22.3978 8.602
22.4130 8.116
22.4281 8.476
22.4433 8.750
22.4585 8.447
22.4737 8.578
22.4888 8.523
22.5040 8.250
22.5192 8.428
22.5344 8.362
22.5495 8.562
22.5647 8.490
22.5799 8.494
22.5951 8.456
22.6102 8.364
22.6254 8.289
22.6406 8.386
22.6558 8.497
22.6709 8.547
22.6861 8.547
22.7013 8.160
22.7165 8.104
22.7316 6.580
