'Id: "" Comment: "" Operator: "Lab Manager" Anode: "Mo" Scantype: "Still (Eiger2R_500K (1D mode))" TimePerStep: "300" X: "11.8" Y: "9.4" Z: "11.284" 
7.2532 18.593
7.2684 18.971
7.2836 18.653
7.2987 18.747
7.3139 18.885
7.3291 19.151
7.3443 19.662
7.3594 19.287
7.3746 19.667
7.3898 19.489
7.4050 19.268
7.4201 19.366
7.4353 19.505
7.4505 19.686
7.4657 19.880
7.4808 19.548
7.4960 19.619
7.5112 19.595
7.5264 19.756
7.5415 19.918
7.5567 19.946
7.5719 19.762
7.5871 19.890
7.6022 19.818
7.6174 20.056
7.6326 20.449
7.6478 20.493
7.6629 20.244
7.6781 20.364
7.6933 20.251
7.7085 20.276
7.7236 20.370
7.7388 20.150
7.7540 20.291
7.7692 20.477
7.7843 20.504
7.7995 20.607
7.8147 20.686
7.8299 20.788
7.8450 20.919
7.8602 20.900
7.8754 21.136
7.8905 21.366
7.9057 21.469
7.9209 21.233
7.9361 21.480
7.9512 21.508
7.9664 21.234
7.9816 21.008
7.9968 21.474
8.0119 21.618
8.0271 20.984
8.0423 21.133
8.0575 21.128
8.0726 21.475
8.0878 21.249
8.1030 21.306
8.1182 21.354
8.1333 21.685
8.1485 21.482
8.1637 21.462
8.1789 21.721
8.1940 21.609
8.2092 21.553
8.2244 21.197
8.2396 21.452
8.2547 21.856
8.2699 21.822
8.2851 22.031
8.3003 21.868
8.3154 21.921
8.3306 21.591
8.3458 22.020
8.3610 21.495
8.3761 21.524
8.3913 21.878
8.4065 22.128
8.4217 21.960
8.4368 21.488
8.4520 22.425
8.4672 21.768
8.4824 22.453
8.4975 22.076
8.5127 22.161
8.5279 21.781
8.5431 22.172
8.5582 22.516
8.5734 22.277
8.5886 22.175
8.6038 22.722
8.6189 22.354
8.6341 22.461
8.6493 22.528
8.6645 22.440
8.6796 22.855
8.6948 23.329
8.7100 22.844
8.7252 23.266
8.7403 23.285
8.7555 23.282
8.7707 22.888
8.7859 22.797
8.8010 22.286
8.8162 22.760
8.8314 22.375
8.8466 22.398
8.8617 22.339
8.8769 22.666
8.8921 22.832
8.9073 22.733
8.9224 22.414
8.9376 22.466
8.9528 22.618
8.9680 22.794
8.9831 22.696
8.9983 22.626
9.0135 22.980
9.0287 22.929
9.0438 22.664
9.0590 23.172
9.0742 23.212
9.0894 22.964
9.1045 23.191
9.1197 22.603
9.1349 22.923
9.1501 23.039
9.1652 23.152
9.1804 22.847
9.1956 22.830
9.2108 22.748
9.2259 22.586
9.2411 23.081
9.2563 23.184
9.2715 23.052
9.2866 23.141
9.3018 23.611
9.3170 23.000
9.3322 23.211
9.3473 23.172
9.3625 22.919
9.3777 23.051
9.3929 23.343
9.4080 23.762
9.4232 23.296
9.4384 23.492
9.4536 23.515
9.4687 23.443
9.4839 23.443
9.4991 23.228
9.5143 23.265
9.5294 23.149
9.5446 23.033
9.5598 23.341
9.5750 23.393
9.5901 23.329
9.6053 23.167
9.6205 23.076
9.6357 23.229
9.6508 23.558
9.6660 23.740
9.6812 23.760
9.6964 23.954
9.7115 24.013
9.7267 24.033
9.7419 24.567
9.7571 24.624
9.7722 24.029
9.7874 23.995
9.8026 24.012
9.8178 23.724
9.8329 23.385
9.8481 23.399
9.8633 23.654
9.8785 23.788
9.8936 23.485
9.9088 23.222
9.9240 23.442
9.9392 23.838
9.9543 23.698
9.9695 23.616
9.9847 23.714
9.9999 23.341
10.0150 23.433
10.0302 23.520
10.0454 23.470
10.0606 23.617
10.0757 23.684
10.0909 23.831
10.1061 23.803
10.1213 23.656
10.1364 23.795
10.1516 23.800
10.1668 23.809
10.1820 23.613
10.1971 23.819
10.2123 24.163
10.2275 24.002
10.2427 23.763
10.2578 23.993
10.2730 23.765
10.2882 23.622
10.3034 23.726
10.3185 23.230
10.3337 22.957
10.3489 22.798
10.3641 22.943
10.3792 22.904
10.3944 23.044
10.4096 22.892
10.4248 22.677
10.4399 22.727
10.4551 22.764
10.4703 22.928
10.4855 22.673
10.5006 22.596
10.5158 22.575
10.5310 22.840
10.5462 22.871
10.5613 22.979
10.5765 22.687
10.5917 22.602
10.6069 22.866
10.6220 22.713
10.6372 23.230
10.6524 23.319
10.6676 22.885
10.6827 22.833
10.6979 22.678
10.7131 22.881
10.7283 22.556
10.7434 22.199
10.7586 22.296
10.7738 22.001
10.7890 22.256
10.8041 22.128
10.8193 22.096
10.8345 22.250
10.8497 22.384
10.8648 22.697
10.8800 22.526
10.8952 22.298
10.9104 22.080
10.9255 22.329
10.9407 22.437
10.9559 22.366
10.9711 22.190
10.9862 22.088
11.0014 22.078
11.0166 22.159
11.0318 22.561
11.0469 22.263
11.0621 21.908
11.0773 21.775
11.0925 21.667
11.1076 21.617
11.1228 21.767
11.1380 22.142
11.1532 22.242
11.1683 22.239
11.1835 22.047
11.1987 22.053
11.2139 21.993
11.2290 22.315
11.2442 21.878
11.2594 21.796
11.2746 21.248
11.2897 21.544
11.3049 22.033
11.3201 21.908
11.3353 21.615
11.3504 21.777
11.3656 21.787
11.3808 21.472
11.3960 21.616
11.4111 21.464
11.4263 21.275
11.4415 21.289
11.4567 21.377
11.4718 21.176
11.4870 20.978
11.5022 20.944
11.5174 21.466
11.5325 21.165
11.5477 21.024
11.5629 21.013
11.5781 20.840
11.5932 20.758
11.6084 21.086
11.6236 20.788
11.6388 20.550
11.6539 20.561
11.6691 20.964
11.6843 20.803
11.6995 20.617
11.7146 20.540
11.7298 20.462
11.7450 20.349
11.7602 20.357
11.7753 20.144
11.7905 20.138
11.8057 19.950
11.8209 19.924
11.8360 20.102
11.8512 20.176
11.8664 20.297
11.8816 20.221
11.8967 19.827
11.9119 19.780
11.9271 19.750
11.9423 19.788
11.9574 19.479
11.9726 19.442
11.9878 19.243
12.0030 19.100
12.0181 18.909
12.0333 18.869
12.0485 19.131
12.0637 19.423
12.0788 19.696
12.0940 19.374
12.1092 19.163
12.1244 18.903
12.1395 18.700
12.1547 18.729
12.1699 18.438
12.1851 18.287
12.2002 18.151
12.2154 17.893
12.2306 18.154
12.2458 18.052
12.2609 17.946
12.2761 17.685
12.2913 17.655
12.3065 17.965
12.3216 17.799
12.3368 17.302
12.3520 17.483
12.3672 17.779
12.3823 17.139
12.3975 17.346
12.4127 17.650
12.4279 17.083
12.4430 17.092
12.4582 17.165
12.4734 17.177
12.4886 17.264
12.5037 17.137
12.5189 16.855
12.5341 16.780
12.5493 16.399
12.5644 16.189
12.5796 16.303
12.5948 16.346
12.6100 16.213
12.6251 16.380
12.6403 16.268
12.6555 15.777
12.6707 15.844
12.6858 15.846
12.7010 15.787
12.7162 15.776
12.7314 15.781
12.7465 15.625
12.7617 15.370
12.7769 15.546
12.7921 15.404
12.8072 15.098
12.8224 15.165
12.8376 15.092
12.8528 14.956
12.8679 15.150
12.8831 14.953
12.8983 14.795
12.9135 14.740
12.9286 14.604
12.9438 14.470
12.9590 14.532
12.9742 14.685
12.9893 14.649
13.0045 14.641
13.0197 14.613
13.0349 14.355
13.0500 14.248
13.0652 14.215
13.0804 13.888
13.0956 13.944
13.1107 14.093
13.1259 13.879
13.1411 13.815
13.1563 13.850
13.1714 13.805
13.1866 13.757
13.2018 13.728
13.2170 13.555
13.2321 13.314
13.2473 13.295
13.2625 13.184
13.2777 13.081
13.2928 13.179
13.3080 13.080
13.3232 12.987
13.3384 13.049
13.3535 13.236
13.3687 13.221
13.3839 12.917
13.3991 13.033
13.4142 13.049
13.4294 12.791
13.4446 13.022
13.4598 13.167
13.4749 13.121
13.4901 12.895
13.5053 12.517
13.5205 12.397
13.5356 12.358
13.5508 12.361
13.5660 12.320
13.5812 12.270
13.5963 12.269
13.6115 12.234
13.6267 12.239
13.6419 12.416
13.6570 12.477
13.6722 12.202
13.6874 12.133
13.7026 12.140
13.7177 12.137
13.7329 12.242
13.7481 12.035
13.7633 11.988
13.7784 12.199
13.7936 11.892
13.8088 12.176
13.8239 12.470
13.8391 12.322
13.8543 12.356
13.8695 12.332
13.8846 12.211
13.8998 12.175
13.9150 12.205
13.9302 12.151
13.9453 12.250
13.9605 11.933
13.9757 11.752
13.9909 11.609
14.0060 11.565
14.0212 11.600
14.0364 11.603
14.0516 11.543
14.0667 11.473
14.0819 11.223
14.0971 11.272
14.1123 11.426
14.1274 11.442
14.1426 11.612
14.1578 11.758
14.1730 11.430
14.1881 11.617
14.2033 11.667
14.2185 11.807
14.2337 11.806
14.2488 11.845
14.2640 11.775
14.2792 11.720
14.2944 11.818
14.3095 12.159
14.3247 12.016
14.3399 12.473
14.3551 12.764
14.3702 13.148
14.3854 13.117
14.4006 13.002
14.4158 12.980
14.4309 12.977
14.4461 12.726
14.4613 12.714
14.4765 12.446
14.4916 12.059
14.5068 12.214
14.5220 12.045
14.5372 11.710
14.5523 11.492
14.5675 11.523
14.5827 11.450
14.5979 11.293
14.6130 11.517
14.6282 11.278
14.6434 11.180
14.6586 10.946
14.6737 10.785
14.6889 10.802
14.7041 11.225
14.7193 11.028
14.7344 11.025
14.7496 10.923
14.7648 10.890
14.7800 10.660
14.7951 10.951
14.8103 10.586
14.8255 10.542
14.8407 10.846
14.8558 10.662
14.8710 10.549
14.8862 10.580
14.9014 10.705
14.9165 11.098
14.9317 10.625
14.9469 10.437
14.9621 10.576
14.9772 10.265
14.9924 10.394
15.0076 10.853
15.0228 10.777
15.0379 10.674
15.0531 10.606
15.0683 10.435
15.0835 10.470
15.0986 10.636
15.1138 10.855
15.1290 10.723
15.1442 10.453
15.1593 10.452
15.1745 10.679
15.1897 10.388
15.2049 10.352
15.2200 10.343
15.2352 10.113
15.2504 10.439
15.2656 10.447
15.2807 10.146
15.2959 10.209
15.3111 10.065
15.3263 10.186
15.3414 10.239
15.3566 10.200
15.3718 10.075
15.3870 10.094
15.4021 10.578
15.4173 10.475
15.4325 10.501
15.4477 10.260
15.4628 10.469
15.4780 10.356
15.4932 10.289
15.5084 10.484
15.5235 10.427
15.5387 10.388
15.5539 10.268
15.5691 10.471
15.5842 10.161
15.5994 10.293
15.6146 10.161
15.6298 9.877
15.6449 10.036
15.6601 10.076
15.6753 9.799
15.6905 9.762
15.7056 10.208
15.7208 9.935
15.7360 9.939
15.7512 10.149
15.7663 9.801
15.7815 9.701
15.7967 9.845
15.8119 9.934
15.8270 9.842
15.8422 9.977
15.8574 9.754
15.8726 10.113
15.8877 9.874
15.9029 9.719
15.9181 10.041
15.9333 9.784
15.9484 9.521
15.9636 9.607
15.9788 9.763
15.9940 9.956
16.0091 9.809
16.0243 9.996
16.0395 9.525
16.0547 9.730
16.0698 10.014
16.0850 9.757
16.1002 9.649
16.1154 9.954
16.1305 9.665
16.1457 9.937
16.1609 9.851
16.1761 9.808
16.1912 9.775
16.2064 9.755
16.2216 9.819
16.2368 9.769
16.2519 10.028
16.2671 9.814
16.2823 10.187
16.2975 9.961
16.3126 9.914
16.3278 10.067
16.3430 10.011
16.3582 10.110
16.3733 10.065
16.3885 9.958
16.4037 9.817
16.4189 9.864
16.4340 9.984
16.4492 9.969
16.4644 10.117
16.4796 9.843
16.4947 9.879
16.5099 9.922
16.5251 9.730
16.5403 9.850
16.5554 9.800
16.5706 9.570
16.5858 9.520
16.6010 9.609
16.6161 9.710
16.6313 9.822
16.6465 9.861
16.6617 9.876
16.6768 9.776
16.6920 9.944
16.7072 9.938
16.7224 10.017
16.7375 10.011
16.7527 10.177
16.7679 10.188
16.7831 9.922
16.7982 9.847
16.8134 9.969
16.8286 9.980
16.8438 9.946
16.8589 9.818
16.8741 9.717
16.8893 9.985
16.9045 9.965
16.9196 9.694
16.9348 9.762
16.9500 9.810
16.9652 9.968
16.9803 10.080
16.9955 10.028
17.0107 10.039
17.0259 9.868
17.0410 9.902
17.0562 10.063
17.0714 10.224
17.0866 10.445
17.1017 10.519
17.1169 10.780
17.1321 11.037
17.1473 11.371
17.1624 11.736
17.1776 12.278
17.1928 13.228
17.2080 14.157
17.2231 14.983
17.2383 16.009
17.2535 17.390
17.2687 18.623
17.2838 19.088
17.2990 18.273
17.3142 17.066
17.3294 16.416
17.3445 16.119
17.3597 16.206
17.3749 15.968
17.3901 15.277
17.4052 14.502
17.4204 13.382
17.4356 12.539
17.4508 12.209
17.4659 11.808
17.4811 11.383
17.4963 11.286
17.5115 11.143
17.5266 10.977
17.5418 11.202
17.5570 11.572
17.5722 11.873
17.5873 11.992
17.6025 11.967
17.6177 11.623
17.6329 11.121
17.6480 11.044
17.6632 11.212
17.6784 10.980
17.6936 10.941
17.7087 11.117
17.7239 10.886
17.7391 10.491
17.7543 10.258
17.7694 10.399
17.7846 10.484
17.7998 10.567
17.8150 10.448
17.8301 10.336
17.8453 10.392
17.8605 10.323
17.8757 10.468
17.8908 10.576
17.9060 10.527
17.9212 10.591
17.9364 10.344
17.9515 10.367
17.9667 10.431
17.9819 10.340
17.9971 10.206
18.0122 10.327
18.0274 10.500
18.0426 10.358
18.0578 10.224
18.0729 10.169
18.0881 10.187
18.1033 10.111
18.1185 10.057
18.1336 10.063
18.1488 10.061
18.1640 10.047
18.1792 10.176
18.1943 10.292
18.2095 10.215
18.2247 9.749
18.2399 9.755
18.2550 9.931
18.2702 9.877
18.2854 10.063
18.3006 10.088
18.3157 9.868
18.3309 9.935
18.3461 9.982
18.3613 9.550
18.3764 9.511
18.3916 9.703
18.4068 9.810
18.4220 9.909
18.4371 9.710
18.4523 9.704
18.4675 9.698
18.4827 9.820
18.4978 9.613
18.5130 9.673
18.5282 9.776
18.5434 9.707
18.5585 9.910
18.5737 9.861
18.5889 9.916
18.6041 9.799
18.6192 9.602
18.6344 9.534
18.6496 9.455
18.6648 9.696
18.6799 9.761
18.6951 9.778
18.7103 9.887
18.7255 9.892
18.7406 9.629
18.7558 9.553
18.7710 9.926
18.7862 10.087
18.8013 9.797
18.8165 9.499
18.8317 9.554
18.8469 9.650
18.8620 9.688
18.8772 9.958
18.8924 9.967
18.9076 9.876
18.9227 9.862
18.9379 9.745
18.9531 9.857
18.9683 9.911
18.9834 9.901
18.9986 9.995
19.0138 10.166
19.0290 10.253
19.0441 10.037
19.0593 10.029
19.0745 10.165
19.0897 10.276
19.1048 10.406
19.1200 10.408
19.1352 10.307
19.1504 10.432
19.1655 10.425
19.1807 10.397
19.1959 10.672
19.2111 10.850
19.2262 10.754
19.2414 10.755
19.2566 10.975
19.2718 11.151
19.2869 10.965
19.3021 10.864
19.3173 10.995
19.3325 11.121
19.3476 11.015
19.3628 10.999
19.3780 11.061
19.3932 11.224
19.4083 11.395
19.4235 11.308
19.4387 11.210
19.4539 11.037
19.4690 11.053
19.4842 11.204
19.4994 11.294
19.5146 11.541
19.5297 11.394
19.5449 11.448
19.5601 11.670
19.5753 11.548
19.5904 11.660
19.6056 11.730
19.6208 11.454
19.6360 11.451
19.6511 11.714
19.6663 11.543
19.6815 11.531
19.6967 11.447
19.7118 11.433
19.7270 11.682
19.7422 11.741
19.7574 11.722
19.7725 11.813
19.7877 11.969
19.8029 12.019
19.8180 11.868
19.8332 12.062
19.8484 12.315
19.8636 12.215
19.8787 12.307
19.8939 12.675
19.9091 13.067
19.9243 13.207
19.9394 13.444
19.9546 13.897
19.9698 14.382
19.9850 14.520
20.0001 14.268
20.0153 14.104
20.0305 13.840
20.0457 13.589
20.0608 13.702
20.0760 13.556
20.0912 13.708
20.1064 13.897
20.1215 13.602
20.1367 13.228
20.1519 13.178
20.1671 13.169
20.1822 13.230
20.1974 13.048
20.2126 12.885
20.2278 12.911
20.2429 12.789
20.2581 12.570
20.2733 12.381
20.2885 12.058
20.3036 11.915
20.3188 11.860
20.3340 11.855
20.3492 11.762
20.3643 11.561
20.3795 11.513
20.3947 11.243
20.4099 11.119
20.4250 11.029
20.4402 10.962
20.4554 10.961
20.4706 10.842
20.4857 10.720
20.5009 10.860
20.5161 10.839
20.5313 10.692
20.5464 10.742
20.5616 10.983
20.5768 11.202
20.5920 10.950
20.6071 10.868
20.6223 10.795
20.6375 10.806
20.6527 10.491
20.6678 10.657
20.6830 10.631
20.6982 10.536
20.7134 10.581
20.7285 10.421
20.7437 10.403
20.7589 10.282
20.7741 10.390
20.7892 10.594
20.8044 10.422
20.8196 10.326
20.8348 10.266
20.8499 10.095
20.8651 10.181
20.8803 10.043
20.8955 10.172
20.9106 10.021
20.9258 10.225
20.9410 10.130
20.9562 10.116
20.9713 10.239
20.9865 10.335
21.0017 9.721
21.0169 10.138
21.0320 10.216
21.0472 9.874
21.0624 9.862
21.0776 9.689
21.0927 9.559
21.1079 9.767
21.1231 9.893
21.1383 9.671
21.1534 9.827
21.1686 9.778
21.1838 9.738
21.1990 9.896
21.2141 9.599
21.2293 9.768
21.2445 9.817
21.2597 9.646
21.2748 9.551
21.2900 9.573
21.3052 9.811
21.3204 9.520
21.3355 9.635
21.3507 9.580
21.3659 9.531
21.3811 9.813
21.3962 9.579
21.4114 9.393
21.4266 9.456
21.4418 9.477
21.4569 9.391
21.4721 9.531
21.4873 9.464
21.5025 9.332
21.5176 9.598
21.5328 9.199
21.5480 9.258
21.5632 9.066
21.5783 9.222
21.5935 9.332
21.6087 9.187
21.6239 8.843
21.6390 8.758
21.6542 9.197
21.6694 9.248
21.6846 8.846
21.6997 8.939
21.7149 9.245
21.7301 9.332
21.7453 9.220
21.7604 9.006
21.7756 9.030
21.7908 8.775
21.8060 9.141
21.8211 8.976
21.8363 8.935
21.8515 9.171
21.8667 9.000
21.8818 8.922
21.8970 9.245
21.9122 9.211
21.9274 8.969
21.9425 9.021
21.9577 9.122
21.9729 8.923
21.9881 8.961
22.0032 8.920
22.0184 8.679
22.0336 8.807
22.0488 8.893
22.0639 8.772
22.0791 8.621
22.0943 8.607
22.1095 8.645
22.1246 8.568
22.1398 8.690
22.1550 8.754
22.1702 8.780
22.1853 8.618
22.2005 8.648
22.2157 8.845
22.2309 8.816
22.2460 8.679
22.2612 8.742
22.2764 8.737
22.2916 8.661
22.3067 8.641
22.3219 8.382
22.3371 8.589
22.3523 8.477
22.3674 8.760
22.3826 8.602
22.3978 8.371
22.4130 8.495
22.4281 8.594
22.4433 8.532
22.4585 8.658
22.4737 8.933
22.4888 8.405
22.5040 8.472
22.5192 8.400
22.5344 8.337
22.5495 8.566
22.5647 8.368
22.5799 8.320
22.5951 8.638
22.6102 8.474
22.6254 8.297
22.6406 8.418
22.6558 8.427
22.6709 8.542
22.6861 8.141
22.7013 8.345
22.7165 8.113
22.7316 6.498
