'Id: "" Comment: "" Operator: "Lab Manager" Anode: "Mo" Scantype: "Still (Eiger2R_500K (1D mode))" TimePerStep: "300" X: "11.8" Y: "9.4" Z: "11.284" 
7.2532 18.353
7.2684 18.788
7.2836 19.013
7.2987 18.691
7.3139 19.406
7.3291 19.534
7.3443 19.009
7.3594 19.660
7.3746 19.140
7.3898 19.106
7.4050 19.225
7.4201 19.362
7.4353 19.880
7.4505 19.428
7.4657 19.645
7.4808 19.474
7.4960 19.296
7.5112 19.394
7.5264 19.630
7.5415 20.271
7.5567 19.917
7.5719 19.626
7.5871 19.877
7.6022 20.180
7.6174 20.338
7.6326 20.169
7.6478 19.875
7.6629 19.576
7.6781 19.893
7.6933 20.243
7.7085 20.516
7.7236 20.666
7.7388 20.702
7.7540 20.545
7.7692 20.436
7.7843 20.225
7.7995 20.272
7.8147 20.444
7.8299 20.470
7.8450 20.261
7.8602 20.281
7.8754 20.817
7.8905 21.227
7.9057 21.340
7.9209 21.393
7.9361 21.176
7.9512 21.090
7.9664 21.129
7.9816 20.980
7.9968 21.095
8.0119 21.401
8.0271 21.461
8.0423 21.610
8.0575 21.715
8.0726 21.467
8.0878 21.408
8.1030 21.579
8.1182 21.222
8.1333 21.747
8.1485 21.812
8.1637 21.391
8.1789 21.232
8.1940 21.571
8.2092 21.338
8.2244 21.366
8.2396 21.433
8.2547 21.829
8.2699 21.628
8.2851 21.569
8.3003 21.807
8.3154 22.299
8.3306 22.009
8.3458 22.038
8.3610 21.558
8.3761 21.967
8.3913 21.429
8.4065 21.756
8.4217 21.779
8.4368 21.887
8.4520 22.206
8.4672 21.786
8.4824 22.508
8.4975 22.074
8.5127 22.239
8.5279 21.930
8.5431 21.843
8.5582 21.948
8.5734 21.861
8.5886 22.068
8.6038 22.032
8.6189 22.163
8.6341 21.993
8.6493 22.383
8.6645 22.575
8.6796 22.584
8.6948 22.340
8.7100 22.733
8.7252 22.463
8.7403 22.677
8.7555 22.374
8.7707 22.806
8.7859 22.048
8.8010 22.615
8.8162 22.531
8.8314 22.687
8.8466 22.352
8.8617 22.536
8.8769 22.546
8.8921 22.233
8.9073 22.598
8.9224 22.604
8.9376 23.026
8.9528 23.314
8.9680 22.532
8.9831 22.213
8.9983 22.999
9.0135 22.866
9.0287 22.934
9.0438 22.859
9.0590 22.907
9.0742 23.047
9.0894 23.119
9.1045 23.041
9.1197 22.800
9.1349 22.708
9.1501 23.087
9.1652 22.868
9.1804 22.903
9.1956 22.665
9.2108 22.902
9.2259 22.938
9.2411 23.046
9.2563 22.960
9.2715 23.195
9.2866 23.210
9.3018 23.101
9.3170 23.225
9.3322 23.562
9.3473 23.605
9.3625 23.117
9.3777 23.191
9.3929 23.195
9.4080 23.301
9.4232 23.187
9.4384 23.168
9.4536 22.928
9.4687 23.011
9.4839 22.959
9.4991 22.992
9.5143 23.018
9.5294 23.179
9.5446 23.540
9.5598 23.589
9.5750 23.469
9.5901 23.316
9.6053 23.419
9.6205 23.503
9.6357 23.714
9.6508 23.714
9.6660 23.761
9.6812 23.900
9.6964 23.801
9.7115 23.888
9.7267 24.184
9.7419 24.308
9.7571 24.226
9.7722 23.935
9.7874 23.774
9.8026 23.589
9.8178 23.266
9.8329 23.171
9.8481 23.282
9.8633 23.610
9.8785 23.711
9.8936 23.431
9.9088 23.052
9.9240 23.174
9.9392 23.475
9.9543 23.527
9.9695 23.394
9.9847 23.274
9.9999 23.257
10.0150 23.525
10.0302 23.644
10.0454 23.478
10.0606 23.306
10.0757 23.463
10.0909 23.879
10.1061 23.295
10.1213 23.351
10.1364 23.775
10.1516 23.475
10.1668 23.382
10.1820 23.083
10.1971 23.175
10.2123 23.450
10.2275 23.627
10.2427 23.425
10.2578 23.211
10.2730 23.258
10.2882 23.229
10.3034 23.091
10.3185 22.844
10.3337 22.949
10.3489 22.909
10.3641 23.034
10.3792 22.748
10.3944 22.974
10.4096 22.910
10.4248 22.791
10.4399 23.104
10.4551 23.260
10.4703 23.008
10.4855 23.202
10.5006 23.024
10.5158 22.923
10.5310 22.615
10.5462 22.744
10.5613 22.722
10.5765 22.790
10.5917 22.566
10.6069 22.222
10.6220 22.589
10.6372 22.552
10.6524 22.873
10.6676 22.553
10.6827 22.354
10.6979 22.529
10.7131 22.529
10.7283 22.585
10.7434 22.583
10.7586 22.469
10.7738 22.607
10.7890 22.610
10.8041 22.278
10.8193 22.271
10.8345 22.371
10.8497 22.388
10.8648 22.235
10.8800 22.335
10.8952 22.123
10.9104 22.382
10.9255 22.358
10.9407 22.195
10.9559 22.008
10.9711 22.209
10.9862 22.157
11.0014 22.040
11.0166 21.967
11.0318 22.317
11.0469 22.041
11.0621 21.828
11.0773 21.908
11.0925 21.925
11.1076 21.985
11.1228 22.025
11.1380 22.031
11.1532 22.268
11.1683 21.865
11.1835 21.999
11.1987 21.798
11.2139 21.510
11.2290 21.389
11.2442 21.657
11.2594 21.913
11.2746 21.647
11.2897 21.354
11.3049 21.454
11.3201 21.541
11.3353 21.826
11.3504 21.666
11.3656 21.865
11.3808 21.787
11.3960 21.658
11.4111 21.826
11.4263 21.695
11.4415 21.379
11.4567 21.442
11.4718 21.206
11.4870 21.533
11.5022 21.224
11.5174 21.198
11.5325 21.271
11.5477 20.956
11.5629 20.880
11.5781 21.157
11.5932 21.093
11.6084 20.630
11.6236 20.713
11.6388 20.768
11.6539 21.100
11.6691 20.811
11.6843 20.684
11.6995 20.668
11.7146 20.394
11.7298 20.566
11.7450 20.108
11.7602 20.086
11.7753 20.331
11.7905 20.272
11.8057 20.027
11.8209 20.132
11.8360 20.384
11.8512 20.069
11.8664 20.042
11.8816 20.014
11.8967 19.593
11.9119 19.575
11.9271 19.697
11.9423 19.515
11.9574 19.852
11.9726 19.667
11.9878 19.506
12.0030 19.401
12.0181 19.068
12.0333 18.593
12.0485 18.830
12.0637 18.853
12.0788 19.051
12.0940 18.733
12.1092 18.901
12.1244 18.731
12.1395 18.320
12.1547 18.600
12.1699 18.608
12.1851 18.543
12.2002 18.438
12.2154 18.326
12.2306 18.052
12.2458 18.313
12.2609 18.434
12.2761 18.268
12.2913 18.097
12.3065 18.013
12.3216 17.873
12.3368 17.572
12.3520 17.233
12.3672 17.195
12.3823 17.156
12.3975 17.043
12.4127 17.445
12.4279 17.452
12.4430 17.194
12.4582 17.216
12.4734 17.137
12.4886 16.925
12.5037 16.958
12.5189 16.821
12.5341 16.569
12.5493 16.384
12.5644 16.149
12.5796 16.344
12.5948 16.274
12.6100 16.168
12.6251 16.092
12.6403 15.991
12.6555 15.942
12.6707 15.750
12.6858 15.769
12.7010 15.777
12.7162 15.565
12.7314 15.645
12.7465 15.799
12.7617 15.573
12.7769 15.352
12.7921 15.292
12.8072 15.237
12.8224 15.091
12.8376 15.008
12.8528 14.981
12.8679 15.006
12.8831 14.858
12.8983 14.859
12.9135 15.025
12.9286 14.795
12.9438 14.328
12.9590 14.333
12.9742 14.623
12.9893 14.595
13.0045 14.396
13.0197 14.436
13.0349 14.242
13.0500 14.086
13.0652 14.252
13.0804 14.081
13.0956 13.940
13.1107 13.905
13.1259 13.933
13.1411 13.976
13.1563 13.734
13.1714 13.750
13.1866 13.833
13.2018 13.637
13.2170 13.329
13.2321 13.141
13.2473 13.375
13.2625 13.433
13.2777 13.358
13.2928 13.356
13.3080 13.095
13.3232 13.256
13.3384 13.229
13.3535 12.960
13.3687 13.103
13.3839 13.101
13.3991 13.234
13.4142 13.303
13.4294 13.166
13.4446 12.845
13.4598 12.903
13.4749 12.926
13.4901 12.844
13.5053 12.643
13.5205 12.538
13.5356 12.535
13.5508 12.546
13.5660 12.514
13.5812 12.440
13.5963 12.245
13.6115 12.199
13.6267 12.318
13.6419 12.411
13.6570 12.230
13.6722 12.191
13.6874 12.322
13.7026 12.182
13.7177 12.077
13.7329 12.156
13.7481 12.340
13.7633 12.206
13.7784 12.077
13.7936 11.996
13.8088 12.130
13.8239 12.209
13.8391 12.180
13.8543 12.263
13.8695 12.375
13.8846 12.233
13.8998 12.350
13.9150 12.457
13.9302 12.143
13.9453 12.132
13.9605 11.741
13.9757 11.613
13.9909 11.625
14.0060 11.837
14.0212 11.754
14.0364 11.500
14.0516 11.391
14.0667 11.746
14.0819 11.540
14.0971 11.288
14.1123 11.480
14.1274 11.541
14.1426 11.650
14.1578 11.506
14.1730 11.434
14.1881 11.702
14.2033 11.471
14.2185 11.307
14.2337 11.316
14.2488 11.555
14.2640 11.665
14.2792 11.898
14.2944 12.005
14.3095 11.870
14.3247 11.962
14.3399 12.201
14.3551 12.600
14.3702 13.066
14.3854 13.122
14.4006 13.394
14.4158 13.435
14.4309 13.523
14.4461 13.190
14.4613 12.983
14.4765 12.569
14.4916 12.298
14.5068 12.057
14.5220 11.934
14.5372 11.395
14.5523 11.322
14.5675 10.987
14.5827 11.022
14.5979 11.049
14.6130 11.039
14.6282 11.164
14.6434 11.016
14.6586 11.273
14.6737 10.864
14.6889 10.730
14.7041 10.825
14.7193 10.689
14.7344 10.743
14.7496 10.946
14.7648 10.940
14.7800 10.792
14.7951 10.779
14.8103 10.931
14.8255 10.582
14.8407 10.743
14.8558 10.691
14.8710 10.904
14.8862 10.834
14.9014 10.737
14.9165 10.932
14.9317 11.211
14.9469 10.552
14.9621 10.518
14.9772 10.316
14.9924 10.600
15.0076 10.462
15.0228 10.338
15.0379 10.600
15.0531 10.317
15.0683 10.370
15.0835 10.198
15.0986 10.480
15.1138 10.474
15.1290 10.488
15.1442 10.168
15.1593 10.396
15.1745 10.293
15.1897 10.420
15.2049 10.080
15.2200 10.224
15.2352 10.319
15.2504 10.285
15.2656 10.358
15.2807 10.300
15.2959 10.268
15.3111 10.268
15.3263 10.091
15.3414 10.246
15.3566 10.196
15.3718 10.195
15.3870 10.122
15.4021 9.892
15.4173 10.347
15.4325 10.345
15.4477 10.538
15.4628 10.428
15.4780 10.371
15.4932 10.378
15.5084 10.321
15.5235 10.224
15.5387 10.201
15.5539 10.097
15.5691 10.354
15.5842 10.346
15.5994 10.028
15.6146 10.218
15.6298 10.176
15.6449 10.049
15.6601 9.776
15.6753 10.264
15.6905 9.928
15.7056 9.844
15.7208 9.859
15.7360 9.904
15.7512 9.586
15.7663 9.751
15.7815 9.977
15.7967 10.015
15.8119 9.758
15.8270 9.673
15.8422 9.799
15.8574 9.985
15.8726 9.850
15.8877 9.810
15.9029 9.559
15.9181 9.744
15.9333 9.637
15.9484 9.605
15.9636 9.654
15.9788 9.869
15.9940 9.889
16.0091 9.670
16.0243 10.045
16.0395 9.933
16.0547 9.780
16.0698 9.712
16.0850 9.655
16.1002 9.863
16.1154 9.619
16.1305 9.630
16.1457 9.668
16.1609 9.767
16.1761 9.747
16.1912 9.731
16.2064 9.838
16.2216 9.795
16.2368 9.730
16.2519 9.750
16.2671 9.704
16.2823 9.899
16.2975 10.289
16.3126 10.016
16.3278 9.934
16.3430 10.062
16.3582 10.176
16.3733 10.134
16.3885 10.288
16.4037 10.262
16.4189 9.989
16.4340 9.822
16.4492 10.149
16.4644 10.002
16.4796 9.971
16.4947 9.717
16.5099 9.683
16.5251 9.653
16.5403 9.952
16.5554 9.909
16.5706 9.745
16.5858 9.865
16.6010 9.719
16.6161 9.884
16.6313 10.095
16.6465 10.022
16.6617 9.987
16.6768 10.137
16.6920 9.850
16.7072 9.885
16.7224 10.106
16.7375 10.127
16.7527 10.033
16.7679 10.058
16.7831 10.002
16.7982 9.999
16.8134 10.115
16.8286 9.969
16.8438 9.854
16.8589 9.975
16.8741 9.867
16.8893 9.891
16.9045 9.814
16.9196 9.842
16.9348 9.881
16.9500 9.896
16.9652 10.088
16.9803 9.916
16.9955 9.794
17.0107 9.980
17.0259 10.158
17.0410 10.436
17.0562 10.282
17.0714 10.271
17.0866 10.267
17.1017 10.360
17.1169 10.644
17.1321 10.950
17.1473 11.366
17.1624 11.593
17.1776 12.143
17.1928 13.015
17.2080 14.062
17.2231 15.221
17.2383 16.425
17.2535 17.558
17.2687 18.470
17.2838 18.766
17.2990 18.231
17.3142 17.051
17.3294 16.029
17.3445 15.933
17.3597 16.058
17.3749 15.808
17.3901 15.289
17.4052 14.305
17.4204 13.238
17.4356 12.461
17.4508 11.952
17.4659 11.616
17.4811 11.336
17.4963 11.194
17.5115 11.074
17.5266 10.873
17.5418 10.682
17.5570 10.688
17.5722 10.907
17.5873 11.018
17.6025 10.926
17.6177 11.242
17.6329 11.358
17.6480 11.261
17.6632 11.472
17.6784 11.687
17.6936 11.690
17.7087 11.651
17.7239 11.353
17.7391 10.974
17.7543 11.187
17.7694 11.177
17.7846 11.011
17.7998 11.031
17.8150 11.168
17.8301 10.895
17.8453 10.562
17.8605 10.673
17.8757 10.561
17.8908 10.363
17.9060 10.425
17.9212 10.254
17.9364 10.158
17.9515 10.214
17.9667 10.323
17.9819 10.312
17.9971 10.372
18.0122 10.372
18.0274 10.246
18.0426 10.144
18.0578 10.257
18.0729 10.279
18.0881 10.165
18.1033 10.017
18.1185 10.033
18.1336 10.038
18.1488 9.809
18.1640 9.755
18.1792 10.021
18.1943 10.080
18.2095 9.982
18.2247 9.799
18.2399 9.858
18.2550 10.029
18.2702 9.887
18.2854 9.734
18.3006 9.772
18.3157 9.751
18.3309 9.831
18.3461 9.959
18.3613 9.718
18.3764 9.757
18.3916 9.857
18.4068 9.821
18.4220 9.992
18.4371 10.121
18.4523 9.831
18.4675 9.765
18.4827 9.962
18.4978 9.800
18.5130 9.637
18.5282 9.858
18.5434 9.780
18.5585 9.830
18.5737 9.908
18.5889 9.799
18.6041 9.919
18.6192 9.922
18.6344 9.637
18.6496 9.716
18.6648 9.687
18.6799 9.665
18.6951 9.709
18.7103 9.914
18.7255 9.781
18.7406 9.773
18.7558 9.740
18.7710 9.801
18.7862 9.831
18.8013 9.629
18.8165 9.624
18.8317 9.984
18.8469 9.891
18.8620 9.846
18.8772 9.870
18.8924 9.862
18.9076 9.868
18.9227 10.068
18.9379 10.283
18.9531 10.035
18.9683 10.056
18.9834 10.201
18.9986 10.134
19.0138 9.866
19.0290 9.916
19.0441 10.053
19.0593 10.196
19.0745 10.072
19.0897 10.355
19.1048 10.576
19.1200 10.563
19.1352 10.495
19.1504 10.438
19.1655 10.601
19.1807 10.675
19.1959 10.636
19.2111 10.777
19.2262 10.776
19.2414 10.909
19.2566 11.047
19.2718 10.899
19.2869 10.886
19.3021 11.145
19.3173 11.073
19.3325 10.851
19.3476 11.158
19.3628 11.096
19.3780 10.996
19.3932 11.074
19.4083 10.960
19.4235 10.976
19.4387 11.154
19.4539 11.318
19.4690 11.009
19.4842 11.135
19.4994 11.468
19.5146 11.418
19.5297 11.675
19.5449 11.596
19.5601 11.420
19.5753 11.735
19.5904 11.990
19.6056 11.816
19.6208 11.507
19.6360 11.738
19.6511 11.805
19.6663 11.840
19.6815 11.795
19.6967 11.649
19.7118 11.652
19.7270 11.630
19.7422 11.673
19.7574 11.628
19.7725 11.673
19.7877 11.798
19.8029 11.962
19.8180 11.941
19.8332 12.040
19.8484 12.297
19.8636 12.543
19.8787 12.719
19.8939 12.857
19.9091 13.052
19.9243 13.541
19.9394 13.860
19.9546 14.053
19.9698 14.333
19.9850 14.480
20.0001 14.450
20.0153 14.246
20.0305 13.863
20.0457 13.651
20.0608 13.700
20.0760 13.556
20.0912 13.518
20.1064 13.572
20.1215 13.428
20.1367 13.158
20.1519 12.954
20.1671 12.891
20.1822 12.878
20.1974 12.669
20.2126 12.546
20.2278 12.605
20.2429 12.699
20.2581 12.229
20.2733 12.074
20.2885 11.867
20.3036 11.605
20.3188 11.620
20.3340 11.729
20.3492 11.878
20.3643 11.953
20.3795 11.593
20.3947 11.451
20.4099 11.624
20.4250 11.454
20.4402 11.506
20.4554 11.390
20.4706 11.612
20.4857 11.621
20.5009 11.579
20.5161 11.544
20.5313 11.231
20.5464 11.341
20.5616 11.411
20.5768 11.240
20.5920 11.127
20.6071 11.344
20.6223 11.179
20.6375 11.045
20.6527 10.926
20.6678 10.791
20.6830 10.783
20.6982 10.531
20.7134 10.639
20.7285 10.491
20.7437 10.537
20.7589 10.428
20.7741 10.441
20.7892 10.386
20.8044 10.465
20.8196 10.496
20.8348 10.457
20.8499 10.381
20.8651 10.249
20.8803 10.355
20.8955 10.257
20.9106 10.228
20.9258 10.361
20.9410 10.286
20.9562 10.325
20.9713 10.055
20.9865 10.166
21.0017 10.226
21.0169 9.999
21.0320 9.998
21.0472 10.120
21.0624 9.933
21.0776 9.797
21.0927 10.147
21.1079 10.110
21.1231 10.084
21.1383 10.176
21.1534 9.835
21.1686 9.854
21.1838 9.528
21.1990 9.588
21.2141 9.479
21.2293 9.643
21.2445 9.895
21.2597 10.271
21.2748 9.504
21.2900 9.923
21.3052 9.559
21.3204 9.602
21.3355 9.694
21.3507 9.328
21.3659 9.588
21.3811 9.774
21.3962 9.592
21.4114 9.683
21.4266 9.533
21.4418 9.170
21.4569 9.331
21.4721 9.419
21.4873 9.301
21.5025 9.482
21.5176 9.268
21.5328 9.345
21.5480 9.246
21.5632 9.217
21.5783 9.385
21.5935 9.198
21.6087 9.131
21.6239 9.194
21.6390 9.224
21.6542 9.477
21.6694 9.244
21.6846 9.106
21.6997 9.198
21.7149 8.988
21.7301 9.136
21.7453 9.169
21.7604 9.210
21.7756 9.225
21.7908 9.365
21.8060 9.366
21.8211 9.129
21.8363 9.146
21.8515 9.074
21.8667 9.162
21.8818 9.173
21.8970 9.118
21.9122 9.025
21.9274 8.839
21.9425 8.956
21.9577 9.088
21.9729 8.999
21.9881 8.834
22.0032 8.786
22.0184 8.916
22.0336 8.964
22.0488 8.801
22.0639 8.631
22.0791 8.717
22.0943 8.604
22.1095 8.717
22.1246 8.798
22.1398 8.697
22.1550 8.847
22.1702 8.732
22.1853 8.769
22.2005 8.830
22.2157 8.509
22.2309 8.606
22.2460 8.657
22.2612 8.648
22.2764 8.571
22.2916 8.813
22.3067 8.808
22.3219 8.612
22.3371 8.516
22.3523 8.555
22.3674 8.462
22.3826 8.497
22.3978 8.537
22.4130 8.314
22.4281 8.577
22.4433 8.510
22.4585 8.417
22.4737 8.321
22.4888 8.350
22.5040 8.390
22.5192 8.448
22.5344 8.662
22.5495 8.603
22.5647 8.429
22.5799 8.428
22.5951 8.309
22.6102 8.281
22.6254 8.174
22.6406 8.464
22.6558 8.284
22.6709 8.556
22.6861 8.553
22.7013 7.926
22.7165 7.911
22.7316 6.449
