'Id: "" Comment: "" Operator: "Lab Manager" Anode: "Mo" Scantype: "Still (Eiger2R_500K (1D mode))" TimePerStep: "300" X: "11.8" Y: "9.4" Z: "11.284" 
7.2532 18.764
7.2684 19.175
7.2836 19.362
7.2987 19.130
7.3139 18.982
7.3291 18.879
7.3443 19.000
7.3594 18.967
7.3746 19.159
7.3898 19.174
7.4050 19.091
7.4201 19.465
7.4353 19.534
7.4505 19.614
7.4657 19.370
7.4808 19.558
7.4960 20.006
7.5112 19.785
7.5264 19.548
7.5415 19.414
7.5567 19.608
7.5719 19.732
7.5871 20.033
7.6022 20.032
7.6174 20.279
7.6326 20.217
7.6478 20.115
7.6629 20.102
7.6781 20.236
7.6933 20.490
7.7085 20.139
7.7236 20.129
7.7388 20.428
7.7540 20.018
7.7692 20.199
7.7843 20.392
7.7995 20.554
7.8147 20.684
7.8299 20.424
7.8450 20.584
7.8602 20.569
7.8754 20.387
7.8905 20.646
7.9057 20.834
7.9209 20.520
7.9361 20.287
7.9512 20.349
7.9664 20.690
7.9816 20.687
7.9968 20.987
8.0119 21.094
8.0271 20.748
8.0423 20.886
8.0575 21.067
8.0726 21.143
8.0878 21.007
8.1030 20.811
8.1182 20.742
8.1333 21.034
8.1485 21.163
8.1637 21.420
8.1789 21.209
8.1940 21.568
8.2092 21.761
8.2244 21.560
8.2396 21.148
8.2547 21.582
8.2699 21.427
8.2851 21.529
8.3003 21.929
8.3154 21.643
8.3306 21.411
8.3458 21.922
8.3610 21.119
8.3761 21.371
8.3913 21.652
8.4065 22.164
8.4217 21.966
8.4368 22.598
8.4520 22.095
8.4672 21.731
8.4824 22.675
8.4975 21.447
8.5127 21.836
8.5279 22.216
8.5431 21.852
8.5582 22.026
8.5734 22.209
8.5886 22.334
8.6038 22.282
8.6189 22.269
8.6341 22.140
8.6493 22.086
8.6645 22.563
8.6796 22.366
8.6948 22.336
8.7100 21.724
8.7252 22.362
8.7403 22.400
8.7555 22.495
8.7707 22.546
8.7859 22.186
8.8010 22.476
8.8162 22.451
8.8314 22.515
8.8466 22.210
8.8617 22.541
8.8769 22.097
8.8921 22.353
8.9073 22.325
8.9224 22.695
8.9376 22.767
8.9528 22.311
8.9680 22.685
8.9831 22.959
8.9983 22.507
9.0135 22.576
9.0287 22.855
9.0438 23.048
9.0590 22.422
9.0742 22.568
9.0894 22.881
9.1045 22.504
9.1197 22.813
9.1349 22.987
9.1501 23.174
9.1652 23.148
9.1804 22.675
9.1956 22.932
9.2108 22.645
9.2259 22.474
9.2411 22.793
9.2563 22.807
9.2715 22.467
9.2866 22.640
9.3018 22.705
9.3170 22.697
9.3322 22.845
9.3473 22.850
9.3625 22.665
9.3777 22.666
9.3929 22.699
9.4080 23.206
9.4232 23.011
9.4384 23.118
9.4536 23.113
9.4687 22.918
9.4839 22.980
9.4991 23.122
9.5143 23.166
9.5294 23.021
9.5446 22.876
9.5598 23.100
9.5750 23.171
9.5901 23.402
9.6053 23.431
9.6205 23.453
9.6357 23.526
9.6508 23.371
9.6660 23.319
9.6812 23.403
9.6964 23.794
9.7115 23.874
9.7267 23.856
9.7419 23.978
9.7571 23.980
9.7722 23.735
9.7874 23.479
9.8026 23.315
9.8178 23.442
9.8329 23.266
9.8481 22.977
9.8633 23.027
9.8785 22.996
9.8936 23.090
9.9088 23.148
9.9240 23.262
9.9392 23.082
9.9543 22.826
9.9695 23.028
9.9847 23.288
9.9999 23.109
10.0150 22.810
10.0302 22.735
10.0454 23.108
10.0606 23.156
10.0757 23.196
10.0909 22.971
10.1061 22.632
10.1213 23.238
10.1364 23.584
10.1516 23.442
10.1668 23.126
10.1820 23.473
10.1971 23.476
10.2123 23.307
10.2275 23.166
10.2427 22.947
10.2578 22.864
10.2730 22.523
10.2882 22.705
10.3034 22.581
10.3185 22.747
10.3337 23.144
10.3489 22.840
10.3641 22.763
10.3792 22.628
10.3944 22.695
10.4096 22.449
10.4248 22.472
10.4399 22.429
10.4551 22.843
10.4703 22.567
10.4855 22.377
10.5006 22.165
10.5158 22.281
10.5310 22.186
10.5462 22.425
10.5613 22.342
10.5765 22.570
10.5917 22.504
10.6069 22.337
10.6220 21.997
10.6372 22.069
10.6524 22.234
10.6676 22.410
10.6827 22.293
10.6979 22.453
10.7131 22.580
10.7283 22.010
10.7434 22.532
10.7586 22.597
10.7738 22.241
10.7890 22.217
10.8041 22.052
10.8193 21.767
10.8345 21.857
10.8497 22.218
10.8648 22.230
10.8800 22.327
10.8952 22.163
10.9104 21.800
10.9255 21.765
10.9407 22.298
10.9559 22.107
10.9711 21.823
10.9862 21.952
11.0014 21.930
11.0166 21.995
11.0318 22.452
11.0469 22.100
11.0621 21.389
11.0773 21.701
11.0925 21.886
11.1076 21.747
11.1228 21.875
11.1380 22.121
11.1532 21.650
11.1683 21.536
11.1835 21.717
11.1987 21.534
11.2139 21.532
11.2290 21.443
11.2442 21.660
11.2594 21.804
11.2746 21.746
11.2897 21.691
11.3049 21.402
11.3201 21.239
11.3353 21.186
11.3504 21.367
11.3656 21.453
11.3808 21.267
11.3960 21.353
11.4111 21.402
11.4263 21.304
11.4415 20.702
11.4567 20.811
11.4718 21.134
11.4870 21.182
11.5022 21.078
11.5174 21.173
11.5325 21.070
11.5477 20.689
11.5629 20.734
11.5781 20.983
11.5932 20.771
11.6084 20.727
11.6236 20.556
11.6388 20.581
11.6539 20.342
11.6691 20.639
11.6843 21.054
11.6995 20.617
11.7146 20.367
11.7298 20.275
11.7450 20.417
11.7602 20.304
11.7753 19.796
11.7905 19.853
11.8057 19.988
11.8209 19.866
11.8360 20.169
11.8512 20.073
11.8664 19.852
11.8816 19.781
11.8967 19.942
11.9119 19.536
11.9271 19.581
11.9423 19.548
11.9574 19.572
11.9726 19.562
11.9878 19.095
12.0030 18.965
12.0181 18.960
12.0333 19.019
12.0485 19.142
12.0637 18.911
12.0788 18.671
12.0940 18.733
12.1092 18.814
12.1244 18.516
12.1395 18.521
12.1547 18.434
12.1699 18.576
12.1851 18.607
12.2002 18.323
12.2154 18.101
12.2306 17.945
12.2458 18.106
12.2609 18.280
12.2761 18.039
12.2913 17.731
12.3065 17.540
12.3216 17.809
12.3368 17.641
12.3520 17.595
12.3672 17.464
12.3823 17.249
12.3975 17.208
12.4127 17.219
12.4279 17.169
12.4430 16.938
12.4582 16.855
12.4734 16.987
12.4886 16.852
12.5037 16.399
12.5189 16.381
12.5341 16.522
12.5493 16.519
12.5644 16.222
12.5796 16.063
12.5948 15.963
12.6100 16.103
12.6251 16.070
12.6403 16.001
12.6555 16.206
12.6707 15.980
12.6858 15.707
12.7010 15.359
12.7162 15.462
12.7314 15.728
12.7465 15.617
12.7617 15.555
12.7769 15.401
12.7921 15.260
12.8072 15.170
12.8224 15.087
12.8376 15.220
12.8528 15.226
12.8679 14.852
12.8831 15.086
12.8983 15.106
12.9135 14.656
12.9286 14.297
12.9438 14.239
12.9590 14.456
12.9742 14.302
12.9893 14.034
13.0045 14.350
13.0197 14.523
13.0349 14.529
13.0500 14.407
13.0652 14.120
13.0804 14.060
13.0956 14.043
13.1107 13.753
13.1259 13.545
13.1411 13.694
13.1563 13.669
13.1714 13.437
13.1866 13.626
13.2018 13.718
13.2170 13.402
13.2321 13.631
13.2473 13.501
13.2625 13.183
13.2777 13.252
13.2928 13.184
13.3080 13.245
13.3232 13.407
13.3384 13.400
13.3535 13.060
13.3687 13.024
13.3839 13.171
13.3991 13.230
13.4142 13.135
13.4294 12.903
13.4446 12.711
13.4598 12.559
13.4749 12.493
13.4901 12.552
13.5053 12.665
13.5205 12.718
13.5356 12.462
13.5508 12.483
13.5660 12.497
13.5812 12.297
13.5963 12.263
13.6115 12.281
13.6267 12.127
13.6419 12.000
13.6570 12.432
13.6722 12.205
13.6874 12.211
13.7026 12.310
13.7177 12.322
13.7329 12.198
13.7481 11.751
13.7633 11.689
13.7784 12.103
13.7936 12.323
13.8088 12.032
13.8239 12.023
13.8391 12.313
13.8543 12.173
13.8695 11.899
13.8846 12.262
13.8998 12.405
13.9150 12.034
13.9302 11.823
13.9453 11.889
13.9605 11.961
13.9757 11.635
13.9909 11.624
14.0060 11.532
14.0212 11.647
14.0364 11.971
14.0516 11.836
14.0667 11.573
14.0819 11.515
14.0971 11.459
14.1123 11.590
14.1274 11.723
14.1426 11.403
14.1578 11.637
14.1730 11.873
14.1881 11.602
14.2033 11.660
14.2185 11.788
14.2337 12.075
14.2488 11.828
14.2640 11.904
14.2792 11.988
14.2944 11.769
14.3095 11.904
14.3247 11.910
14.3399 12.433
14.3551 12.640
14.3702 12.733
14.3854 12.958
14.4006 13.155
14.4158 13.040
14.4309 13.337
14.4461 12.861
14.4613 12.676
14.4765 12.214
14.4916 12.398
14.5068 12.067
14.5220 11.545
14.5372 11.843
14.5523 11.438
14.5675 11.153
14.5827 11.040
14.5979 10.897
14.6130 10.895
14.6282 10.578
14.6434 10.973
14.6586 11.001
14.6737 10.805
14.6889 10.792
14.7041 10.912
14.7193 11.359
14.7344 10.948
14.7496 10.522
14.7648 10.874
14.7800 10.898
14.7951 10.655
14.8103 10.653
14.8255 10.644
14.8407 10.800
14.8558 10.454
14.8710 10.609
14.8862 10.057
14.9014 10.664
14.9165 10.714
14.9317 10.442
14.9469 10.483
14.9621 10.832
14.9772 10.383
14.9924 10.361
15.0076 10.353
15.0228 10.348
15.0379 10.546
15.0531 10.236
15.0683 10.422
15.0835 10.248
15.0986 10.041
15.1138 10.020
15.1290 10.306
15.1442 10.231
15.1593 9.855
15.1745 10.002
15.1897 10.027
15.2049 10.162
15.2200 9.945
15.2352 10.475
15.2504 9.823
15.2656 9.862
15.2807 10.362
15.2959 10.056
15.3111 10.298
15.3263 10.581
15.3414 10.374
15.3566 9.917
15.3718 10.313
15.3870 10.261
15.4021 9.651
15.4173 10.173
15.4325 10.176
15.4477 10.481
15.4628 10.188
15.4780 10.132
15.4932 10.196
15.5084 10.151
15.5235 10.157
15.5387 10.157
15.5539 9.924
15.5691 9.867
15.5842 9.657
15.5994 9.748
15.6146 9.882
15.6298 10.034
15.6449 9.808
15.6601 9.647
15.6753 9.739
15.6905 9.774
15.7056 9.543
15.7208 9.615
15.7360 9.707
15.7512 9.759
15.7663 9.934
15.7815 10.012
15.7967 9.752
15.8119 9.696
15.8270 9.771
15.8422 9.738
15.8574 9.632
15.8726 9.643
15.8877 9.613
15.9029 9.314
15.9181 9.449
15.9333 9.514
15.9484 9.751
15.9636 9.966
15.9788 9.798
15.9940 9.622
16.0091 9.576
16.0243 9.716
16.0395 9.652
16.0547 9.750
16.0698 9.537
16.0850 9.764
16.1002 9.697
16.1154 9.592
16.1305 9.598
16.1457 9.683
16.1609 9.672
16.1761 9.651
16.1912 9.607
16.2064 9.580
16.2216 9.771
16.2368 9.773
16.2519 9.971
16.2671 9.875
16.2823 9.882
16.2975 9.591
16.3126 9.829
16.3278 9.942
16.3430 9.977
16.3582 9.800
16.3733 9.705
16.3885 10.108
16.4037 10.072
16.4189 10.059
16.4340 10.041
16.4492 10.015
16.4644 9.871
16.4796 9.834
16.4947 9.586
16.5099 9.550
16.5251 9.712
16.5403 9.500
16.5554 9.419
16.5706 9.445
16.5858 9.641
16.6010 9.682
16.6161 9.698
16.6313 9.627
16.6465 9.920
16.6617 9.835
16.6768 9.694
16.6920 9.827
16.7072 9.785
16.7224 10.075
16.7375 10.151
16.7527 10.156
16.7679 9.986
16.7831 10.050
16.7982 10.017
16.8134 9.997
16.8286 9.942
16.8438 9.916
16.8589 10.039
16.8741 9.989
16.8893 9.929
16.9045 9.888
16.9196 9.659
16.9348 9.573
16.9500 9.723
16.9652 9.779
16.9803 9.601
16.9955 9.807
17.0107 9.992
17.0259 10.001
17.0410 9.968
17.0562 10.201
17.0714 10.299
17.0866 10.373
17.1017 10.564
17.1169 10.716
17.1321 10.874
17.1473 11.067
17.1624 11.648
17.1776 12.355
17.1928 13.072
17.2080 13.988
17.2231 15.095
17.2383 16.339
17.2535 17.412
17.2687 18.169
17.2838 18.521
17.2990 17.846
17.3142 16.896
17.3294 16.159
17.3445 16.029
17.3597 16.034
17.3749 15.665
17.3901 15.389
17.4052 14.554
17.4204 13.433
17.4356 12.684
17.4508 12.373
17.4659 11.977
17.4811 11.825
17.4963 11.826
17.5115 11.493
17.5266 11.281
17.5418 11.105
17.5570 10.941
17.5722 10.962
17.5873 10.951
17.6025 11.058
17.6177 11.264
17.6329 11.262
17.6480 11.216
17.6632 11.261
17.6784 11.478
17.6936 11.441
17.7087 11.367
17.7239 11.104
17.7391 10.877
17.7543 10.873
17.7694 10.950
17.7846 10.964
17.7998 10.856
17.8150 10.643
17.8301 10.279
17.8453 10.260
17.8605 10.389
17.8757 10.323
17.8908 10.122
17.9060 10.093
17.9212 10.201
17.9364 10.140
17.9515 9.955
17.9667 9.981
17.9819 10.133
17.9971 10.193
18.0122 10.183
18.0274 10.203
18.0426 10.385
18.0578 10.268
18.0729 10.049
18.0881 10.004
18.1033 10.038
18.1185 10.001
18.1336 10.047
18.1488 9.953
18.1640 9.753
18.1792 9.836
18.1943 9.860
18.2095 9.837
18.2247 9.754
18.2399 9.814
18.2550 9.651
18.2702 9.725
18.2854 9.848
18.3006 9.878
18.3157 9.877
18.3309 9.921
18.3461 9.927
18.3613 9.799
18.3764 9.831
18.3916 9.630
18.4068 9.682
18.4220 9.861
18.4371 9.717
18.4523 9.692
18.4675 9.663
18.4827 9.672
18.4978 9.965
18.5130 9.921
18.5282 9.937
18.5434 10.056
18.5585 9.920
18.5737 9.905
18.5889 9.818
18.6041 9.776
18.6192 9.856
18.6344 9.698
18.6496 9.654
18.6648 9.786
18.6799 9.726
18.6951 9.728
18.7103 9.692
18.7255 9.472
18.7406 9.597
18.7558 9.857
18.7710 9.797
18.7862 9.808
18.8013 9.933
18.8165 9.756
18.8317 9.756
18.8469 9.918
18.8620 9.926
18.8772 9.942
18.8924 10.003
18.9076 9.833
18.9227 9.697
18.9379 9.710
18.9531 9.984
18.9683 10.152
18.9834 10.032
18.9986 10.019
19.0138 10.064
19.0290 10.053
19.0441 10.274
19.0593 10.423
19.0745 10.336
19.0897 10.407
19.1048 10.479
19.1200 10.396
19.1352 10.580
19.1504 10.511
19.1655 10.295
19.1807 10.388
19.1959 10.455
19.2111 10.390
19.2262 10.283
19.2414 10.439
19.2566 10.649
19.2718 10.860
19.2869 11.088
19.3021 10.951
19.3173 10.906
19.3325 10.847
19.3476 10.739
19.3628 10.907
19.3780 11.026
19.3932 11.011
19.4083 11.169
19.4235 11.044
19.4387 10.827
19.4539 11.128
19.4690 11.391
19.4842 11.342
19.4994 11.265
19.5146 11.297
19.5297 11.406
19.5449 11.478
19.5601 11.614
19.5753 11.732
19.5904 11.769
19.6056 11.550
19.6208 11.616
19.6360 11.854
19.6511 11.644
19.6663 11.572
19.6815 11.606
19.6967 11.618
19.7118 11.937
19.7270 11.880
19.7422 11.827
19.7574 11.994
19.7725 11.897
19.7877 11.921
19.8029 12.047
19.8180 12.099
19.8332 12.058
19.8484 11.924
19.8636 12.061
19.8787 12.441
19.8939 12.864
19.9091 13.102
19.9243 13.056
19.9394 13.484
19.9546 14.104
19.9698 14.373
19.9850 14.504
20.0001 14.389
20.0153 14.177
20.0305 13.957
20.0457 13.862
20.0608 13.791
20.0760 13.596
20.0912 13.800
20.1064 13.854
20.1215 13.357
20.1367 13.057
20.1519 13.347
20.1671 13.273
20.1822 12.950
20.1974 12.765
20.2126 12.678
20.2278 12.481
20.2429 12.416
20.2581 12.479
20.2733 12.225
20.2885 11.935
20.3036 11.930
20.3188 11.856
20.3340 12.082
20.3492 12.167
20.3643 11.966
20.3795 12.149
20.3947 11.784
20.4099 11.967
20.4250 12.007
20.4402 11.720
20.4554 11.678
20.4706 11.636
20.4857 11.594
20.5009 11.478
20.5161 11.677
20.5313 11.839
20.5464 11.544
20.5616 11.485
20.5768 11.410
20.5920 11.142
20.6071 11.144
20.6223 10.760
20.6375 10.958
20.6527 10.714
20.6678 10.823
20.6830 10.534
20.6982 10.721
20.7134 10.401
20.7285 10.642
20.7437 10.598
20.7589 10.515
20.7741 10.433
20.7892 10.170
20.8044 10.326
20.8196 10.435
20.8348 10.304
20.8499 10.483
20.8651 10.431
20.8803 9.837
20.8955 10.140
20.9106 10.291
20.9258 10.206
20.9410 10.129
20.9562 9.891
20.9713 10.088
20.9865 10.085
21.0017 10.213
21.0169 10.196
21.0320 10.180
21.0472 9.808
21.0624 9.748
21.0776 9.932
21.0927 9.940
21.1079 9.581
21.1231 9.863
21.1383 10.030
21.1534 9.722
21.1686 9.874
21.1838 9.570
21.1990 9.843
21.2141 9.432
21.2293 9.601
21.2445 9.812
21.2597 9.814
21.2748 9.742
21.2900 9.469
21.3052 9.750
21.3204 9.852
21.3355 9.684
21.3507 9.724
21.3659 9.745
21.3811 9.422
21.3962 9.376
21.4114 9.483
21.4266 9.160
21.4418 9.512
21.4569 9.143
21.4721 9.619
21.4873 9.248
21.5025 9.301
21.5176 9.315
21.5328 9.390
21.5480 9.364
21.5632 9.207
21.5783 9.125
21.5935 9.281
21.6087 9.427
21.6239 9.263
21.6390 9.269
21.6542 9.191
21.6694 9.033
21.6846 9.311
21.6997 9.421
21.7149 9.030
21.7301 9.013
21.7453 9.055
21.7604 9.053
21.7756 8.983
21.7908 9.018
21.8060 8.970
21.8211 9.172
21.8363 9.227
21.8515 9.031
21.8667 8.993
21.8818 9.038
21.8970 8.951
21.9122 9.179
21.9274 9.140
21.9425 8.832
21.9577 8.696
21.9729 8.795
21.9881 8.770
22.0032 8.874
22.0184 8.923
22.0336 8.860
22.0488 8.687
22.0639 8.619
22.0791 8.651
22.0943 8.735
22.1095 8.819
22.1246 8.769
22.1398 8.616
22.1550 8.690
22.1702 8.707
22.1853 8.664
22.2005 8.625
22.2157 8.654
22.2309 8.585
22.2460 8.415
22.2612 8.362
22.2764 8.500
22.2916 8.622
22.3067 8.733
22.3219 8.231
22.3371 8.224
22.3523 8.389
22.3674 8.370
22.3826 8.394
22.3978 8.367
22.4130 8.381
22.4281 8.977
22.4433 8.514
22.4585 8.484
22.4737 8.176
22.4888 8.468
22.5040 8.717
22.5192 8.346
22.5344 8.364
22.5495 8.371
22.5647 8.381
22.5799 8.520
22.5951 8.636
22.6102 8.387
22.6254 8.644
22.6406 8.818
22.6558 8.132
22.6709 8.781
22.6861 8.320
22.7013 8.255
22.7165 7.955
22.7316 6.509
