'Id: "" Comment: "" Operator: "Lab Manager" Anode: "Mo" Scantype: "Still (Eiger2R_500K (1D mode))" TimePerStep: "300" X: "11.8" Y: "9.4" Z: "11.284" 
7.2532 18.939
7.2684 18.931
7.2836 18.762
7.2987 19.351
7.3139 19.512
7.3291 19.375
7.3443 20.153
7.3594 19.840
7.3746 19.418
7.3898 19.260
7.4050 19.328
7.4201 19.346
7.4353 19.993
7.4505 19.614
7.4657 19.329
7.4808 19.738
7.4960 19.446
7.5112 19.422
7.5264 19.656
7.5415 19.767
7.5567 19.868
7.5719 19.989
7.5871 20.002
7.6022 20.081
7.6174 19.965
7.6326 20.035
7.6478 20.156
7.6629 20.237
7.6781 20.230
7.6933 20.358
7.7085 20.475
7.7236 20.287
7.7388 20.054
7.7540 20.425
7.7692 20.582
7.7843 20.662
7.7995 20.420
7.8147 20.449
7.8299 20.635
7.8450 20.568
7.8602 20.591
7.8754 20.930
7.8905 21.088
7.9057 20.521
7.9209 20.744
7.9361 21.210
7.9512 21.413
7.9664 21.356
7.9816 20.963
7.9968 21.152
8.0119 21.136
8.0271 21.269
8.0423 21.335
8.0575 21.373
8.0726 21.636
8.0878 21.326
8.1030 21.264
8.1182 21.412
8.1333 21.624
8.1485 21.579
8.1637 21.746
8.1789 21.617
8.1940 21.565
8.2092 21.951
8.2244 21.906
8.2396 21.680
8.2547 21.735
8.2699 22.018
8.2851 21.746
8.3003 21.962
8.3154 21.428
8.3306 21.956
8.3458 21.455
8.3610 21.432
8.3761 22.120
8.3913 22.170
8.4065 21.988
8.4217 22.142
8.4368 21.913
8.4520 21.981
8.4672 21.870
8.4824 22.509
8.4975 21.989
8.5127 22.147
8.5279 22.096
8.5431 22.256
8.5582 22.204
8.5734 22.757
8.5886 22.691
8.6038 22.510
8.6189 22.062
8.6341 22.074
8.6493 21.969
8.6645 22.236
8.6796 22.200
8.6948 22.651
8.7100 22.221
8.7252 22.341
8.7403 22.835
8.7555 22.967
8.7707 22.357
8.7859 22.078
8.8010 22.525
8.8162 22.423
8.8314 22.348
8.8466 22.419
8.8617 22.745
8.8769 22.562
8.8921 22.187
8.9073 22.450
8.9224 23.327
8.9376 23.212
8.9528 22.768
8.9680 22.859
8.9831 22.524
8.9983 22.557
9.0135 22.633
9.0287 22.900
9.0438 22.478
9.0590 22.901
9.0742 22.943
9.0894 23.013
9.1045 23.123
9.1197 22.936
9.1349 22.831
9.1501 22.697
9.1652 22.999
9.1804 23.097
9.1956 23.108
9.2108 23.070
9.2259 22.739
9.2411 22.727
9.2563 22.856
9.2715 23.069
9.2866 22.776
9.3018 23.162
9.3170 23.148
9.3322 22.962
9.3473 22.830
9.3625 23.000
9.3777 23.165
9.3929 22.873
9.4080 22.918
9.4232 23.199
9.4384 23.283
9.4536 23.187
9.4687 22.781
9.4839 22.807
9.4991 23.379
9.5143 23.069
9.5294 22.853
9.5446 23.359
9.5598 23.458
9.5750 23.303
9.5901 23.638
9.6053 23.548
9.6205 23.498
9.6357 23.655
9.6508 23.611
9.6660 23.912
9.6812 23.964
9.6964 24.156
9.7115 24.509
9.7267 24.444
9.7419 24.253
9.7571 24.359
9.7722 24.557
9.7874 24.204
9.8026 23.767
9.8178 23.648
9.8329 23.612
9.8481 23.874
9.8633 23.947
9.8785 23.886
9.8936 23.968
9.9088 23.946
9.9240 24.127
9.9392 24.414
9.9543 24.327
9.9695 24.061
9.9847 24.090
9.9999 23.972
10.0150 23.865
10.0302 23.659
10.0454 23.421
10.0606 23.580
10.0757 23.669
10.0909 23.488
10.1061 23.685
10.1213 23.948
10.1364 24.020
10.1516 23.879
10.1668 23.494
10.1820 23.805
10.1971 23.953
10.2123 23.813
10.2275 23.991
10.2427 23.958
10.2578 23.889
10.2730 23.634
10.2882 23.567
10.3034 23.543
10.3185 23.129
10.3337 23.098
10.3489 23.121
10.3641 23.237
10.3792 23.361
10.3944 23.393
10.4096 23.252
10.4248 23.162
10.4399 23.142
10.4551 23.396
10.4703 23.245
10.4855 22.948
10.5006 22.932
10.5158 22.804
10.5310 22.716
10.5462 22.691
10.5613 22.263
10.5765 22.490
10.5917 22.734
10.6069 22.761
10.6220 22.712
10.6372 22.491
10.6524 22.670
10.6676 22.590
10.6827 22.724
10.6979 22.565
10.7131 22.477
10.7283 22.667
10.7434 22.316
10.7586 22.404
10.7738 22.153
10.7890 22.089
10.8041 22.416
10.8193 22.358
10.8345 22.260
10.8497 22.652
10.8648 22.483
10.8800 22.182
10.8952 22.225
10.9104 21.982
10.9255 22.230
10.9407 22.374
10.9559 21.810
10.9711 21.994
10.9862 22.353
11.0014 22.193
11.0166 22.002
11.0318 22.023
11.0469 21.945
11.0621 22.026
11.0773 22.062
11.0925 22.314
11.1076 21.768
11.1228 21.507
11.1380 21.533
11.1532 21.456
11.1683 21.559
11.1835 21.543
11.1987 21.643
11.2139 21.583
11.2290 21.537
11.2442 21.544
11.2594 21.786
11.2746 21.715
11.2897 21.627
11.3049 21.874
11.3201 21.703
11.3353 21.485
11.3504 21.510
11.3656 21.755
11.3808 21.506
11.3960 21.406
11.4111 21.373
11.4263 21.439
11.4415 21.340
11.4567 21.261
11.4718 20.699
11.4870 21.134
11.5022 21.127
11.5174 21.336
11.5325 21.072
11.5477 21.106
11.5629 21.141
11.5781 20.969
11.5932 21.029
11.6084 20.942
11.6236 20.953
11.6388 20.677
11.6539 20.596
11.6691 20.813
11.6843 20.278
11.6995 20.528
11.7146 20.504
11.7298 20.349
11.7450 20.359
11.7602 20.455
11.7753 20.241
11.7905 20.217
11.8057 19.904
11.8209 19.567
11.8360 19.814
11.8512 19.880
11.8664 19.637
11.8816 19.167
11.8967 19.336
11.9119 19.663
11.9271 19.366
11.9423 19.170
11.9574 19.335
11.9726 19.328
11.9878 19.128
12.0030 19.168
12.0181 19.282
12.0333 19.082
12.0485 18.954
12.0637 19.022
12.0788 18.599
12.0940 18.737
12.1092 18.608
12.1244 18.555
12.1395 18.130
12.1547 18.377
12.1699 18.277
12.1851 18.268
12.2002 18.231
12.2154 18.408
12.2306 18.177
12.2458 18.176
12.2609 18.002
12.2761 17.930
12.2913 17.604
12.3065 17.659
12.3216 17.560
12.3368 17.314
12.3520 17.191
12.3672 17.150
12.3823 17.222
12.3975 17.457
12.4127 17.327
12.4279 17.088
12.4430 17.018
12.4582 16.880
12.4734 16.719
12.4886 16.824
12.5037 16.686
12.5189 16.799
12.5341 16.692
12.5493 16.542
12.5644 16.527
12.5796 16.568
12.5948 16.192
12.6100 16.142
12.6251 16.002
12.6403 15.632
12.6555 15.440
12.6707 15.596
12.6858 15.539
12.7010 15.461
12.7162 15.507
12.7314 15.185
12.7465 15.083
12.7617 14.971
12.7769 14.955
12.7921 15.165
12.8072 15.146
12.8224 14.739
12.8376 14.746
12.8528 14.962
12.8679 15.030
12.8831 15.052
12.8983 14.638
12.9135 14.478
12.9286 14.393
12.9438 14.253
12.9590 14.514
12.9742 14.609
12.9893 14.532
13.0045 14.456
13.0197 14.167
13.0349 14.196
13.0500 14.175
13.0652 14.133
13.0804 14.076
13.0956 13.750
13.1107 13.842
13.1259 13.675
13.1411 13.529
13.1563 13.562
13.1714 13.288
13.1866 13.436
13.2018 13.683
13.2170 13.570
13.2321 13.236
13.2473 13.113
13.2625 13.213
13.2777 13.404
13.2928 13.427
13.3080 13.242
13.3232 13.129
13.3384 13.169
13.3535 13.427
13.3687 13.201
13.3839 12.972
13.3991 13.014
13.4142 12.996
13.4294 12.933
13.4446 12.823
13.4598 12.631
13.4749 12.473
13.4901 12.589
13.5053 12.758
13.5205 12.468
13.5356 12.287
13.5508 12.167
13.5660 12.081
13.5812 12.177
13.5963 12.317
13.6115 12.327
13.6267 12.092
13.6419 11.819
13.6570 11.787
13.6722 11.957
13.6874 12.109
13.7026 11.864
13.7177 12.038
13.7329 12.099
13.7481 11.912
13.7633 12.227
13.7784 12.253
13.7936 12.149
13.8088 12.153
13.8239 12.209
13.8391 12.264
13.8543 12.179
13.8695 11.998
13.8846 11.984
13.8998 11.851
13.9150 12.013
13.9302 11.925
13.9453 11.744
13.9605 11.879
13.9757 11.693
13.9909 11.503
14.0060 11.460
14.0212 11.352
14.0364 11.431
14.0516 11.371
14.0667 11.336
14.0819 11.298
14.0971 11.410
14.1123 11.133
14.1274 11.172
14.1426 11.110
14.1578 11.203
14.1730 11.241
14.1881 11.254
14.2033 11.369
14.2185 11.073
14.2337 11.403
14.2488 11.439
14.2640 11.459
14.2792 11.573
14.2944 11.507
14.3095 11.775
14.3247 11.840
14.3399 11.948
14.3551 12.044
14.3702 12.443
14.3854 12.875
14.4006 13.345
14.4158 13.155
14.4309 13.149
14.4461 13.493
14.4613 13.217
14.4765 13.184
14.4916 13.042
14.5068 13.354
14.5220 13.258
14.5372 12.979
14.5523 12.684
14.5675 12.724
14.5827 12.344
14.5979 12.309
14.6130 11.944
14.6282 11.831
14.6434 11.818
14.6586 11.964
14.6737 11.566
14.6889 11.752
14.7041 11.300
14.7193 11.356
14.7344 11.317
14.7496 11.363
14.7648 11.565
14.7800 11.290
14.7951 11.478
14.8103 11.226
14.8255 11.082
14.8407 11.002
14.8558 10.947
14.8710 10.728
14.8862 10.871
14.9014 10.682
14.9165 11.024
14.9317 11.008
14.9469 10.702
14.9621 10.655
14.9772 10.407
14.9924 10.489
15.0076 10.713
15.0228 11.070
15.0379 10.844
15.0531 10.608
15.0683 10.569
15.0835 10.542
15.0986 10.564
15.1138 10.649
15.1290 10.420
15.1442 10.440
15.1593 10.373
15.1745 10.452
15.1897 10.457
15.2049 10.168
15.2200 10.761
15.2352 10.321
15.2504 10.825
15.2656 10.253
15.2807 10.371
15.2959 10.247
15.3111 10.463
15.3263 10.233
15.3414 10.211
15.3566 9.992
15.3718 9.986
15.3870 10.661
15.4021 10.238
15.4173 10.307
15.4325 10.363
15.4477 10.727
15.4628 10.564
15.4780 10.305
15.4932 10.344
15.5084 10.242
15.5235 10.497
15.5387 10.383
15.5539 10.396
15.5691 10.118
15.5842 10.293
15.5994 9.985
15.6146 10.131
15.6298 10.032
15.6449 9.975
15.6601 10.070
15.6753 10.209
15.6905 9.971
15.7056 9.809
15.7208 10.070
15.7360 9.639
15.7512 9.782
15.7663 10.150
15.7815 9.953
15.7967 9.885
15.8119 9.953
15.8270 10.156
15.8422 9.903
15.8574 9.615
15.8726 9.524
15.8877 9.598
15.9029 9.489
15.9181 9.828
15.9333 9.632
15.9484 9.665
15.9636 9.780
15.9788 10.043
15.9940 9.858
16.0091 9.925
16.0243 9.828
16.0395 9.821
16.0547 9.678
16.0698 9.662
16.0850 9.596
16.1002 9.581
16.1154 9.642
16.1305 9.533
16.1457 9.494
16.1609 9.770
16.1761 9.921
16.1912 9.590
16.2064 9.614
16.2216 9.519
16.2368 9.499
16.2519 9.924
16.2671 9.997
16.2823 9.881
16.2975 9.838
16.3126 10.215
16.3278 10.416
16.3430 10.336
16.3582 10.158
16.3733 10.216
16.3885 10.303
16.4037 10.459
16.4189 10.311
16.4340 10.221
16.4492 10.094
16.4644 9.681
16.4796 9.835
16.4947 9.891
16.5099 9.993
16.5251 9.889
16.5403 9.919
16.5554 9.923
16.5706 9.772
16.5858 9.761
16.6010 9.743
16.6161 9.785
16.6313 9.684
16.6465 9.936
16.6617 9.851
16.6768 10.066
16.6920 10.071
16.7072 9.964
16.7224 10.120
16.7375 9.976
16.7527 10.084
16.7679 10.012
16.7831 9.785
16.7982 9.941
16.8134 10.133
16.8286 9.968
16.8438 9.992
16.8589 10.036
16.8741 9.979
16.8893 9.991
16.9045 9.801
16.9196 9.581
16.9348 9.800
16.9500 9.935
16.9652 9.782
16.9803 9.929
16.9955 9.833
17.0107 9.923
17.0259 10.125
17.0410 10.213
17.0562 10.147
17.0714 10.281
17.0866 10.423
17.1017 10.668
17.1169 10.904
17.1321 11.063
17.1473 11.500
17.1624 11.825
17.1776 12.289
17.1928 13.120
17.2080 13.896
17.2231 14.879
17.2383 16.183
17.2535 17.527
17.2687 18.502
17.2838 18.697
17.2990 17.999
17.3142 16.890
17.3294 16.207
17.3445 16.036
17.3597 15.905
17.3749 15.530
17.3901 14.904
17.4052 14.226
17.4204 13.383
17.4356 12.326
17.4508 11.493
17.4659 11.157
17.4811 11.180
17.4963 11.246
17.5115 11.084
17.5266 10.653
17.5418 10.360
17.5570 10.551
17.5722 10.628
17.5873 10.575
17.6025 10.877
17.6177 10.883
17.6329 10.399
17.6480 10.244
17.6632 10.495
17.6784 10.407
17.6936 10.438
17.7087 10.585
17.7239 10.654
17.7391 10.810
17.7543 10.619
17.7694 10.688
17.7846 11.223
17.7998 11.321
17.8150 11.754
17.8301 12.230
17.8453 12.043
17.8605 12.139
17.8757 12.437
17.8908 12.432
17.9060 12.199
17.9212 12.191
17.9364 12.037
17.9515 11.623
17.9667 11.409
17.9819 11.350
17.9971 11.154
18.0122 11.113
18.0274 10.926
18.0426 10.617
18.0578 10.477
18.0729 10.241
18.0881 10.198
18.1033 10.132
18.1185 10.284
18.1336 10.130
18.1488 10.020
18.1640 10.222
18.1792 10.388
18.1943 10.117
18.2095 9.780
18.2247 9.726
18.2399 9.904
18.2550 10.021
18.2702 9.786
18.2854 9.666
18.3006 9.668
18.3157 9.863
18.3309 9.900
18.3461 9.865
18.3613 9.614
18.3764 9.713
18.3916 9.959
18.4068 9.914
18.4220 10.001
18.4371 10.080
18.4523 9.990
18.4675 9.843
18.4827 9.713
18.4978 9.724
18.5130 9.951
18.5282 9.873
18.5434 9.706
18.5585 9.824
18.5737 9.787
18.5889 9.711
18.6041 9.864
18.6192 10.078
18.6344 9.977
18.6496 9.703
18.6648 9.743
18.6799 9.841
18.6951 9.941
18.7103 9.843
18.7255 9.827
18.7406 9.771
18.7558 9.859
18.7710 9.668
18.7862 9.595
18.8013 9.604
18.8165 9.686
18.8317 9.842
18.8469 9.877
18.8620 9.857
18.8772 9.984
18.8924 9.980
18.9076 9.788
18.9227 9.759
18.9379 9.758
18.9531 9.580
18.9683 9.875
18.9834 10.129
18.9986 10.415
19.0138 10.393
19.0290 10.080
19.0441 10.173
19.0593 10.194
19.0745 10.405
19.0897 10.464
19.1048 10.298
19.1200 10.255
19.1352 10.247
19.1504 10.459
19.1655 10.768
19.1807 10.670
19.1959 10.440
19.2111 10.611
19.2262 10.938
19.2414 10.887
19.2566 10.687
19.2718 10.807
19.2869 10.997
19.3021 10.905
19.3173 10.904
19.3325 10.984
19.3476 11.009
19.3628 10.992
19.3780 11.053
19.3932 11.145
19.4083 11.153
19.4235 11.174
19.4387 11.342
19.4539 11.375
19.4690 11.283
19.4842 11.301
19.4994 11.365
19.5146 11.163
19.5297 11.199
19.5449 11.386
19.5601 11.379
19.5753 11.324
19.5904 11.644
19.6056 11.671
19.6208 11.566
19.6360 11.588
19.6511 11.580
19.6663 11.647
19.6815 11.589
19.6967 11.732
19.7118 11.750
19.7270 11.718
19.7422 11.802
19.7574 11.902
19.7725 11.705
19.7877 11.557
19.8029 11.826
19.8180 12.011
19.8332 12.021
19.8484 12.145
19.8636 12.411
19.8787 12.757
19.8939 12.810
19.9091 12.960
19.9243 13.424
19.9394 13.903
19.9546 14.163
19.9698 14.168
19.9850 14.457
20.0001 14.587
20.0153 14.139
20.0305 13.771
20.0457 13.656
20.0608 13.691
20.0760 13.626
20.0912 13.592
20.1064 13.605
20.1215 13.300
20.1367 13.281
20.1519 13.263
20.1671 12.867
20.1822 12.696
20.1974 12.772
20.2126 12.564
20.2278 12.621
20.2429 12.626
20.2581 12.259
20.2733 11.739
20.2885 11.507
20.3036 11.517
20.3188 11.503
20.3340 11.770
20.3492 11.469
20.3643 11.436
20.3795 11.356
20.3947 11.199
20.4099 11.140
20.4250 11.286
20.4402 11.214
20.4554 10.940
20.4706 10.955
20.4857 10.901
20.5009 10.867
20.5161 10.895
20.5313 11.058
20.5464 10.896
20.5616 10.804
20.5768 10.908
20.5920 10.983
20.6071 11.111
20.6223 11.030
20.6375 10.864
20.6527 10.697
20.6678 10.730
20.6830 10.828
20.6982 10.935
20.7134 11.030
20.7285 10.827
20.7437 10.798
20.7589 10.780
20.7741 10.761
20.7892 10.780
20.8044 10.461
20.8196 10.340
20.8348 10.615
20.8499 10.528
20.8651 10.583
20.8803 10.793
20.8955 10.272
20.9106 10.438
20.9258 10.506
20.9410 10.446
20.9562 10.452
20.9713 10.590
20.9865 10.507
21.0017 10.429
21.0169 10.490
21.0320 10.496
21.0472 10.483
21.0624 9.973
21.0776 10.288
21.0927 10.032
21.1079 10.195
21.1231 10.171
21.1383 10.054
21.1534 10.268
21.1686 10.076
21.1838 10.189
21.1990 9.997
21.2141 9.851
21.2293 10.055
21.2445 9.826
21.2597 9.566
21.2748 9.616
21.2900 9.499
21.3052 9.592
21.3204 9.376
21.3355 9.846
21.3507 9.449
21.3659 9.608
21.3811 9.545
21.3962 9.453
21.4114 9.144
21.4266 9.413
21.4418 9.629
21.4569 9.508
21.4721 9.426
21.4873 9.273
21.5025 9.333
21.5176 9.396
21.5328 9.290
21.5480 9.095
21.5632 9.278
21.5783 9.134
21.5935 9.317
21.6087 9.207
21.6239 9.023
21.6390 9.352
21.6542 9.084
21.6694 9.303
21.6846 9.035
21.6997 9.065
21.7149 9.230
21.7301 9.112
21.7453 8.933
21.7604 8.830
21.7756 8.740
21.7908 8.856
21.8060 8.752
21.8211 8.897
21.8363 8.951
21.8515 8.879
21.8667 8.985
21.8818 9.141
21.8970 9.006
21.9122 8.932
21.9274 9.093
21.9425 8.927
21.9577 8.752
21.9729 8.890
21.9881 8.801
22.0032 8.779
22.0184 8.630
22.0336 8.621
22.0488 8.688
22.0639 8.635
22.0791 8.599
22.0943 8.680
22.1095 8.559
22.1246 8.696
22.1398 8.784
22.1550 8.637
22.1702 8.597
22.1853 8.636
22.2005 8.762
22.2157 8.662
22.2309 8.586
22.2460 8.672
22.2612 8.624
22.2764 8.498
22.2916 8.444
22.3067 8.559
22.3219 8.661
22.3371 8.780
22.3523 8.611
22.3674 8.412
22.3826 8.409
22.3978 8.590
22.4130 8.429
22.4281 8.258
22.4433 8.513
22.4585 8.564
22.4737 8.394
22.4888 8.586
22.5040 8.389
22.5192 8.347
22.5344 8.327
22.5495 8.694
22.5647 8.438
22.5799 8.633
22.5951 8.574
22.6102 8.654
22.6254 8.421
22.6406 8.604
22.6558 8.585
22.6709 8.674
22.6861 8.375
22.7013 8.042
22.7165 8.195
22.7316 6.270
