'Id: "" Comment: "" Operator: "Lab Manager" Anode: "Mo" Scantype: "Still (Eiger2R_500K (1D mode))" TimePerStep: "300" X: "11.8" Y: "9.4" Z: "11.284" 
7.2532 19.251
7.2684 18.732
7.2836 18.976
7.2987 18.476
7.3139 19.057
7.3291 19.162
7.3443 19.024
7.3594 18.859
7.3746 19.060
7.3898 19.176
7.4050 19.461
7.4201 19.410
7.4353 18.877
7.4505 19.157
7.4657 19.339
7.4808 19.427
7.4960 19.493
7.5112 19.740
7.5264 19.623
7.5415 19.795
7.5567 19.579
7.5719 19.642
7.5871 19.698
7.6022 20.193
7.6174 20.189
7.6326 20.030
7.6478 20.203
7.6629 20.153
7.6781 20.108
7.6933 19.841
7.7085 19.863
7.7236 20.035
7.7388 20.176
7.7540 20.077
7.7692 20.247
7.7843 20.671
7.7995 20.603
7.8147 20.463
7.8299 20.163
7.8450 20.494
7.8602 20.963
7.8754 20.845
7.8905 20.320
7.9057 20.126
7.9209 20.753
7.9361 21.018
7.9512 20.905
7.9664 20.812
7.9816 21.095
7.9968 20.827
8.0119 21.058
8.0271 21.202
8.0423 20.904
8.0575 21.040
8.0726 20.977
8.0878 21.107
8.1030 20.886
8.1182 21.049
8.1333 21.168
8.1485 21.202
8.1637 21.227
8.1789 21.564
8.1940 21.464
8.2092 21.522
8.2244 21.480
8.2396 21.588
8.2547 21.373
8.2699 21.484
8.2851 21.437
8.3003 21.562
8.3154 21.809
8.3306 21.976
8.3458 21.354
8.3610 21.975
8.3761 21.720
8.3913 21.986
8.4065 21.748
8.4217 21.831
8.4368 21.851
8.4520 21.861
8.4672 21.633
8.4824 21.509
8.4975 21.608
8.5127 22.060
8.5279 22.233
8.5431 21.983
8.5582 21.801
8.5734 22.067
8.5886 22.090
8.6038 22.102
8.6189 21.750
8.6341 21.743
8.6493 21.675
8.6645 22.216
8.6796 21.997
8.6948 22.292
8.7100 22.293
8.7252 22.173
8.7403 22.310
8.7555 22.118
8.7707 21.922
8.7859 22.835
8.8010 22.400
8.8162 22.101
8.8314 23.003
8.8466 22.587
8.8617 22.436
8.8769 22.787
8.8921 22.667
8.9073 22.622
8.9224 22.175
8.9376 22.257
8.9528 22.330
8.9680 22.440
8.9831 22.418
8.9983 22.527
9.0135 22.647
9.0287 22.412
9.0438 22.732
9.0590 22.888
9.0742 22.774
9.0894 22.320
9.1045 22.574
9.1197 22.117
9.1349 22.120
9.1501 22.318
9.1652 22.359
9.1804 22.625
9.1956 22.732
9.2108 22.808
9.2259 22.752
9.2411 22.839
9.2563 22.961
9.2715 22.895
9.2866 22.659
9.3018 22.728
9.3170 22.715
9.3322 23.020
9.3473 22.843
9.3625 22.806
9.3777 22.730
9.3929 23.047
9.4080 22.816
9.4232 22.849
9.4384 23.235
9.4536 23.370
9.4687 23.422
9.4839 23.056
9.4991 22.653
9.5143 22.531
9.5294 22.388
9.5446 22.993
9.5598 23.015
9.5750 23.158
9.5901 23.749
9.6053 23.452
9.6205 23.628
9.6357 23.737
9.6508 23.380
9.6660 23.158
9.6812 23.290
9.6964 23.487
9.7115 23.660
9.7267 23.864
9.7419 24.074
9.7571 23.734
9.7722 23.337
9.7874 23.659
9.8026 23.940
9.8178 23.501
9.8329 23.185
9.8481 23.348
9.8633 23.357
9.8785 23.120
9.8936 23.487
9.9088 23.517
9.9240 23.058
9.9392 23.072
9.9543 22.983
9.9695 22.851
9.9847 23.054
9.9999 23.136
10.0150 23.172
10.0302 23.120
10.0454 23.307
10.0606 23.115
10.0757 23.172
10.0909 23.566
10.1061 23.620
10.1213 23.336
10.1364 23.080
10.1516 23.090
10.1668 23.086
10.1820 23.252
10.1971 23.251
10.2123 23.244
10.2275 22.978
10.2427 22.858
10.2578 22.731
10.2730 22.760
10.2882 22.838
10.3034 22.757
10.3185 22.680
10.3337 22.842
10.3489 22.655
10.3641 22.309
10.3792 22.492
10.3944 22.673
10.4096 22.482
10.4248 22.829
10.4399 22.885
10.4551 22.564
10.4703 22.492
10.4855 22.162
10.5006 22.377
10.5158 22.640
10.5310 22.342
10.5462 22.423
10.5613 22.759
10.5765 22.827
10.5917 22.592
10.6069 22.692
10.6220 22.375
10.6372 22.208
10.6524 22.363
10.6676 22.288
10.6827 22.367
10.6979 22.467
10.7131 22.473
10.7283 22.413
10.7434 22.412
10.7586 22.168
10.7738 22.265
10.7890 22.270
10.8041 22.622
10.8193 22.382
10.8345 21.895
10.8497 22.181
10.8648 22.358
10.8800 21.808
10.8952 22.068
10.9104 22.239
10.9255 22.322
10.9407 22.005
10.9559 21.808
10.9711 21.946
10.9862 22.110
11.0014 22.002
11.0166 22.257
11.0318 22.295
11.0469 22.149
11.0621 21.725
11.0773 21.673
11.0925 21.739
11.1076 21.745
11.1228 21.747
11.1380 22.018
11.1532 21.720
11.1683 21.966
11.1835 21.832
11.1987 21.516
11.2139 21.824
11.2290 21.399
11.2442 21.396
11.2594 21.649
11.2746 21.928
11.2897 21.461
11.3049 21.223
11.3201 21.279
11.3353 21.487
11.3504 21.185
11.3656 21.077
11.3808 21.094
11.3960 21.315
11.4111 21.410
11.4263 21.429
11.4415 21.135
11.4567 21.016
11.4718 21.097
11.4870 21.439
11.5022 21.187
11.5174 21.005
11.5325 20.877
11.5477 20.686
11.5629 20.567
11.5781 20.901
11.5932 20.997
11.6084 20.887
11.6236 20.564
11.6388 20.812
11.6539 20.809
11.6691 20.762
11.6843 20.691
11.6995 20.569
11.7146 20.418
11.7298 20.321
11.7450 20.272
11.7602 20.321
11.7753 20.615
11.7905 20.241
11.8057 19.650
11.8209 19.752
11.8360 20.066
11.8512 20.017
11.8664 19.770
11.8816 19.688
11.8967 19.811
11.9119 19.437
11.9271 19.546
11.9423 19.868
11.9574 19.289
11.9726 19.314
11.9878 18.937
12.0030 19.438
12.0181 19.701
12.0333 19.069
12.0485 18.869
12.0637 18.641
12.0788 18.509
12.0940 18.722
12.1092 18.466
12.1244 18.447
12.1395 18.423
12.1547 18.475
12.1699 18.420
12.1851 18.063
12.2002 18.223
12.2154 18.367
12.2306 18.341
12.2458 18.353
12.2609 18.125
12.2761 17.581
12.2913 17.629
12.3065 17.593
12.3216 17.772
12.3368 17.582
12.3520 17.441
12.3672 17.302
12.3823 16.924
12.3975 17.111
12.4127 17.262
12.4279 17.128
12.4430 17.145
12.4582 17.113
12.4734 16.676
12.4886 16.632
12.5037 16.767
12.5189 16.428
12.5341 16.432
12.5493 16.491
12.5644 16.414
12.5796 16.223
12.5948 16.097
12.6100 16.324
12.6251 16.142
12.6403 15.630
12.6555 15.550
12.6707 15.561
12.6858 15.525
12.7010 15.393
12.7162 15.320
12.7314 15.396
12.7465 15.636
12.7617 15.286
12.7769 14.840
12.7921 15.376
12.8072 15.307
12.8224 14.942
12.8376 15.045
12.8528 15.031
12.8679 14.613
12.8831 14.547
12.8983 14.782
12.9135 14.568
12.9286 14.459
12.9438 14.494
12.9590 14.299
12.9742 14.359
12.9893 14.386
13.0045 14.167
13.0197 14.289
13.0349 14.154
13.0500 13.781
13.0652 13.529
13.0804 13.371
13.0956 13.713
13.1107 13.906
13.1259 13.848
13.1411 13.856
13.1563 13.558
13.1714 13.413
13.1866 13.234
13.2018 13.179
13.2170 13.436
13.2321 13.377
13.2473 13.314
13.2625 13.135
13.2777 13.035
13.2928 13.104
13.3080 13.153
13.3232 13.332
13.3384 13.018
13.3535 12.738
13.3687 13.099
13.3839 13.323
13.3991 13.207
13.4142 12.983
13.4294 12.846
13.4446 12.741
13.4598 12.758
13.4749 12.666
13.4901 12.335
13.5053 12.338
13.5205 12.680
13.5356 12.609
13.5508 12.514
13.5660 12.447
13.5812 12.328
13.5963 12.447
13.6115 12.321
13.6267 11.878
13.6419 12.047
13.6570 12.230
13.6722 12.216
13.6874 12.047
13.7026 12.055
13.7177 12.090
13.7329 12.197
13.7481 12.249
13.7633 12.150
13.7784 12.104
13.7936 12.016
13.8088 11.910
13.8239 12.191
13.8391 12.482
13.8543 12.426
13.8695 12.269
13.8846 12.228
13.8998 12.117
13.9150 12.034
13.9302 11.839
13.9453 11.935
13.9605 12.120
13.9757 12.009
13.9909 11.943
14.0060 11.697
14.0212 11.723
14.0364 11.682
14.0516 11.611
14.0667 11.590
14.0819 11.603
14.0971 11.910
14.1123 11.825
14.1274 11.654
14.1426 11.957
14.1578 11.586
14.1730 11.532
14.1881 11.828
14.2033 11.825
14.2185 11.942
14.2337 11.845
14.2488 12.116
14.2640 11.809
14.2792 11.930
14.2944 11.823
14.3095 11.957
14.3247 12.140
14.3399 12.635
14.3551 12.691
14.3702 12.968
14.3854 12.907
14.4006 13.158
14.4158 13.036
14.4309 12.785
14.4461 12.875
14.4613 12.910
14.4765 12.086
14.4916 12.001
14.5068 12.177
14.5220 11.723
14.5372 11.182
14.5523 11.113
14.5675 10.820
14.5827 10.860
14.5979 11.030
14.6130 10.748
14.6282 10.995
14.6434 10.650
14.6586 10.845
14.6737 10.834
14.6889 10.820
14.7041 10.402
14.7193 10.507
14.7344 10.463
14.7496 10.404
14.7648 10.591
14.7800 10.954
14.7951 10.806
14.8103 10.587
14.8255 10.720
14.8407 10.517
14.8558 10.439
14.8710 10.522
14.8862 10.537
14.9014 10.335
14.9165 10.482
14.9317 10.221
14.9469 10.341
14.9621 10.668
14.9772 10.357
14.9924 10.577
15.0076 10.304
15.0228 10.337
15.0379 10.276
15.0531 10.130
15.0683 10.526
15.0835 10.330
15.0986 10.319
15.1138 10.021
15.1290 10.224
15.1442 10.081
15.1593 10.014
15.1745 10.226
15.1897 9.858
15.2049 10.170
15.2200 9.951
15.2352 10.217
15.2504 10.216
15.2656 9.998
15.2807 9.834
15.2959 10.098
15.3111 10.065
15.3263 10.161
15.3414 10.159
15.3566 10.067
15.3718 9.942
15.3870 10.072
15.4021 10.062
15.4173 10.045
15.4325 10.248
15.4477 9.896
15.4628 10.055
15.4780 9.863
15.4932 10.164
15.5084 10.520
15.5235 10.152
15.5387 9.960
15.5539 10.076
15.5691 9.893
15.5842 9.484
15.5994 9.651
15.6146 9.736
15.6298 9.961
15.6449 9.789
15.6601 9.765
15.6753 9.832
15.6905 9.705
15.7056 10.068
15.7208 9.650
15.7360 9.748
15.7512 9.788
15.7663 9.579
15.7815 9.583
15.7967 9.801
15.8119 9.691
15.8270 9.932
15.8422 9.886
15.8574 9.471
15.8726 9.407
15.8877 9.375
15.9029 9.388
15.9181 9.335
15.9333 9.471
15.9484 9.655
15.9636 9.667
15.9788 9.711
15.9940 9.544
16.0091 9.629
16.0243 9.446
16.0395 9.588
16.0547 9.719
16.0698 9.561
16.0850 9.419
16.1002 9.484
16.1154 9.506
16.1305 9.532
16.1457 9.704
16.1609 9.511
16.1761 9.492
16.1912 9.453
16.2064 9.587
16.2216 9.762
16.2368 9.733
16.2519 9.721
16.2671 9.943
16.2823 9.691
16.2975 9.554
16.3126 9.761
16.3278 9.915
16.3430 9.915
16.3582 9.545
16.3733 9.558
16.3885 9.998
16.4037 10.000
16.4189 10.156
16.4340 9.909
16.4492 9.702
16.4644 9.864
16.4796 9.894
16.4947 9.816
16.5099 9.793
16.5251 9.873
16.5403 9.821
16.5554 9.737
16.5706 9.866
16.5858 9.731
16.6010 9.482
16.6161 9.568
16.6313 9.429
16.6465 9.347
16.6617 9.703
16.6768 9.603
16.6920 9.674
16.7072 9.811
16.7224 9.911
16.7375 9.994
16.7527 9.948
16.7679 9.772
16.7831 9.611
16.7982 9.810
16.8134 9.930
16.8286 9.971
16.8438 9.895
16.8589 9.766
16.8741 9.777
16.8893 9.653
16.9045 9.796
16.9196 9.903
16.9348 9.729
16.9500 9.634
16.9652 9.602
16.9803 9.706
16.9955 9.883
17.0107 9.823
17.0259 9.784
17.0410 10.052
17.0562 10.135
17.0714 10.209
17.0866 10.296
17.1017 10.465
17.1169 10.754
17.1321 11.134
17.1473 11.392
17.1624 11.718
17.1776 12.197
17.1928 12.877
17.2080 13.921
17.2231 14.823
17.2383 16.104
17.2535 17.555
17.2687 18.546
17.2838 18.980
17.2990 18.157
17.3142 16.799
17.3294 16.194
17.3445 16.173
17.3597 16.207
17.3749 15.902
17.3901 15.121
17.4052 14.293
17.4204 13.470
17.4356 12.718
17.4508 12.130
17.4659 11.813
17.4811 11.607
17.4963 11.162
17.5115 11.033
17.5266 11.190
17.5418 11.310
17.5570 11.118
17.5722 10.855
17.5873 10.861
17.6025 10.869
17.6177 11.041
17.6329 11.168
17.6480 11.052
17.6632 11.239
17.6784 11.627
17.6936 11.563
17.7087 11.560
17.7239 11.422
17.7391 11.129
17.7543 11.074
17.7694 11.156
17.7846 11.149
17.7998 10.843
17.8150 10.550
17.8301 10.498
17.8453 10.322
17.8605 10.182
17.8757 10.421
17.8908 10.329
17.9060 10.305
17.9212 10.208
17.9364 9.972
17.9515 9.785
17.9667 9.993
17.9819 10.271
17.9971 10.065
18.0122 9.992
18.0274 9.945
18.0426 9.992
18.0578 10.095
18.0729 10.032
18.0881 10.060
18.1033 10.094
18.1185 10.147
18.1336 10.019
18.1488 10.074
18.1640 10.044
18.1792 9.876
18.1943 9.991
18.2095 9.903
18.2247 9.904
18.2399 9.998
18.2550 9.825
18.2702 9.917
18.2854 10.042
18.3006 9.996
18.3157 9.882
18.3309 9.621
18.3461 9.652
18.3613 9.883
18.3764 10.077
18.3916 10.017
18.4068 9.881
18.4220 9.891
18.4371 9.841
18.4523 9.798
18.4675 9.778
18.4827 9.780
18.4978 9.947
18.5130 9.951
18.5282 9.712
18.5434 9.700
18.5585 9.769
18.5737 9.729
18.5889 9.777
18.6041 9.806
18.6192 9.846
18.6344 9.464
18.6496 9.599
18.6648 9.650
18.6799 9.604
18.6951 9.843
18.7103 9.909
18.7255 9.946
18.7406 9.831
18.7558 9.713
18.7710 9.771
18.7862 9.838
18.8013 9.682
18.8165 9.622
18.8317 9.918
18.8469 9.777
18.8620 9.701
18.8772 9.983
18.8924 9.851
18.9076 9.974
18.9227 9.910
18.9379 9.862
18.9531 10.012
18.9683 10.031
18.9834 10.080
18.9986 10.227
19.0138 10.184
19.0290 10.055
19.0441 9.948
19.0593 10.176
19.0745 10.325
19.0897 10.271
19.1048 10.418
19.1200 10.532
19.1352 10.352
19.1504 10.412
19.1655 10.610
19.1807 10.677
19.1959 10.666
19.2111 10.470
19.2262 10.550
19.2414 10.728
19.2566 10.654
19.2718 10.714
19.2869 10.945
19.3021 10.737
19.3173 10.759
19.3325 11.182
19.3476 11.236
19.3628 11.037
19.3780 11.183
19.3932 11.364
19.4083 11.332
19.4235 11.279
19.4387 11.331
19.4539 11.238
19.4690 11.357
19.4842 11.541
19.4994 11.354
19.5146 11.475
19.5297 11.600
19.5449 11.617
19.5601 11.511
19.5753 11.334
19.5904 11.486
19.6056 11.676
19.6208 11.632
19.6360 11.565
19.6511 11.716
19.6663 11.704
19.6815 11.587
19.6967 11.770
19.7118 11.876
19.7270 11.897
19.7422 11.980
19.7574 11.746
19.7725 11.549
19.7877 11.699
19.8029 11.895
19.8180 12.099
19.8332 12.181
19.8484 11.993
19.8636 12.244
19.8787 12.647
19.8939 12.807
19.9091 13.113
19.9243 13.665
19.9394 14.088
19.9546 14.298
19.9698 14.673
19.9850 14.635
20.0001 14.261
20.0153 14.054
20.0305 14.067
20.0457 13.988
20.0608 14.016
20.0760 13.788
20.0912 13.759
20.1064 13.795
20.1215 13.690
20.1367 13.450
20.1519 13.054
20.1671 12.859
20.1822 12.787
20.1974 12.800
20.2126 13.061
20.2278 12.955
20.2429 12.617
20.2581 12.663
20.2733 12.306
20.2885 12.198
20.3036 12.183
20.3188 12.136
20.3340 12.363
20.3492 12.247
20.3643 11.971
20.3795 11.992
20.3947 11.863
20.4099 11.696
20.4250 11.799
20.4402 11.746
20.4554 11.872
20.4706 11.611
20.4857 11.499
20.5009 11.739
20.5161 11.804
20.5313 11.233
20.5464 11.461
20.5616 11.441
20.5768 11.373
20.5920 11.245
20.6071 11.136
20.6223 11.204
20.6375 11.053
20.6527 10.771
20.6678 10.605
20.6830 10.469
20.6982 10.370
20.7134 10.306
20.7285 10.607
20.7437 10.651
20.7589 10.455
20.7741 10.388
20.7892 10.458
20.8044 10.457
20.8196 10.406
20.8348 10.547
20.8499 10.328
20.8651 10.341
20.8803 10.428
20.8955 10.225
20.9106 10.155
20.9258 10.359
20.9410 10.506
20.9562 10.166
20.9713 9.927
20.9865 10.192
21.0017 10.331
21.0169 10.042
21.0320 10.219
21.0472 9.854
21.0624 10.048
21.0776 9.710
21.0927 10.062
21.1079 9.979
21.1231 9.765
21.1383 10.395
21.1534 9.784
21.1686 9.881
21.1838 9.729
21.1990 9.912
21.2141 9.685
21.2293 9.613
21.2445 10.003
21.2597 9.679
21.2748 9.683
21.2900 9.561
21.3052 9.520
21.3204 9.671
21.3355 9.882
21.3507 9.687
21.3659 9.037
21.3811 9.383
21.3962 9.428
21.4114 9.321
21.4266 9.725
21.4418 9.340
21.4569 9.066
21.4721 9.282
21.4873 9.418
21.5025 9.473
21.5176 9.710
21.5328 9.367
21.5480 9.349
21.5632 9.161
21.5783 9.013
21.5935 9.235
21.6087 9.236
21.6239 8.894
21.6390 9.231
21.6542 9.011
21.6694 9.125
21.6846 8.983
21.6997 9.070
21.7149 9.188
21.7301 8.958
21.7453 8.958
21.7604 8.892
21.7756 8.964
21.7908 9.104
21.8060 8.941
21.8211 8.982
21.8363 9.004
21.8515 8.915
21.8667 9.163
21.8818 9.374
21.8970 9.213
21.9122 8.980
21.9274 8.991
21.9425 8.973
21.9577 8.859
21.9729 8.737
21.9881 8.759
22.0032 8.964
22.0184 9.066
22.0336 8.936
22.0488 8.891
22.0639 8.951
22.0791 8.738
22.0943 8.759
22.1095 8.946
22.1246 8.773
22.1398 8.666
22.1550 8.678
22.1702 8.665
22.1853 8.678
22.2005 8.563
22.2157 8.553
22.2309 8.535
22.2460 8.504
22.2612 8.509
22.2764 8.733
22.2916 8.835
22.3067 8.535
22.3219 8.453
22.3371 8.677
22.3523 8.648
22.3674 8.448
22.3826 8.257
22.3978 8.485
22.4130 8.464
22.4281 8.480
22.4433 8.513
22.4585 8.581
22.4737 8.391
22.4888 8.714
22.5040 8.424
22.5192 8.381
22.5344 8.356
22.5495 8.499
22.5647 8.370
22.5799 8.290
22.5951 8.202
22.6102 8.353
22.6254 8.522
22.6406 8.388
22.6558 8.548
22.6709 8.481
22.6861 8.237
22.7013 8.153
22.7165 7.980
22.7316 6.456
