'Id: "" Comment: "" Operator: "Lab Manager" Anode: "Mo" Scantype: "Still (Eiger2R_500K (1D mode))" TimePerStep: "300" X: "11.8" Y: "9.4" Z: "11.284" 
7.2532 18.912
7.2684 19.550
7.2836 18.691
7.2987 18.987
7.3139 19.312
7.3291 18.809
7.3443 19.322
7.3594 19.303
7.3746 19.450
7.3898 19.315
7.4050 19.690
7.4201 19.690
7.4353 19.703
7.4505 19.744
7.4657 19.536
7.4808 19.477
7.4960 19.360
7.5112 19.408
7.5264 20.033
7.5415 19.585
7.5567 19.681
7.5719 19.942
7.5871 20.031
7.6022 19.995
7.6174 19.632
7.6326 20.057
7.6478 20.222
7.6629 19.909
7.6781 20.206
7.6933 20.375
7.7085 20.441
7.7236 20.530
7.7388 20.693
7.7540 20.666
7.7692 20.429
7.7843 20.779
7.7995 21.033
7.8147 21.053
7.8299 20.926
7.8450 20.928
7.8602 20.902
7.8754 20.902
7.8905 20.993
7.9057 20.994
7.9209 21.173
7.9361 21.012
7.9512 21.126
7.9664 21.246
7.9816 21.095
7.9968 21.459
8.0119 21.433
8.0271 21.245
8.0423 21.457
8.0575 21.444
8.0726 21.534
8.0878 21.739
8.1030 21.526
8.1182 21.506
8.1333 21.544
8.1485 21.277
8.1637 21.488
8.1789 21.422
8.1940 21.515
8.2092 21.867
8.2244 21.860
8.2396 21.534
8.2547 21.983
8.2699 21.658
8.2851 21.710
8.3003 21.996
8.3154 21.843
8.3306 22.030
8.3458 22.199
8.3610 21.592
8.3761 21.996
8.3913 22.185
8.4065 21.709
8.4217 21.933
8.4368 21.888
8.4520 21.684
8.4672 22.185
8.4824 22.309
8.4975 22.284
8.5127 21.960
8.5279 21.592
8.5431 22.137
8.5582 21.877
8.5734 22.368
8.5886 22.278
8.6038 22.638
8.6189 22.014
8.6341 22.376
8.6493 22.204
8.6645 22.374
8.6796 22.321
8.6948 22.338
8.7100 22.536
8.7252 22.321
8.7403 22.761
8.7555 22.051
8.7707 22.099
8.7859 22.604
8.8010 22.511
8.8162 22.403
8.8314 22.420
8.8466 22.494
8.8617 22.670
8.8769 22.635
8.8921 22.184
8.9073 22.997
8.9224 22.656
8.9376 22.594
8.9528 22.646
8.9680 22.540
8.9831 22.239
8.9983 22.575
9.0135 22.436
9.0287 23.044
9.0438 22.898
9.0590 22.896
9.0742 22.742
9.0894 22.888
9.1045 23.077
9.1197 22.884
9.1349 22.807
9.1501 22.759
9.1652 23.012
9.1804 23.065
9.1956 22.690
9.2108 22.630
9.2259 22.877
9.2411 23.193
9.2563 23.005
9.2715 22.814
9.2866 22.930
9.3018 23.322
9.3170 23.090
9.3322 23.033
9.3473 23.417
9.3625 23.340
9.3777 23.050
9.3929 23.087
9.4080 23.214
9.4232 23.265
9.4384 23.052
9.4536 23.111
9.4687 23.369
9.4839 23.162
9.4991 23.072
9.5143 23.031
9.5294 23.352
9.5446 23.167
9.5598 22.926
9.5750 22.954
9.5901 23.027
9.6053 23.432
9.6205 23.777
9.6357 23.383
9.6508 23.340
9.6660 23.691
9.6812 23.660
9.6964 23.866
9.7115 23.846
9.7267 24.046
9.7419 24.028
9.7571 24.084
9.7722 24.112
9.7874 23.982
9.8026 23.982
9.8178 23.929
9.8329 23.525
9.8481 23.403
9.8633 23.719
9.8785 23.817
9.8936 23.646
9.9088 23.582
9.9240 23.500
9.9392 23.590
9.9543 23.816
9.9695 24.000
9.9847 23.637
9.9999 23.398
10.0150 23.702
10.0302 23.763
10.0454 23.693
10.0606 23.368
10.0757 23.514
10.0909 23.898
10.1061 23.777
10.1213 23.603
10.1364 23.542
10.1516 23.588
10.1668 23.556
10.1820 23.783
10.1971 24.048
10.2123 24.225
10.2275 24.349
10.2427 24.342
10.2578 24.163
10.2730 23.898
10.2882 23.599
10.3034 23.408
10.3185 23.328
10.3337 23.290
10.3489 23.435
10.3641 22.926
10.3792 22.645
10.3944 22.783
10.4096 22.951
10.4248 23.006
10.4399 23.275
10.4551 23.331
10.4703 23.106
10.4855 22.781
10.5006 22.930
10.5158 23.058
10.5310 23.072
10.5462 22.857
10.5613 22.590
10.5765 22.575
10.5917 22.622
10.6069 22.761
10.6220 23.213
10.6372 23.058
10.6524 22.585
10.6676 22.570
10.6827 22.560
10.6979 22.562
10.7131 22.605
10.7283 23.070
10.7434 22.695
10.7586 22.454
10.7738 22.345
10.7890 22.220
10.8041 22.490
10.8193 22.221
10.8345 22.060
10.8497 22.174
10.8648 22.296
10.8800 22.473
10.8952 22.207
10.9104 22.455
10.9255 22.285
10.9407 22.443
10.9559 22.152
10.9711 22.136
10.9862 22.169
11.0014 21.951
11.0166 22.016
11.0318 22.451
11.0469 21.901
11.0621 22.153
11.0773 22.581
11.0925 22.150
11.1076 21.907
11.1228 21.734
11.1380 21.665
11.1532 21.815
11.1683 21.800
11.1835 21.963
11.1987 22.010
11.2139 21.639
11.2290 21.605
11.2442 21.430
11.2594 21.544
11.2746 21.743
11.2897 21.764
11.3049 21.405
11.3201 21.191
11.3353 21.669
11.3504 21.328
11.3656 21.495
11.3808 21.632
11.3960 21.622
11.4111 21.532
11.4263 21.174
11.4415 20.998
11.4567 21.295
11.4718 21.141
11.4870 21.350
11.5022 21.070
11.5174 21.195
11.5325 21.217
11.5477 21.350
11.5629 21.343
11.5781 21.113
11.5932 21.197
11.6084 21.207
11.6236 20.683
11.6388 20.677
11.6539 20.969
11.6691 20.831
11.6843 20.693
11.6995 20.541
11.7146 20.264
11.7298 20.309
11.7450 20.116
11.7602 20.338
11.7753 20.409
11.7905 20.225
11.8057 19.903
11.8209 19.605
11.8360 19.784
11.8512 19.769
11.8664 19.796
11.8816 20.128
11.8967 19.673
11.9119 19.620
11.9271 19.691
11.9423 19.557
11.9574 19.357
11.9726 19.475
11.9878 19.456
12.0030 19.120
12.0181 19.250
12.0333 19.303
12.0485 19.246
12.0637 19.187
12.0788 18.812
12.0940 18.962
12.1092 18.929
12.1244 18.842
12.1395 18.443
12.1547 18.304
12.1699 18.189
12.1851 18.435
12.2002 18.215
12.2154 18.158
12.2306 17.888
12.2458 17.744
12.2609 17.988
12.2761 17.863
12.2913 17.796
12.3065 17.825
12.3216 17.728
12.3368 17.475
12.3520 17.042
12.3672 17.096
12.3823 17.143
12.3975 17.353
12.4127 17.220
12.4279 17.129
12.4430 17.139
12.4582 17.023
12.4734 17.078
12.4886 16.933
12.5037 16.614
12.5189 16.593
12.5341 16.579
12.5493 16.329
12.5644 16.175
12.5796 16.216
12.5948 16.212
12.6100 15.931
12.6251 15.931
12.6403 15.885
12.6555 15.794
12.6707 15.517
12.6858 15.559
12.7010 15.529
12.7162 15.484
12.7314 15.587
12.7465 15.277
12.7617 15.176
12.7769 15.262
12.7921 14.988
12.8072 14.766
12.8224 14.859
12.8376 15.115
12.8528 14.901
12.8679 14.649
12.8831 14.673
12.8983 14.603
12.9135 14.548
12.9286 14.476
12.9438 14.460
12.9590 14.617
12.9742 14.598
12.9893 14.536
13.0045 14.495
13.0197 14.247
13.0349 13.963
13.0500 13.959
13.0652 13.858
13.0804 13.821
13.0956 13.873
13.1107 13.958
13.1259 13.963
13.1411 13.603
13.1563 13.488
13.1714 13.844
13.1866 13.822
13.2018 13.580
13.2170 13.543
13.2321 13.382
13.2473 13.319
13.2625 13.318
13.2777 13.248
13.2928 13.137
13.3080 13.055
13.3232 13.006
13.3384 13.081
13.3535 12.971
13.3687 12.801
13.3839 12.673
13.3991 12.761
13.4142 13.131
13.4294 12.955
13.4446 12.916
13.4598 13.178
13.4749 12.806
13.4901 12.386
13.5053 12.339
13.5205 12.446
13.5356 12.545
13.5508 12.347
13.5660 12.153
13.5812 12.119
13.5963 12.198
13.6115 12.041
13.6267 11.947
13.6419 12.058
13.6570 12.090
13.6722 11.875
13.6874 11.992
13.7026 12.178
13.7177 11.951
13.7329 11.781
13.7481 11.774
13.7633 11.729
13.7784 11.773
13.7936 11.667
13.8088 11.767
13.8239 11.921
13.8391 12.009
13.8543 12.207
13.8695 12.328
13.8846 12.446
13.8998 12.208
13.9150 11.943
13.9302 11.872
13.9453 11.763
13.9605 11.655
13.9757 11.540
13.9909 11.530
14.0060 11.462
14.0212 11.422
14.0364 11.364
14.0516 11.433
14.0667 11.311
14.0819 11.417
14.0971 11.338
14.1123 11.365
14.1274 11.304
14.1426 11.369
14.1578 11.254
14.1730 11.392
14.1881 11.305
14.2033 11.585
14.2185 11.579
14.2337 11.393
14.2488 11.706
14.2640 11.574
14.2792 11.473
14.2944 11.351
14.3095 11.656
14.3247 12.061
14.3399 12.129
14.3551 12.427
14.3702 12.884
14.3854 12.847
14.4006 12.891
14.4158 13.225
14.4309 13.041
14.4461 13.196
14.4613 13.268
14.4765 13.016
14.4916 12.922
14.5068 13.019
14.5220 13.170
14.5372 12.955
14.5523 13.061
14.5675 12.392
14.5827 12.192
14.5979 11.955
14.6130 11.801
14.6282 11.886
14.6434 11.545
14.6586 11.577
14.6737 11.734
14.6889 11.526
14.7041 11.554
14.7193 11.099
14.7344 11.354
14.7496 11.151
14.7648 11.166
14.7800 10.867
14.7951 11.168
14.8103 10.791
14.8255 10.936
14.8407 11.148
14.8558 11.221
14.8710 10.973
14.8862 10.623
14.9014 10.876
14.9165 11.116
14.9317 11.147
14.9469 10.779
14.9621 10.993
14.9772 10.856
14.9924 11.012
15.0076 10.624
15.0228 10.939
15.0379 10.795
15.0531 10.770
15.0683 10.555
15.0835 10.690
15.0986 10.591
15.1138 10.421
15.1290 10.316
15.1442 10.726
15.1593 10.507
15.1745 10.798
15.1897 10.450
15.2049 10.249
15.2200 10.296
15.2352 10.293
15.2504 10.732
15.2656 10.362
15.2807 10.147
15.2959 10.341
15.3111 10.200
15.3263 10.313
15.3414 10.410
15.3566 10.597
15.3718 10.470
15.3870 10.481
15.4021 10.442
15.4173 10.418
15.4325 10.333
15.4477 10.388
15.4628 10.366
15.4780 10.663
15.4932 10.331
15.5084 10.651
15.5235 10.556
15.5387 10.563
15.5539 10.101
15.5691 10.264
15.5842 10.082
15.5994 10.259
15.6146 10.037
15.6298 10.038
15.6449 10.389
15.6601 10.353
15.6753 10.301
15.6905 10.021
15.7056 9.911
15.7208 10.294
15.7360 10.157
15.7512 10.158
15.7663 10.009
15.7815 10.047
15.7967 9.740
15.8119 9.956
15.8270 10.247
15.8422 9.708
15.8574 9.636
15.8726 9.782
15.8877 9.850
15.9029 9.808
15.9181 9.803
15.9333 10.065
15.9484 9.692
15.9636 9.773
15.9788 9.699
15.9940 9.772
16.0091 9.569
16.0243 9.636
16.0395 9.697
16.0547 9.822
16.0698 9.804
16.0850 9.619
16.1002 9.933
16.1154 9.767
16.1305 9.753
16.1457 9.997
16.1609 9.856
16.1761 9.713
16.1912 9.865
16.2064 9.816
16.2216 9.702
16.2368 9.846
16.2519 9.961
16.2671 10.333
16.2823 10.002
16.2975 9.830
16.3126 9.958
16.3278 10.224
16.3430 10.083
16.3582 9.981
16.3733 10.219
16.3885 10.329
16.4037 10.103
16.4189 10.115
16.4340 10.034
16.4492 10.143
16.4644 10.165
16.4796 9.970
16.4947 9.915
16.5099 9.900
16.5251 9.708
16.5403 9.802
16.5554 9.837
16.5706 9.841
16.5858 9.651
16.6010 9.446
16.6161 9.671
16.6313 9.679
16.6465 9.819
16.6617 9.882
16.6768 10.064
16.6920 10.079
16.7072 9.966
16.7224 10.028
16.7375 10.074
16.7527 10.152
16.7679 9.994
16.7831 9.669
16.7982 9.849
16.8134 10.061
16.8286 9.977
16.8438 9.902
16.8589 9.867
16.8741 9.943
16.8893 10.063
16.9045 9.874
16.9196 9.646
16.9348 9.860
16.9500 10.014
16.9652 9.790
16.9803 9.701
16.9955 9.741
17.0107 9.885
17.0259 10.049
17.0410 10.061
17.0562 10.095
17.0714 10.120
17.0866 10.481
17.1017 10.826
17.1169 10.876
17.1321 11.132
17.1473 11.394
17.1624 11.882
17.1776 12.270
17.1928 13.068
17.2080 14.228
17.2231 15.083
17.2383 16.061
17.2535 17.309
17.2687 18.465
17.2838 18.946
17.2990 18.229
17.3142 16.828
17.3294 16.107
17.3445 16.127
17.3597 16.123
17.3749 15.845
17.3901 15.286
17.4052 14.409
17.4204 13.282
17.4356 12.369
17.4508 11.944
17.4659 11.687
17.4811 11.399
17.4963 11.140
17.5115 11.076
17.5266 10.933
17.5418 10.717
17.5570 10.686
17.5722 10.647
17.5873 10.703
17.6025 10.904
17.6177 10.866
17.6329 10.627
17.6480 10.551
17.6632 10.502
17.6784 10.550
17.6936 10.541
17.7087 10.535
17.7239 10.699
17.7391 10.738
17.7543 10.574
17.7694 10.687
17.7846 11.283
17.7998 11.620
17.8150 11.732
17.8301 11.916
17.8453 11.931
17.8605 11.983
17.8757 12.005
17.8908 12.079
17.9060 12.070
17.9212 11.802
17.9364 11.391
17.9515 11.306
17.9667 11.228
17.9819 11.120
17.9971 11.047
18.0122 10.975
18.0274 10.743
18.0426 10.466
18.0578 10.337
18.0729 10.194
18.0881 10.288
18.1033 10.282
18.1185 10.235
18.1336 10.205
18.1488 10.084
18.1640 10.015
18.1792 10.076
18.1943 9.897
18.2095 9.945
18.2247 9.934
18.2399 9.899
18.2550 9.838
18.2702 9.800
18.2854 9.762
18.3006 9.964
18.3157 9.886
18.3309 9.907
18.3461 10.102
18.3613 9.826
18.3764 9.796
18.3916 9.968
18.4068 9.902
18.4220 9.911
18.4371 9.902
18.4523 10.011
18.4675 9.908
18.4827 9.794
18.4978 9.761
18.5130 9.772
18.5282 9.895
18.5434 9.880
18.5585 9.898
18.5737 9.899
18.5889 9.654
18.6041 9.739
18.6192 9.803
18.6344 9.943
18.6496 9.828
18.6648 9.763
18.6799 9.888
18.6951 9.812
18.7103 9.644
18.7255 9.840
18.7406 9.848
18.7558 9.765
18.7710 9.886
18.7862 9.955
18.8013 10.090
18.8165 9.825
18.8317 9.637
18.8469 9.887
18.8620 10.126
18.8772 10.088
18.8924 9.784
18.9076 9.858
18.9227 10.026
18.9379 9.984
18.9531 9.983
18.9683 10.021
18.9834 9.959
18.9986 10.054
19.0138 10.369
19.0290 10.243
19.0441 10.048
19.0593 10.257
19.0745 10.250
19.0897 10.292
19.1048 10.468
19.1200 10.446
19.1352 10.220
19.1504 10.345
19.1655 10.693
19.1807 10.558
19.1959 10.575
19.2111 10.795
19.2262 10.649
19.2414 10.768
19.2566 10.816
19.2718 10.770
19.2869 10.995
19.3021 11.092
19.3173 11.101
19.3325 11.130
19.3476 11.054
19.3628 11.121
19.3780 11.139
19.3932 11.217
19.4083 11.213
19.4235 10.993
19.4387 11.086
19.4539 11.117
19.4690 11.102
19.4842 11.133
19.4994 11.291
19.5146 11.385
19.5297 11.191
19.5449 11.117
19.5601 11.421
19.5753 11.581
19.5904 11.426
19.6056 11.304
19.6208 11.304
19.6360 11.444
19.6511 11.576
19.6663 11.432
19.6815 11.370
19.6967 11.738
19.7118 12.000
19.7270 11.864
19.7422 11.794
19.7574 11.814
19.7725 11.682
19.7877 11.670
19.8029 11.846
19.8180 11.973
19.8332 12.043
19.8484 12.115
19.8636 12.252
19.8787 12.639
19.8939 12.713
19.9091 12.931
19.9243 13.492
19.9394 13.931
19.9546 14.272
19.9698 14.396
19.9850 14.591
20.0001 14.867
20.0153 14.475
20.0305 13.920
20.0457 13.864
20.0608 13.789
20.0760 13.624
20.0912 13.842
20.1064 13.694
20.1215 13.157
20.1367 12.924
20.1519 13.181
20.1671 13.267
20.1822 12.773
20.1974 12.690
20.2126 12.793
20.2278 12.724
20.2429 12.486
20.2581 12.232
20.2733 11.901
20.2885 11.869
20.3036 11.701
20.3188 11.488
20.3340 11.645
20.3492 11.701
20.3643 11.842
20.3795 11.624
20.3947 11.246
20.4099 11.142
20.4250 10.936
20.4402 10.846
20.4554 10.996
20.4706 10.899
20.4857 10.745
20.5009 10.830
20.5161 10.814
20.5313 10.898
20.5464 10.982
20.5616 10.974
20.5768 10.970
20.5920 10.691
20.6071 10.841
20.6223 10.640
20.6375 10.718
20.6527 10.830
20.6678 10.957
20.6830 10.625
20.6982 10.826
20.7134 10.949
20.7285 10.780
20.7437 10.593
20.7589 10.700
20.7741 10.702
20.7892 10.535
20.8044 10.879
20.8196 10.676
20.8348 10.468
20.8499 10.210
20.8651 10.366
20.8803 10.569
20.8955 10.254
20.9106 10.511
20.9258 10.585
20.9410 10.638
20.9562 10.666
20.9713 10.282
20.9865 10.215
21.0017 10.308
21.0169 10.109
21.0320 10.339
21.0472 10.097
21.0624 10.213
21.0776 9.973
21.0927 10.097
21.1079 10.391
21.1231 10.010
21.1383 9.846
21.1534 9.715
21.1686 9.833
21.1838 9.898
21.1990 9.678
21.2141 9.558
21.2293 10.063
21.2445 9.708
21.2597 9.858
21.2748 9.486
21.2900 9.812
21.3052 9.661
21.3204 9.499
21.3355 9.567
21.3507 9.406
21.3659 9.475
21.3811 9.706
21.3962 9.533
21.4114 9.522
21.4266 9.534
21.4418 9.472
21.4569 9.403
21.4721 9.186
21.4873 9.232
21.5025 9.188
21.5176 9.260
21.5328 9.248
21.5480 9.230
21.5632 9.086
21.5783 9.332
21.5935 9.111
21.6087 9.223
21.6239 9.080
21.6390 9.316
21.6542 9.266
21.6694 9.220
21.6846 9.026
21.6997 9.119
21.7149 8.946
21.7301 8.868
21.7453 9.069
21.7604 9.010
21.7756 8.711
21.7908 8.911
21.8060 9.186
21.8211 9.196
21.8363 9.009
21.8515 9.039
21.8667 9.112
21.8818 8.955
21.8970 9.113
21.9122 9.132
21.9274 8.970
21.9425 8.977
21.9577 9.011
21.9729 8.846
21.9881 8.776
22.0032 8.721
22.0184 8.733
22.0336 8.712
22.0488 8.529
22.0639 8.630
22.0791 8.623
22.0943 8.685
22.1095 8.680
22.1246 8.657
22.1398 8.841
22.1550 8.625
22.1702 8.471
22.1853 8.603
22.2005 8.568
22.2157 8.447
22.2309 8.778
22.2460 8.655
22.2612 8.503
22.2764 8.585
22.2916 8.725
22.3067 8.444
22.3219 8.503
22.3371 8.504
22.3523 8.410
22.3674 8.579
22.3826 8.657
22.3978 8.658
22.4130 8.579
22.4281 8.745
22.4433 8.554
22.4585 8.257
22.4737 8.302
22.4888 8.456
22.5040 8.598
22.5192 8.470
22.5344 8.286
22.5495 8.539
22.5647 8.668
22.5799 8.468
22.5951 8.184
22.6102 8.548
22.6254 8.561
22.6406 8.546
22.6558 8.262
22.6709 8.207
22.6861 8.342
22.7013 8.067
22.7165 8.219
22.7316 6.587
