'Id: "" Comment: "" Operator: "Lab Manager" Anode: "Mo" Scantype: "Still (Eiger2R_500K (1D mode))" TimePerStep: "300" X: "11.8" Y: "9.4" Z: "11.284" 
7.2532 19.172
7.2684 19.199
7.2836 18.687
7.2987 19.295
7.3139 19.130
7.3291 19.350
7.3443 19.011
7.3594 19.486
7.3746 19.295
7.3898 19.249
7.4050 19.436
7.4201 19.781
7.4353 19.534
7.4505 19.604
7.4657 19.559
7.4808 19.860
7.4960 19.671
7.5112 19.792
7.5264 19.731
7.5415 19.922
7.5567 19.961
7.5719 19.908
7.5871 19.944
7.6022 20.133
7.6174 20.169
7.6326 19.769
7.6478 20.000
7.6629 20.045
7.6781 20.273
7.6933 20.323
7.7085 20.050
7.7236 19.988
7.7388 20.438
7.7540 20.632
7.7692 20.841
7.7843 20.796
7.7995 20.766
7.8147 20.933
7.8299 20.806
7.8450 20.570
7.8602 20.844
7.8754 20.997
7.8905 21.207
7.9057 21.244
7.9209 21.154
7.9361 21.148
7.9512 21.159
7.9664 20.960
7.9816 20.970
7.9968 20.805
8.0119 21.066
8.0271 21.112
8.0423 21.142
8.0575 21.215
8.0726 21.597
8.0878 21.700
8.1030 21.334
8.1182 21.480
8.1333 21.568
8.1485 21.693
8.1637 21.241
8.1789 21.565
8.1940 21.391
8.2092 21.384
8.2244 22.053
8.2396 21.652
8.2547 21.731
8.2699 21.914
8.2851 21.767
8.3003 21.620
8.3154 21.549
8.3306 21.625
8.3458 21.945
8.3610 21.833
8.3761 21.787
8.3913 21.766
8.4065 21.804
8.4217 22.161
8.4368 22.082
8.4520 21.572
8.4672 22.152
8.4824 22.289
8.4975 22.220
8.5127 21.883
8.5279 22.009
8.5431 22.738
8.5582 22.584
8.5734 22.077
8.5886 21.916
8.6038 22.365
8.6189 22.359
8.6341 22.563
8.6493 22.481
8.6645 22.305
8.6796 22.231
8.6948 22.837
8.7100 22.356
8.7252 22.915
8.7403 22.851
8.7555 22.798
8.7707 22.902
8.7859 22.796
8.8010 22.343
8.8162 22.577
8.8314 22.780
8.8466 23.014
8.8617 22.489
8.8769 22.211
8.8921 22.294
8.9073 23.096
8.9224 22.848
8.9376 22.473
8.9528 22.540
8.9680 22.987
8.9831 22.956
8.9983 23.114
9.0135 22.900
9.0287 22.382
9.0438 22.363
9.0590 22.612
9.0742 22.599
9.0894 22.599
9.1045 22.890
9.1197 22.493
9.1349 22.703
9.1501 22.731
9.1652 22.694
9.1804 22.881
9.1956 23.245
9.2108 23.021
9.2259 22.586
9.2411 22.840
9.2563 23.363
9.2715 23.125
9.2866 23.147
9.3018 23.286
9.3170 23.168
9.3322 22.767
9.3473 22.841
9.3625 23.207
9.3777 23.035
9.3929 23.186
9.4080 23.179
9.4232 23.232
9.4384 23.316
9.4536 23.088
9.4687 23.369
9.4839 23.585
9.4991 23.428
9.5143 23.224
9.5294 23.404
9.5446 23.503
9.5598 23.255
9.5750 23.416
9.5901 23.382
9.6053 23.103
9.6205 23.217
9.6357 23.350
9.6508 23.556
9.6660 23.437
9.6812 23.465
9.6964 23.878
9.7115 23.901
9.7267 24.050
9.7419 24.303
9.7571 24.331
9.7722 24.123
9.7874 23.918
9.8026 23.934
9.8178 23.692
9.8329 23.277
9.8481 23.436
9.8633 23.636
9.8785 23.258
9.8936 23.382
9.9088 23.583
9.9240 23.480
9.9392 23.810
9.9543 23.693
9.9695 23.472
9.9847 23.784
9.9999 23.756
10.0150 23.517
10.0302 23.455
10.0454 23.730
10.0606 23.885
10.0757 23.651
10.0909 23.654
10.1061 23.904
10.1213 23.658
10.1364 23.180
10.1516 23.317
10.1668 23.561
10.1820 23.843
10.1971 23.798
10.2123 24.133
10.2275 24.395
10.2427 24.227
10.2578 24.039
10.2730 23.801
10.2882 23.743
10.3034 23.529
10.3185 23.246
10.3337 23.310
10.3489 22.952
10.3641 22.903
10.3792 22.978
10.3944 23.050
10.4096 22.873
10.4248 22.687
10.4399 22.919
10.4551 22.922
10.4703 22.946
10.4855 22.873
10.5006 22.751
10.5158 22.664
10.5310 22.782
10.5462 22.832
10.5613 22.902
10.5765 22.577
10.5917 22.510
10.6069 22.630
10.6220 22.844
10.6372 22.400
10.6524 22.457
10.6676 23.079
10.6827 22.660
10.6979 22.551
10.7131 22.533
10.7283 22.535
10.7434 22.389
10.7586 22.474
10.7738 22.252
10.7890 22.468
10.8041 22.346
10.8193 22.442
10.8345 22.177
10.8497 21.950
10.8648 22.092
10.8800 22.072
10.8952 22.218
10.9104 22.241
10.9255 22.003
10.9407 22.141
10.9559 22.166
10.9711 22.128
10.9862 22.026
11.0014 22.116
11.0166 22.499
11.0318 22.650
11.0469 21.981
11.0621 21.943
11.0773 22.435
11.0925 22.132
11.1076 22.006
11.1228 22.061
11.1380 21.897
11.1532 22.034
11.1683 22.205
11.1835 21.751
11.1987 21.767
11.2139 21.721
11.2290 21.933
11.2442 22.102
11.2594 22.088
11.2746 22.091
11.2897 21.738
11.3049 21.624
11.3201 21.745
11.3353 21.293
11.3504 21.598
11.3656 21.899
11.3808 21.377
11.3960 21.667
11.4111 21.748
11.4263 21.627
11.4415 21.211
11.4567 21.370
11.4718 21.515
11.4870 21.226
11.5022 21.188
11.5174 21.063
11.5325 21.154
11.5477 21.017
11.5629 21.085
11.5781 20.931
11.5932 20.979
11.6084 21.010
11.6236 20.942
11.6388 20.983
11.6539 20.695
11.6691 20.689
11.6843 20.495
11.6995 20.433
11.7146 20.545
11.7298 20.769
11.7450 20.473
11.7602 20.063
11.7753 20.540
11.7905 20.498
11.8057 19.823
11.8209 19.907
11.8360 19.934
11.8512 19.886
11.8664 20.053
11.8816 20.043
11.8967 19.771
11.9119 19.545
11.9271 19.384
11.9423 19.561
11.9574 19.547
11.9726 19.265
11.9878 19.552
12.0030 19.498
12.0181 19.233
12.0333 18.782
12.0485 18.913
12.0637 18.992
12.0788 18.844
12.0940 18.580
12.1092 18.874
12.1244 18.977
12.1395 18.604
12.1547 18.321
12.1699 18.414
12.1851 18.425
12.2002 18.408
12.2154 17.836
12.2306 17.859
12.2458 18.006
12.2609 17.830
12.2761 17.628
12.2913 17.485
12.3065 17.602
12.3216 17.546
12.3368 17.701
12.3520 17.627
12.3672 17.465
12.3823 17.606
12.3975 17.555
12.4127 17.502
12.4279 17.540
12.4430 17.180
12.4582 17.087
12.4734 17.237
12.4886 16.972
12.5037 16.746
12.5189 17.067
12.5341 16.809
12.5493 16.634
12.5644 16.477
12.5796 16.334
12.5948 16.401
12.6100 16.267
12.6251 16.321
12.6403 16.069
12.6555 15.765
12.6707 16.062
12.6858 15.940
12.7010 15.563
12.7162 15.392
12.7314 15.260
12.7465 15.440
12.7617 15.759
12.7769 15.574
12.7921 15.317
12.8072 15.129
12.8224 15.133
12.8376 15.107
12.8528 15.100
12.8679 14.890
12.8831 14.737
12.8983 14.693
12.9135 14.549
12.9286 14.557
12.9438 14.706
12.9590 14.647
12.9742 14.554
12.9893 14.543
13.0045 14.216
13.0197 14.035
13.0349 13.963
13.0500 13.957
13.0652 13.929
13.0804 13.949
13.0956 13.943
13.1107 13.858
13.1259 13.708
13.1411 13.440
13.1563 13.673
13.1714 13.719
13.1866 13.480
13.2018 13.447
13.2170 13.423
13.2321 13.316
13.2473 13.137
13.2625 13.239
13.2777 13.151
13.2928 12.911
13.3080 12.899
13.3232 13.098
13.3384 13.401
13.3535 13.382
13.3687 13.076
13.3839 12.714
13.3991 12.766
13.4142 12.877
13.4294 12.844
13.4446 12.821
13.4598 12.802
13.4749 12.640
13.4901 12.525
13.5053 12.429
13.5205 12.167
13.5356 12.266
13.5508 12.457
13.5660 12.226
13.5812 12.313
13.5963 12.288
13.6115 11.992
13.6267 12.194
13.6419 12.285
13.6570 12.212
13.6722 12.061
13.6874 11.926
13.7026 11.897
13.7177 12.125
13.7329 11.871
13.7481 11.808
13.7633 11.908
13.7784 11.853
13.7936 11.857
13.8088 12.158
13.8239 12.264
13.8391 12.437
13.8543 12.292
13.8695 12.230
13.8846 12.191
13.8998 12.129
13.9150 12.036
13.9302 11.958
13.9453 12.113
13.9605 12.004
13.9757 11.838
13.9909 11.655
14.0060 11.761
14.0212 11.529
14.0364 11.570
14.0516 11.606
14.0667 11.486
14.0819 11.541
14.0971 11.060
14.1123 11.247
14.1274 11.678
14.1426 11.608
14.1578 11.454
14.1730 11.396
14.1881 11.713
14.2033 11.783
14.2185 11.881
14.2337 11.843
14.2488 11.614
14.2640 11.909
14.2792 12.112
14.2944 12.325
14.3095 12.581
14.3247 12.651
14.3399 12.642
14.3551 13.069
14.3702 13.282
14.3854 13.209
14.4006 13.225
14.4158 13.033
14.4309 12.977
14.4461 12.847
14.4613 12.851
14.4765 12.654
14.4916 12.576
14.5068 12.580
14.5220 12.182
14.5372 11.781
14.5523 11.796
14.5675 11.703
14.5827 11.402
14.5979 11.437
14.6130 11.446
14.6282 11.425
14.6434 11.257
14.6586 11.402
14.6737 11.205
14.6889 11.078
14.7041 11.080
14.7193 10.788
14.7344 10.854
14.7496 10.772
14.7648 10.526
14.7800 10.772
14.7951 10.542
14.8103 10.797
14.8255 10.850
14.8407 10.716
14.8558 10.598
14.8710 10.716
14.8862 10.642
14.9014 10.541
14.9165 11.055
14.9317 10.757
14.9469 10.565
14.9621 10.802
14.9772 10.579
14.9924 10.603
15.0076 10.592
15.0228 10.620
15.0379 10.628
15.0531 10.351
15.0683 10.488
15.0835 10.241
15.0986 10.740
15.1138 10.304
15.1290 10.686
15.1442 10.380
15.1593 10.414
15.1745 10.439
15.1897 10.529
15.2049 10.475
15.2200 10.176
15.2352 10.619
15.2504 10.910
15.2656 10.374
15.2807 10.167
15.2959 10.171
15.3111 10.087
15.3263 10.483
15.3414 10.286
15.3566 10.458
15.3718 10.511
15.3870 10.493
15.4021 10.645
15.4173 10.462
15.4325 10.540
15.4477 10.674
15.4628 10.502
15.4780 10.344
15.4932 10.237
15.5084 10.555
15.5235 10.226
15.5387 10.354
15.5539 10.312
15.5691 10.140
15.5842 10.291
15.5994 10.248
15.6146 9.985
15.6298 9.824
15.6449 10.212
15.6601 9.972
15.6753 10.050
15.6905 9.925
15.7056 10.006
15.7208 9.851
15.7360 10.104
15.7512 9.845
15.7663 9.644
15.7815 9.838
15.7967 10.008
15.8119 10.138
15.8270 9.882
15.8422 9.504
15.8574 9.897
15.8726 9.695
15.8877 9.641
15.9029 9.650
15.9181 9.887
15.9333 9.780
15.9484 9.894
15.9636 9.945
15.9788 9.789
15.9940 9.990
16.0091 9.893
16.0243 9.564
16.0395 9.693
16.0547 9.713
16.0698 9.565
16.0850 9.520
16.1002 9.713
16.1154 9.639
16.1305 9.754
16.1457 9.872
16.1609 9.848
16.1761 9.547
16.1912 9.421
16.2064 9.607
16.2216 9.709
16.2368 9.826
16.2519 9.985
16.2671 9.702
16.2823 10.033
16.2975 10.196
16.3126 10.029
16.3278 9.871
16.3430 9.796
16.3582 9.743
16.3733 9.786
16.3885 10.155
16.4037 10.154
16.4189 9.965
16.4340 10.157
16.4492 10.188
16.4644 9.806
16.4796 9.587
16.4947 9.866
16.5099 9.855
16.5251 9.731
16.5403 9.644
16.5554 9.734
16.5706 9.778
16.5858 9.565
16.6010 9.670
16.6161 9.854
16.6313 9.780
16.6465 9.831
16.6617 10.071
16.6768 9.953
16.6920 9.796
16.7072 9.847
16.7224 9.912
16.7375 10.071
16.7527 9.967
16.7679 9.792
16.7831 9.801
16.7982 9.845
16.8134 9.859
16.8286 10.104
16.8438 9.796
16.8589 9.513
16.8741 9.891
16.8893 9.875
16.9045 9.813
16.9196 9.756
16.9348 9.882
16.9500 9.848
16.9652 9.629
16.9803 9.789
16.9955 9.856
17.0107 9.824
17.0259 10.126
17.0410 10.249
17.0562 10.095
17.0714 9.896
17.0866 10.089
17.1017 10.474
17.1169 10.750
17.1321 11.311
17.1473 11.732
17.1624 12.089
17.1776 12.608
17.1928 12.987
17.2080 13.482
17.2231 14.543
17.2383 16.046
17.2535 17.406
17.2687 18.512
17.2838 18.926
17.2990 18.180
17.3142 17.117
17.3294 16.385
17.3445 15.981
17.3597 15.951
17.3749 15.739
17.3901 15.175
17.4052 14.276
17.4204 13.237
17.4356 12.483
17.4508 11.969
17.4659 11.524
17.4811 11.322
17.4963 11.598
17.5115 11.575
17.5266 11.123
17.5418 11.002
17.5570 11.264
17.5722 11.524
17.5873 11.658
17.6025 11.671
17.6177 11.349
17.6329 10.984
17.6480 11.007
17.6632 10.922
17.6784 11.109
17.6936 11.447
17.7087 11.147
17.7239 10.799
17.7391 10.811
17.7543 10.804
17.7694 10.702
17.7846 10.835
17.7998 10.711
17.8150 10.671
17.8301 10.675
17.8453 10.579
17.8605 10.521
17.8757 10.448
17.8908 10.679
17.9060 10.840
17.9212 10.727
17.9364 10.746
17.9515 10.585
17.9667 10.529
17.9819 10.300
17.9971 10.210
18.0122 10.213
18.0274 10.239
18.0426 10.277
18.0578 10.341
18.0729 10.178
18.0881 10.148
18.1033 10.063
18.1185 10.036
18.1336 10.233
18.1488 10.217
18.1640 10.011
18.1792 9.852
18.1943 9.761
18.2095 9.789
18.2247 9.905
18.2399 9.918
18.2550 9.790
18.2702 9.691
18.2854 9.791
18.3006 9.914
18.3157 9.840
18.3309 9.691
18.3461 9.745
18.3613 9.581
18.3764 9.639
18.3916 9.838
18.4068 9.698
18.4220 9.720
18.4371 10.010
18.4523 10.034
18.4675 9.792
18.4827 9.549
18.4978 9.745
18.5130 9.537
18.5282 9.558
18.5434 9.756
18.5585 9.822
18.5737 9.911
18.5889 9.896
18.6041 9.728
18.6192 9.762
18.6344 9.737
18.6496 9.734
18.6648 9.525
18.6799 9.618
18.6951 9.742
18.7103 9.756
18.7255 9.866
18.7406 9.801
18.7558 9.718
18.7710 9.709
18.7862 9.841
18.8013 9.897
18.8165 9.648
18.8317 9.770
18.8469 9.936
18.8620 9.959
18.8772 9.925
18.8924 10.024
18.9076 10.046
18.9227 9.872
18.9379 10.025
18.9531 10.105
18.9683 9.911
18.9834 9.977
18.9986 10.042
19.0138 9.924
19.0290 10.024
19.0441 10.225
19.0593 10.301
19.0745 10.297
19.0897 10.337
19.1048 10.307
19.1200 10.355
19.1352 10.413
19.1504 10.418
19.1655 10.577
19.1807 10.663
19.1959 10.623
19.2111 10.740
19.2262 10.836
19.2414 10.710
19.2566 10.561
19.2718 10.596
19.2869 10.603
19.3021 10.784
19.3173 10.970
19.3325 11.031
19.3476 11.107
19.3628 11.052
19.3780 11.019
19.3932 11.195
19.4083 11.458
19.4235 11.253
19.4387 11.174
19.4539 11.474
19.4690 11.513
19.4842 11.400
19.4994 11.508
19.5146 11.520
19.5297 11.319
19.5449 11.486
19.5601 11.549
19.5753 11.559
19.5904 11.616
19.6056 11.675
19.6208 11.663
19.6360 11.571
19.6511 11.649
19.6663 11.745
19.6815 11.547
19.6967 11.539
19.7118 11.644
19.7270 11.681
19.7422 11.808
19.7574 11.831
19.7725 11.943
19.7877 11.936
19.8029 11.953
19.8180 12.046
19.8332 12.142
19.8484 12.198
19.8636 12.224
19.8787 12.546
19.8939 12.955
19.9091 13.153
19.9243 13.415
19.9394 13.717
19.9546 14.044
19.9698 14.177
19.9850 14.305
20.0001 14.221
20.0153 13.991
20.0305 14.089
20.0457 14.127
20.0608 13.794
20.0760 13.682
20.0912 13.571
20.1064 13.406
20.1215 13.242
20.1367 13.136
20.1519 13.041
20.1671 13.119
20.1822 12.968
20.1974 12.972
20.2126 12.963
20.2278 12.717
20.2429 12.702
20.2581 12.655
20.2733 12.387
20.2885 12.205
20.3036 12.066
20.3188 11.940
20.3340 11.973
20.3492 11.605
20.3643 11.413
20.3795 11.209
20.3947 10.755
20.4099 10.705
20.4250 10.632
20.4402 10.869
20.4554 10.987
20.4706 11.056
20.4857 10.841
20.5009 10.802
20.5161 10.751
20.5313 10.868
20.5464 10.631
20.5616 10.681
20.5768 10.950
20.5920 10.886
20.6071 11.213
20.6223 11.011
20.6375 10.768
20.6527 10.764
20.6678 10.728
20.6830 10.552
20.6982 10.660
20.7134 10.530
20.7285 10.591
20.7437 10.619
20.7589 10.832
20.7741 10.413
20.7892 10.705
20.8044 10.582
20.8196 10.408
20.8348 10.529
20.8499 10.411
20.8651 10.218
20.8803 10.517
20.8955 10.507
20.9106 10.304
20.9258 10.334
20.9410 10.209
20.9562 10.204
20.9713 10.304
20.9865 10.496
21.0017 9.941
21.0169 10.149
21.0320 10.104
21.0472 9.962
21.0624 9.985
21.0776 9.967
21.0927 9.781
21.1079 9.871
21.1231 9.511
21.1383 9.729
21.1534 9.462
21.1686 9.561
21.1838 10.049
21.1990 9.423
21.2141 9.690
21.2293 9.674
21.2445 9.652
21.2597 9.945
21.2748 9.495
21.2900 9.709
21.3052 9.856
21.3204 9.651
21.3355 9.470
21.3507 9.817
21.3659 9.570
21.3811 9.389
21.3962 9.739
21.4114 9.420
21.4266 9.584
21.4418 9.578
21.4569 9.502
21.4721 9.709
21.4873 9.804
21.5025 9.485
21.5176 9.283
21.5328 9.458
21.5480 9.234
21.5632 9.248
21.5783 9.128
21.5935 9.060
21.6087 8.988
21.6239 9.054
21.6390 9.038
21.6542 8.982
21.6694 9.093
21.6846 9.406
21.6997 9.176
21.7149 9.046
21.7301 8.988
21.7453 8.979
21.7604 8.963
21.7756 9.144
21.7908 9.098
21.8060 8.889
21.8211 8.881
21.8363 8.863
21.8515 8.899
21.8667 8.965
21.8818 9.042
21.8970 9.041
21.9122 8.952
21.9274 8.758
21.9425 8.874
21.9577 8.899
21.9729 8.833
21.9881 8.918
22.0032 8.691
22.0184 8.599
22.0336 8.771
22.0488 8.777
22.0639 8.609
22.0791 8.925
22.0943 8.862
22.1095 8.641
22.1246 8.766
22.1398 8.819
22.1550 8.838
22.1702 8.697
22.1853 8.751
22.2005 8.820
22.2157 8.685
22.2309 8.614
22.2460 8.551
22.2612 8.728
22.2764 8.620
22.2916 8.476
22.3067 8.490
22.3219 8.685
22.3371 8.509
22.3523 8.591
22.3674 8.593
22.3826 8.571
22.3978 8.425
22.4130 8.487
22.4281 8.360
22.4433 8.302
22.4585 8.273
22.4737 8.197
22.4888 8.483
22.5040 8.381
22.5192 8.729
22.5344 8.362
22.5495 8.607
22.5647 8.665
22.5799 8.564
22.5951 8.319
22.6102 8.575
22.6254 8.590
22.6406 8.466
22.6558 8.605
22.6709 8.499
22.6861 8.474
22.7013 8.359
22.7165 8.251
22.7316 6.660
