'Id: "" Comment: "" Operator: "Lab Manager" Anode: "Mo" Scantype: "Still (Eiger2R_500K (1D mode))" TimePerStep: "300" X: "11.8" Y: "9.4" Z: "11.284" 
7.2532 18.622
7.2684 18.873
7.2836 19.347
7.2987 18.777
7.3139 18.849
7.3291 19.278
7.3443 18.633
7.3594 19.129
7.3746 19.219
7.3898 19.347
7.4050 19.001
7.4201 18.928
7.4353 19.652
7.4505 19.690
7.4657 19.170
7.4808 19.312
7.4960 19.489
7.5112 19.397
7.5264 19.636
7.5415 19.611
7.5567 20.110
7.5719 19.999
7.5871 20.175
7.6022 19.765
7.6174 19.925
7.6326 20.102
7.6478 20.212
7.6629 20.157
7.6781 20.304
7.6933 20.352
7.7085 20.407
7.7236 20.506
7.7388 20.438
7.7540 20.536
7.7692 20.307
7.7843 20.485
7.7995 20.446
7.8147 20.411
7.8299 20.359
7.8450 20.351
7.8602 20.468
7.8754 20.511
7.8905 20.999
7.9057 20.896
7.9209 20.642
7.9361 20.827
7.9512 21.024
7.9664 20.785
7.9816 20.799
7.9968 20.836
8.0119 21.001
8.0271 20.993
8.0423 21.151
8.0575 21.040
8.0726 21.297
8.0878 21.280
8.1030 21.110
8.1182 20.880
8.1333 21.353
8.1485 21.798
8.1637 21.529
8.1789 21.524
8.1940 21.725
8.2092 21.802
8.2244 21.494
8.2396 21.649
8.2547 21.924
8.2699 21.600
8.2851 21.458
8.3003 22.269
8.3154 21.734
8.3306 21.329
8.3458 21.852
8.3610 21.715
8.3761 21.901
8.3913 22.430
8.4065 21.803
8.4217 22.130
8.4368 22.050
8.4520 22.090
8.4672 22.143
8.4824 21.973
8.4975 21.747
8.5127 22.106
8.5279 22.190
8.5431 22.221
8.5582 22.456
8.5734 22.535
8.5886 21.957
8.6038 21.808
8.6189 21.931
8.6341 22.559
8.6493 22.614
8.6645 22.711
8.6796 22.096
8.6948 22.287
8.7100 21.907
8.7252 22.434
8.7403 22.239
8.7555 22.034
8.7707 22.691
8.7859 22.419
8.8010 22.641
8.8162 22.674
8.8314 22.622
8.8466 22.251
8.8617 22.698
8.8769 22.931
8.8921 22.206
8.9073 22.783
8.9224 22.856
8.9376 23.047
8.9528 22.652
8.9680 22.766
8.9831 22.794
8.9983 22.458
9.0135 22.720
9.0287 22.952
9.0438 23.365
9.0590 22.788
9.0742 22.988
9.0894 22.894
9.1045 22.461
9.1197 22.640
9.1349 22.656
9.1501 22.701
9.1652 22.873
9.1804 23.023
9.1956 22.881
9.2108 22.904
9.2259 22.998
9.2411 23.060
9.2563 22.977
9.2715 22.938
9.2866 23.125
9.3018 23.161
9.3170 23.020
9.3322 23.097
9.3473 23.110
9.3625 22.937
9.3777 23.103
9.3929 23.027
9.4080 23.505
9.4232 23.168
9.4384 23.076
9.4536 23.133
9.4687 22.921
9.4839 22.867
9.4991 23.136
9.5143 23.382
9.5294 23.426
9.5446 23.552
9.5598 23.729
9.5750 23.773
9.5901 23.280
9.6053 23.042
9.6205 23.380
9.6357 23.460
9.6508 23.523
9.6660 23.620
9.6812 23.684
9.6964 23.781
9.7115 24.281
9.7267 24.343
9.7419 23.820
9.7571 23.696
9.7722 23.648
9.7874 23.636
9.8026 23.687
9.8178 23.414
9.8329 23.524
9.8481 23.705
9.8633 23.486
9.8785 23.427
9.8936 23.649
9.9088 23.343
9.9240 23.067
9.9392 23.137
9.9543 23.479
9.9695 23.384
9.9847 23.373
9.9999 23.422
10.0150 23.133
10.0302 23.223
10.0454 23.003
10.0606 23.017
10.0757 23.662
10.0909 23.731
10.1061 23.432
10.1213 23.273
10.1364 23.524
10.1516 23.485
10.1668 23.464
10.1820 23.544
10.1971 23.310
10.2123 23.382
10.2275 23.141
10.2427 23.145
10.2578 23.008
10.2730 23.063
10.2882 22.893
10.3034 22.708
10.3185 22.673
10.3337 22.693
10.3489 22.760
10.3641 22.890
10.3792 22.863
10.3944 22.719
10.4096 22.699
10.4248 22.788
10.4399 22.588
10.4551 22.449
10.4703 22.773
10.4855 22.762
10.5006 22.131
10.5158 22.234
10.5310 22.785
10.5462 22.669
10.5613 22.154
10.5765 22.647
10.5917 22.644
10.6069 22.561
10.6220 22.669
10.6372 22.567
10.6524 22.613
10.6676 22.778
10.6827 22.691
10.6979 22.641
10.7131 22.462
10.7283 22.232
10.7434 21.991
10.7586 22.453
10.7738 22.657
10.7890 22.366
10.8041 22.242
10.8193 22.511
10.8345 22.655
10.8497 22.149
10.8648 22.226
10.8800 22.186
10.8952 22.137
10.9104 22.233
10.9255 21.846
10.9407 21.848
10.9559 21.919
10.9711 22.068
10.9862 21.994
11.0014 22.037
11.0166 22.053
11.0318 22.239
11.0469 22.047
11.0621 21.956
11.0773 21.836
11.0925 21.558
11.1076 21.510
11.1228 21.669
11.1380 21.772
11.1532 21.466
11.1683 21.817
11.1835 21.841
11.1987 21.551
11.2139 21.650
11.2290 21.585
11.2442 21.510
11.2594 21.505
11.2746 21.563
11.2897 21.717
11.3049 21.555
11.3201 21.678
11.3353 21.270
11.3504 21.041
11.3656 21.409
11.3808 21.472
11.3960 21.489
11.4111 21.059
11.4263 21.373
11.4415 21.307
11.4567 20.969
11.4718 21.153
11.4870 21.124
11.5022 21.114
11.5174 20.786
11.5325 21.028
11.5477 20.948
11.5629 20.977
11.5781 20.971
11.5932 21.203
11.6084 20.912
11.6236 20.787
11.6388 21.105
11.6539 20.727
11.6691 20.554
11.6843 20.485
11.6995 20.405
11.7146 20.498
11.7298 20.453
11.7450 20.401
11.7602 20.081
11.7753 19.878
11.7905 20.236
11.8057 20.234
11.8209 20.107
11.8360 20.251
11.8512 20.043
11.8664 19.677
11.8816 19.782
11.8967 20.013
11.9119 19.718
11.9271 19.683
11.9423 19.626
11.9574 19.504
11.9726 19.285
11.9878 19.332
12.0030 19.234
12.0181 19.099
12.0333 18.802
12.0485 18.984
12.0637 19.039
12.0788 19.017
12.0940 18.943
12.1092 18.323
12.1244 18.342
12.1395 18.600
12.1547 18.337
12.1699 18.343
12.1851 18.254
12.2002 18.278
12.2154 18.503
12.2306 18.251
12.2458 18.169
12.2609 17.806
12.2761 17.874
12.2913 17.979
12.3065 17.816
12.3216 17.839
12.3368 17.783
12.3520 17.614
12.3672 17.502
12.3823 17.357
12.3975 17.153
12.4127 17.287
12.4279 17.386
12.4430 17.344
12.4582 16.934
12.4734 16.782
12.4886 16.732
12.5037 16.860
12.5189 16.748
12.5341 16.431
12.5493 16.325
12.5644 16.241
12.5796 16.471
12.5948 16.134
12.6100 16.015
12.6251 16.006
12.6403 15.989
12.6555 16.007
12.6707 15.928
12.6858 15.899
12.7010 15.729
12.7162 15.622
12.7314 15.433
12.7465 15.410
12.7617 15.432
12.7769 15.234
12.7921 14.969
12.8072 15.057
12.8224 15.134
12.8376 15.021
12.8528 15.032
12.8679 15.136
12.8831 14.898
12.8983 14.994
12.9135 15.017
12.9286 14.692
12.9438 14.560
12.9590 14.519
12.9742 14.673
12.9893 14.641
13.0045 14.375
13.0197 14.050
13.0349 13.797
13.0500 14.143
13.0652 14.163
13.0804 13.896
13.0956 13.853
13.1107 13.750
13.1259 13.771
13.1411 13.736
13.1563 13.559
13.1714 13.601
13.1866 13.712
13.2018 13.647
13.2170 13.964
13.2321 13.757
13.2473 13.252
13.2625 13.355
13.2777 13.259
13.2928 13.351
13.3080 13.505
13.3232 13.244
13.3384 12.974
13.3535 12.908
13.3687 13.144
13.3839 13.251
13.3991 13.200
13.4142 13.093
13.4294 12.884
13.4446 12.913
13.4598 12.573
13.4749 12.563
13.4901 12.620
13.5053 12.606
13.5205 12.682
13.5356 12.621
13.5508 12.550
13.5660 12.447
13.5812 12.166
13.5963 12.387
13.6115 12.509
13.6267 12.412
13.6419 12.317
13.6570 12.380
13.6722 12.296
13.6874 12.208
13.7026 12.072
13.7177 12.116
13.7329 12.149
13.7481 12.224
13.7633 12.179
13.7784 12.115
13.7936 12.149
13.8088 12.055
13.8239 12.261
13.8391 12.413
13.8543 12.376
13.8695 12.221
13.8846 12.099
13.8998 12.121
13.9150 12.032
13.9302 12.206
13.9453 12.242
13.9605 12.145
13.9757 11.763
13.9909 11.407
14.0060 11.467
14.0212 11.633
14.0364 11.769
14.0516 11.414
14.0667 11.423
14.0819 12.066
14.0971 11.754
14.1123 11.567
14.1274 11.423
14.1426 11.486
14.1578 11.459
14.1730 11.386
14.1881 11.423
14.2033 11.442
14.2185 11.502
14.2337 11.662
14.2488 11.939
14.2640 11.923
14.2792 12.029
14.2944 12.302
14.3095 12.500
14.3247 12.766
14.3399 12.710
14.3551 13.043
14.3702 12.947
14.3854 12.990
14.4006 13.347
14.4158 13.404
14.4309 13.020
14.4461 13.139
14.4613 12.827
14.4765 12.733
14.4916 12.551
14.5068 12.092
14.5220 11.441
14.5372 11.495
14.5523 11.356
14.5675 11.099
14.5827 10.723
14.5979 10.783
14.6130 10.981
14.6282 10.901
14.6434 10.851
14.6586 10.524
14.6737 10.658
14.6889 10.934
14.7041 10.667
14.7193 10.877
14.7344 10.444
14.7496 9.987
14.7648 10.516
14.7800 10.694
14.7951 10.496
14.8103 10.488
14.8255 10.382
14.8407 10.378
14.8558 10.316
14.8710 10.792
14.8862 10.698
14.9014 10.715
14.9165 10.763
14.9317 10.623
14.9469 10.525
14.9621 10.260
14.9772 10.388
14.9924 10.631
15.0076 10.384
15.0228 10.613
15.0379 10.332
15.0531 10.462
15.0683 10.378
15.0835 10.211
15.0986 10.389
15.1138 10.225
15.1290 10.002
15.1442 10.522
15.1593 10.611
15.1745 10.202
15.1897 10.029
15.2049 10.247
15.2200 10.166
15.2352 10.537
15.2504 10.120
15.2656 10.055
15.2807 10.036
15.2959 10.451
15.3111 10.024
15.3263 10.030
15.3414 10.319
15.3566 10.134
15.3718 9.839
15.3870 10.054
15.4021 10.452
15.4173 10.444
15.4325 10.048
15.4477 10.391
15.4628 10.700
15.4780 10.411
15.4932 10.215
15.5084 10.548
15.5235 10.190
15.5387 10.301
15.5539 9.901
15.5691 10.011
15.5842 9.959
15.5994 9.962
15.6146 9.993
15.6298 9.794
15.6449 9.855
15.6601 10.004
15.6753 10.155
15.6905 9.879
15.7056 9.818
15.7208 10.055
15.7360 9.882
15.7512 9.914
15.7663 9.854
15.7815 9.478
15.7967 9.784
15.8119 9.804
15.8270 9.708
15.8422 9.840
15.8574 9.647
15.8726 9.548
15.8877 9.741
15.9029 9.595
15.9181 9.577
15.9333 9.522
15.9484 9.699
15.9636 9.567
15.9788 9.719
15.9940 9.714
16.0091 9.610
16.0243 9.612
16.0395 9.583
16.0547 9.756
16.0698 9.835
16.0850 9.781
16.1002 9.672
16.1154 9.440
16.1305 9.512
16.1457 9.762
16.1609 9.860
16.1761 9.820
16.1912 9.628
16.2064 9.864
16.2216 9.851
16.2368 9.830
16.2519 9.805
16.2671 9.481
16.2823 9.813
16.2975 9.986
16.3126 9.762
16.3278 9.896
16.3430 9.723
16.3582 10.115
16.3733 10.022
16.3885 9.867
16.4037 9.866
16.4189 10.154
16.4340 10.070
16.4492 9.800
16.4644 9.921
16.4796 9.823
16.4947 9.705
16.5099 9.843
16.5251 10.006
16.5403 9.797
16.5554 9.670
16.5706 9.598
16.5858 9.806
16.6010 9.729
16.6161 9.782
16.6313 10.052
16.6465 10.037
16.6617 10.008
16.6768 9.944
16.6920 10.033
16.7072 9.974
16.7224 10.106
16.7375 10.195
16.7527 10.030
16.7679 10.149
16.7831 9.908
16.7982 9.685
16.8134 9.898
16.8286 9.811
16.8438 9.703
16.8589 9.799
16.8741 9.874
16.8893 9.806
16.9045 9.605
16.9196 9.608
16.9348 10.114
16.9500 10.258
16.9652 10.156
16.9803 10.010
16.9955 9.792
17.0107 9.602
17.0259 9.580
17.0410 9.873
17.0562 9.936
17.0714 10.077
17.0866 10.286
17.1017 10.432
17.1169 10.724
17.1321 11.085
17.1473 11.262
17.1624 11.691
17.1776 12.318
17.1928 13.010
17.2080 13.825
17.2231 14.733
17.2383 16.193
17.2535 17.798
17.2687 18.598
17.2838 18.541
17.2990 17.887
17.3142 16.897
17.3294 16.178
17.3445 16.015
17.3597 16.065
17.3749 15.812
17.3901 15.137
17.4052 14.194
17.4204 13.264
17.4356 12.429
17.4508 11.962
17.4659 11.646
17.4811 11.245
17.4963 11.150
17.5115 10.988
17.5266 11.087
17.5418 11.270
17.5570 11.263
17.5722 11.323
17.5873 11.298
17.6025 11.291
17.6177 11.496
17.6329 11.436
17.6480 11.116
17.6632 11.291
17.6784 11.342
17.6936 11.591
17.7087 11.698
17.7239 11.488
17.7391 11.367
17.7543 11.141
17.7694 11.006
17.7846 11.136
17.7998 11.062
17.8150 10.786
17.8301 10.611
17.8453 10.358
17.8605 10.225
17.8757 10.145
17.8908 10.280
17.9060 10.301
17.9212 10.090
17.9364 10.026
17.9515 10.097
17.9667 10.095
17.9819 10.124
17.9971 10.140
18.0122 10.148
18.0274 10.097
18.0426 10.089
18.0578 10.086
18.0729 9.896
18.0881 9.887
18.1033 10.002
18.1185 10.125
18.1336 9.898
18.1488 10.036
18.1640 9.974
18.1792 9.841
18.1943 9.778
18.2095 9.738
18.2247 9.931
18.2399 10.037
18.2550 10.023
18.2702 10.037
18.2854 10.052
18.3006 10.047
18.3157 9.893
18.3309 9.843
18.3461 9.851
18.3613 9.844
18.3764 10.097
18.3916 10.021
18.4068 10.017
18.4220 9.915
18.4371 9.972
18.4523 9.900
18.4675 9.872
18.4827 9.974
18.4978 9.723
18.5130 9.771
18.5282 9.907
18.5434 9.911
18.5585 9.922
18.5737 9.826
18.5889 9.862
18.6041 9.876
18.6192 9.721
18.6344 9.789
18.6496 9.929
18.6648 9.802
18.6799 9.642
18.6951 9.684
18.7103 9.702
18.7255 9.804
18.7406 9.722
18.7558 9.780
18.7710 9.983
18.7862 9.711
18.8013 9.641
18.8165 9.733
18.8317 9.752
18.8469 9.681
18.8620 9.773
18.8772 9.908
18.8924 10.087
18.9076 9.879
18.9227 10.051
18.9379 10.270
18.9531 10.193
18.9683 10.092
18.9834 10.132
18.9986 10.062
19.0138 10.059
19.0290 10.167
19.0441 10.176
19.0593 10.016
19.0745 10.189
19.0897 10.226
19.1048 10.369
19.1200 10.519
19.1352 10.706
19.1504 10.583
19.1655 10.528
19.1807 10.497
19.1959 10.704
19.2111 10.843
19.2262 10.913
19.2414 10.932
19.2566 10.765
19.2718 10.586
19.2869 10.759
19.3021 10.977
19.3173 10.985
19.3325 10.823
19.3476 10.987
19.3628 11.071
19.3780 10.949
19.3932 10.952
19.4083 10.977
19.4235 11.252
19.4387 11.482
19.4539 11.316
19.4690 11.432
19.4842 11.553
19.4994 11.527
19.5146 11.455
19.5297 11.361
19.5449 11.410
19.5601 11.481
19.5753 11.534
19.5904 11.625
19.6056 11.711
19.6208 11.452
19.6360 11.352
19.6511 11.561
19.6663 11.469
19.6815 11.618
19.6967 11.769
19.7118 11.757
19.7270 11.640
19.7422 11.576
19.7574 11.791
19.7725 11.801
19.7877 11.818
19.8029 11.859
19.8180 11.763
19.8332 11.899
19.8484 12.130
19.8636 12.319
19.8787 12.404
19.8939 12.702
19.9091 13.003
19.9243 13.259
19.9394 13.781
19.9546 13.986
19.9698 14.050
19.9850 14.090
20.0001 14.190
20.0153 14.221
20.0305 14.131
20.0457 13.854
20.0608 13.659
20.0760 13.730
20.0912 13.581
20.1064 13.503
20.1215 13.434
20.1367 13.373
20.1519 13.091
20.1671 12.912
20.1822 12.677
20.1974 12.847
20.2126 12.968
20.2278 12.696
20.2429 12.545
20.2581 12.334
20.2733 11.906
20.2885 11.891
20.3036 12.082
20.3188 12.055
20.3340 11.897
20.3492 12.082
20.3643 12.061
20.3795 12.031
20.3947 11.846
20.4099 11.668
20.4250 11.982
20.4402 12.119
20.4554 12.148
20.4706 11.797
20.4857 11.769
20.5009 11.707
20.5161 11.563
20.5313 11.390
20.5464 11.317
20.5616 11.385
20.5768 11.634
20.5920 11.538
20.6071 10.954
20.6223 10.888
20.6375 10.960
20.6527 10.596
20.6678 10.790
20.6830 10.496
20.6982 10.430
20.7134 10.597
20.7285 10.407
20.7437 10.001
20.7589 10.306
20.7741 10.299
20.7892 10.406
20.8044 10.515
20.8196 10.332
20.8348 10.234
20.8499 10.372
20.8651 10.078
20.8803 10.144
20.8955 10.371
20.9106 9.995
20.9258 9.900
20.9410 10.075
20.9562 10.038
20.9713 9.992
20.9865 10.321
21.0017 10.121
21.0169 10.229
21.0320 9.921
21.0472 9.881
21.0624 10.221
21.0776 9.925
21.0927 9.931
21.1079 10.179
21.1231 9.586
21.1383 9.593
21.1534 9.794
21.1686 9.811
21.1838 9.980
21.1990 9.770
21.2141 9.630
21.2293 9.776
21.2445 9.708
21.2597 9.968
21.2748 9.861
21.2900 9.884
21.3052 9.779
21.3204 9.497
21.3355 9.236
21.3507 9.647
21.3659 9.731
21.3811 9.446
21.3962 9.420
21.4114 9.469
21.4266 9.536
21.4418 9.070
21.4569 9.284
21.4721 9.544
21.4873 9.272
21.5025 9.672
21.5176 9.108
21.5328 9.326
21.5480 9.195
21.5632 8.997
21.5783 8.985
21.5935 9.138
21.6087 9.120
21.6239 9.387
21.6390 9.285
21.6542 9.086
21.6694 9.086
21.6846 9.088
21.6997 8.959
21.7149 9.235
21.7301 9.226
21.7453 9.155
21.7604 8.885
21.7756 9.036
21.7908 9.018
21.8060 9.116
21.8211 9.222
21.8363 9.026
21.8515 9.065
21.8667 8.976
21.8818 8.765
21.8970 8.637
21.9122 8.784
21.9274 8.991
21.9425 8.983
21.9577 8.774
21.9729 8.828
21.9881 9.094
22.0032 9.110
22.0184 8.786
22.0336 8.792
22.0488 8.843
22.0639 8.738
22.0791 8.667
22.0943 8.933
22.1095 8.874
22.1246 8.792
22.1398 8.999
22.1550 8.852
22.1702 8.832
22.1853 8.668
22.2005 8.577
22.2157 8.602
22.2309 8.559
22.2460 8.348
22.2612 8.534
22.2764 8.690
22.2916 8.501
22.3067 8.508
22.3219 8.475
22.3371 8.375
22.3523 8.425
22.3674 8.524
22.3826 8.876
22.3978 8.664
22.4130 8.412
22.4281 8.594
22.4433 8.309
22.4585 8.343
22.4737 8.731
22.4888 8.377
22.5040 8.345
22.5192 8.586
22.5344 8.579
22.5495 8.663
22.5647 8.412
22.5799 8.337
22.5951 7.980
22.6102 8.479
22.6254 8.520
22.6406 8.762
22.6558 8.197
22.6709 8.436
22.6861 8.331
22.7013 8.192
22.7165 8.064
22.7316 6.396
