'Id: "" Comment: "" Operator: "Lab Manager" Anode: "Mo" Scantype: "Still (Eiger2R_500K (1D mode))" TimePerStep: "300" X: "11.8" Y: "9.4" Z: "11.284" 
7.2532 18.676
7.2684 18.800
7.2836 18.679
7.2987 18.798
7.3139 18.667
7.3291 18.883
7.3443 19.087
7.3594 19.398
7.3746 19.150
7.3898 18.996
7.4050 19.435
7.4201 19.276
7.4353 19.641
7.4505 19.432
7.4657 19.446
7.4808 19.899
7.4960 19.569
7.5112 19.385
7.5264 19.666
7.5415 19.854
7.5567 19.851
7.5719 19.963
7.5871 19.903
7.6022 19.909
7.6174 20.057
7.6326 20.029
7.6478 20.071
7.6629 19.921
7.6781 20.034
7.6933 20.175
7.7085 20.282
7.7236 20.426
7.7388 20.365
7.7540 20.278
7.7692 20.391
7.7843 20.565
7.7995 20.560
7.8147 20.564
7.8299 20.346
7.8450 20.319
7.8602 20.514
7.8754 20.484
7.8905 20.882
7.9057 21.013
7.9209 20.764
7.9361 20.889
7.9512 20.678
7.9664 20.742
7.9816 20.727
7.9968 20.643
8.0119 21.041
8.0271 21.547
8.0423 21.239
8.0575 21.157
8.0726 21.124
8.0878 21.181
8.1030 21.279
8.1182 21.314
8.1333 21.185
8.1485 20.926
8.1637 20.917
8.1789 21.024
8.1940 21.154
8.2092 21.285
8.2244 21.570
8.2396 21.347
8.2547 21.205
8.2699 21.424
8.2851 21.419
8.3003 21.886
8.3154 21.374
8.3306 21.497
8.3458 21.495
8.3610 21.765
8.3761 21.450
8.3913 21.667
8.4065 21.632
8.4217 21.604
8.4368 21.706
8.4520 21.485
8.4672 21.520
8.4824 22.065
8.4975 21.961
8.5127 21.361
8.5279 21.741
8.5431 21.985
8.5582 21.801
8.5734 21.588
8.5886 22.429
8.6038 22.030
8.6189 22.096
8.6341 22.431
8.6493 22.326
8.6645 22.147
8.6796 21.869
8.6948 22.021
8.7100 21.682
8.7252 22.091
8.7403 22.376
8.7555 21.985
8.7707 22.758
8.7859 22.112
8.8010 22.286
8.8162 22.421
8.8314 22.511
8.8466 22.555
8.8617 21.771
8.8769 22.069
8.8921 22.217
8.9073 22.339
8.9224 22.344
8.9376 22.325
8.9528 22.827
8.9680 22.199
8.9831 22.333
8.9983 22.597
9.0135 22.645
9.0287 22.643
9.0438 22.373
9.0590 22.616
9.0742 22.718
9.0894 22.693
9.1045 22.656
9.1197 22.808
9.1349 22.754
9.1501 22.826
9.1652 22.796
9.1804 22.990
9.1956 22.844
9.2108 22.639
9.2259 23.019
9.2411 23.167
9.2563 22.820
9.2715 22.959
9.2866 22.876
9.3018 22.470
9.3170 22.664
9.3322 23.084
9.3473 23.034
9.3625 22.651
9.3777 22.751
9.3929 23.042
9.4080 23.124
9.4232 22.915
9.4384 23.135
9.4536 23.187
9.4687 23.430
9.4839 23.270
9.4991 23.051
9.5143 23.242
9.5294 23.024
9.5446 22.804
9.5598 22.881
9.5750 22.909
9.5901 22.976
9.6053 23.115
9.6205 23.323
9.6357 23.394
9.6508 23.396
9.6660 23.512
9.6812 23.803
9.6964 23.687
9.7115 23.539
9.7267 23.857
9.7419 24.147
9.7571 24.109
9.7722 24.008
9.7874 23.958
9.8026 23.666
9.8178 23.150
9.8329 23.153
9.8481 23.226
9.8633 23.171
9.8785 23.118
9.8936 22.936
9.9088 23.159
9.9240 23.342
9.9392 23.246
9.9543 23.222
9.9695 23.301
9.9847 22.931
9.9999 22.877
10.0150 22.746
10.0302 22.873
10.0454 23.263
10.0606 23.264
10.0757 23.169
10.0909 23.173
10.1061 23.116
10.1213 23.195
10.1364 23.022
10.1516 23.095
10.1668 23.167
10.1820 23.009
10.1971 22.902
10.2123 23.225
10.2275 23.279
10.2427 22.818
10.2578 22.867
10.2730 22.910
10.2882 22.718
10.3034 22.865
10.3185 22.746
10.3337 22.355
10.3489 22.722
10.3641 22.993
10.3792 22.188
10.3944 22.441
10.4096 22.568
10.4248 22.793
10.4399 22.860
10.4551 22.556
10.4703 22.564
10.4855 22.716
10.5006 22.865
10.5158 22.554
10.5310 22.369
10.5462 22.777
10.5613 22.814
10.5765 22.562
10.5917 22.106
10.6069 22.320
10.6220 22.380
10.6372 22.454
10.6524 22.567
10.6676 22.660
10.6827 22.610
10.6979 22.522
10.7131 22.559
10.7283 22.535
10.7434 22.186
10.7586 22.179
10.7738 22.733
10.7890 22.509
10.8041 22.147
10.8193 22.064
10.8345 21.903
10.8497 22.228
10.8648 22.408
10.8800 22.299
10.8952 22.020
10.9104 21.915
10.9255 22.068
10.9407 22.323
10.9559 21.822
10.9711 21.758
10.9862 21.840
11.0014 21.942
11.0166 22.342
11.0318 22.170
11.0469 22.294
11.0621 21.970
11.0773 21.826
11.0925 21.926
11.1076 21.964
11.1228 21.918
11.1380 21.644
11.1532 21.221
11.1683 21.479
11.1835 21.598
11.1987 21.671
11.2139 21.665
11.2290 21.634
11.2442 21.421
11.2594 21.407
11.2746 21.708
11.2897 21.565
11.3049 21.423
11.3201 21.652
11.3353 21.728
11.3504 21.416
11.3656 21.426
11.3808 21.103
11.3960 21.299
11.4111 21.097
11.4263 20.774
11.4415 20.829
11.4567 20.957
11.4718 20.939
11.4870 20.913
11.5022 21.346
11.5174 21.170
11.5325 20.959
11.5477 20.953
11.5629 21.227
11.5781 20.942
11.5932 20.917
11.6084 21.113
11.6236 20.957
11.6388 20.872
11.6539 20.721
11.6691 20.626
11.6843 20.449
11.6995 20.438
11.7146 20.618
11.7298 20.368
11.7450 20.354
11.7602 20.407
11.7753 20.304
11.7905 20.084
11.8057 20.073
11.8209 20.277
11.8360 20.067
11.8512 19.616
11.8664 19.984
11.8816 20.025
11.8967 19.790
11.9119 19.458
11.9271 19.452
11.9423 19.654
11.9574 19.253
11.9726 19.056
11.9878 18.954
12.0030 19.188
12.0181 19.205
12.0333 19.012
12.0485 18.958
12.0637 18.794
12.0788 18.969
12.0940 19.149
12.1092 18.872
12.1244 18.869
12.1395 18.470
12.1547 18.275
12.1699 18.080
12.1851 18.132
12.2002 18.186
12.2154 18.216
12.2306 18.133
12.2458 18.231
12.2609 18.171
12.2761 17.946
12.2913 17.885
12.3065 17.831
12.3216 17.658
12.3368 17.577
12.3520 17.395
12.3672 17.063
12.3823 17.111
12.3975 16.996
12.4127 16.930
12.4279 16.963
12.4430 17.027
12.4582 16.953
12.4734 16.673
12.4886 16.554
12.5037 16.562
12.5189 16.743
12.5341 16.844
12.5493 16.380
12.5644 16.064
12.5796 15.921
12.5948 15.814
12.6100 15.886
12.6251 16.065
12.6403 15.725
12.6555 15.573
12.6707 15.815
12.6858 15.858
12.7010 15.774
12.7162 15.638
12.7314 15.308
12.7465 15.412
12.7617 15.458
12.7769 15.577
12.7921 15.315
12.8072 14.720
12.8224 14.948
12.8376 15.190
12.8528 15.004
12.8679 14.802
12.8831 14.636
12.8983 14.643
12.9135 14.724
12.9286 14.670
12.9438 14.366
12.9590 14.307
12.9742 14.243
12.9893 14.281
13.0045 14.368
13.0197 14.034
13.0349 14.026
13.0500 14.026
13.0652 13.861
13.0804 13.987
13.0956 13.930
13.1107 13.772
13.1259 13.562
13.1411 13.562
13.1563 13.499
13.1714 13.280
13.1866 13.246
13.2018 13.277
13.2170 13.380
13.2321 13.297
13.2473 13.526
13.2625 13.362
13.2777 13.145
13.2928 13.349
13.3080 13.312
13.3232 13.293
13.3384 13.172
13.3535 13.120
13.3687 13.035
13.3839 13.118
13.3991 12.993
13.4142 13.011
13.4294 13.055
13.4446 12.855
13.4598 12.871
13.4749 12.814
13.4901 12.707
13.5053 12.760
13.5205 12.645
13.5356 12.471
13.5508 12.234
13.5660 12.170
13.5812 12.061
13.5963 12.128
13.6115 12.205
13.6267 12.119
13.6419 12.177
13.6570 12.168
13.6722 12.309
13.6874 12.356
13.7026 12.192
13.7177 11.926
13.7329 11.898
13.7481 12.045
13.7633 11.800
13.7784 11.829
13.7936 12.359
13.8088 12.414
13.8239 12.278
13.8391 12.262
13.8543 12.238
13.8695 12.132
13.8846 12.276
13.8998 12.502
13.9150 12.230
13.9302 12.008
13.9453 12.017
13.9605 12.009
13.9757 11.599
13.9909 11.546
14.0060 11.635
14.0212 11.604
14.0364 11.556
14.0516 11.701
14.0667 11.813
14.0819 11.415
14.0971 11.367
14.1123 11.308
14.1274 11.420
14.1426 11.339
14.1578 11.539
14.1730 11.404
14.1881 11.224
14.2033 11.514
14.2185 11.618
14.2337 11.658
14.2488 11.608
14.2640 11.562
14.2792 11.709
14.2944 11.798
14.3095 11.932
14.3247 12.159
14.3399 12.486
14.3551 12.440
14.3702 12.744
14.3854 13.001
14.4006 13.095
14.4158 13.624
14.4309 13.395
14.4461 13.074
14.4613 12.660
14.4765 12.835
14.4916 12.565
14.5068 12.197
14.5220 12.177
14.5372 11.914
14.5523 11.754
14.5675 11.326
14.5827 11.142
14.5979 11.272
14.6130 11.122
14.6282 11.199
14.6434 10.904
14.6586 10.737
14.6737 10.914
14.6889 10.842
14.7041 10.922
14.7193 10.922
14.7344 10.907
14.7496 10.577
14.7648 10.699
14.7800 10.879
14.7951 10.451
14.8103 10.603
14.8255 10.433
14.8407 10.697
14.8558 10.583
14.8710 10.586
14.8862 10.396
14.9014 10.332
14.9165 10.740
14.9317 10.835
14.9469 10.389
14.9621 10.433
14.9772 10.391
14.9924 10.147
15.0076 10.346
15.0228 10.356
15.0379 10.286
15.0531 10.600
15.0683 10.172
15.0835 10.390
15.0986 10.225
15.1138 10.154
15.1290 10.166
15.1442 9.948
15.1593 10.570
15.1745 10.263
15.1897 10.332
15.2049 10.290
15.2200 9.973
15.2352 10.239
15.2504 10.073
15.2656 10.052
15.2807 10.010
15.2959 10.159
15.3111 10.106
15.3263 10.183
15.3414 10.043
15.3566 10.283
15.3718 10.259
15.3870 10.374
15.4021 9.869
15.4173 10.273
15.4325 10.234
15.4477 10.226
15.4628 10.097
15.4780 10.413
15.4932 10.229
15.5084 9.999
15.5235 10.012
15.5387 10.308
15.5539 10.168
15.5691 9.913
15.5842 10.036
15.5994 9.777
15.6146 10.055
15.6298 9.894
15.6449 9.921
15.6601 9.854
15.6753 9.890
15.6905 9.967
15.7056 9.948
15.7208 9.759
15.7360 9.700
15.7512 9.639
15.7663 9.719
15.7815 9.494
15.7967 10.035
15.8119 9.630
15.8270 9.610
15.8422 9.676
15.8574 9.766
15.8726 9.757
15.8877 9.390
15.9029 9.539
15.9181 9.468
15.9333 9.808
15.9484 9.739
15.9636 9.838
15.9788 9.628
15.9940 9.464
16.0091 9.434
16.0243 9.232
16.0395 9.277
16.0547 9.338
16.0698 9.579
16.0850 9.769
16.1002 9.746
16.1154 9.733
16.1305 9.673
16.1457 9.500
16.1609 9.408
16.1761 9.347
16.1912 9.530
16.2064 9.593
16.2216 9.573
16.2368 9.814
16.2519 9.792
16.2671 9.567
16.2823 9.440
16.2975 9.572
16.3126 9.900
16.3278 9.953
16.3430 9.900
16.3582 9.844
16.3733 10.005
16.3885 10.044
16.4037 9.962
16.4189 9.698
16.4340 9.811
16.4492 9.524
16.4644 9.618
16.4796 9.659
16.4947 9.746
16.5099 9.907
16.5251 9.702
16.5403 9.576
16.5554 9.708
16.5706 9.788
16.5858 9.576
16.6010 9.788
16.6161 9.874
16.6313 9.587
16.6465 9.575
16.6617 9.862
16.6768 9.949
16.6920 9.835
16.7072 9.928
16.7224 9.991
16.7375 10.032
16.7527 9.773
16.7679 9.615
16.7831 9.780
16.7982 9.741
16.8134 9.870
16.8286 10.004
16.8438 10.025
16.8589 9.962
16.8741 10.006
16.8893 9.765
16.9045 9.738
16.9196 9.718
16.9348 9.472
16.9500 9.474
16.9652 9.743
16.9803 9.826
16.9955 9.835
17.0107 9.903
17.0259 9.908
17.0410 9.977
17.0562 9.894
17.0714 9.854
17.0866 9.995
17.1017 10.249
17.1169 10.648
17.1321 10.940
17.1473 11.080
17.1624 11.455
17.1776 12.149
17.1928 12.925
17.2080 13.676
17.2231 14.839
17.2383 16.256
17.2535 17.548
17.2687 18.404
17.2838 18.587
17.2990 17.837
17.3142 16.777
17.3294 16.240
17.3445 15.907
17.3597 15.669
17.3749 15.561
17.3901 15.156
17.4052 14.165
17.4204 13.153
17.4356 12.205
17.4508 11.617
17.4659 11.674
17.4811 11.436
17.4963 11.165
17.5115 11.217
17.5266 11.046
17.5418 10.987
17.5570 10.784
17.5722 10.630
17.5873 10.951
17.6025 11.131
17.6177 11.023
17.6329 10.967
17.6480 11.101
17.6632 11.090
17.6784 11.438
17.6936 12.026
17.7087 11.945
17.7239 11.552
17.7391 11.528
17.7543 11.394
17.7694 11.294
17.7846 11.307
17.7998 11.272
17.8150 11.197
17.8301 11.188
17.8453 10.873
17.8605 10.641
17.8757 10.656
17.8908 10.401
17.9060 10.576
17.9212 10.519
17.9364 10.237
17.9515 10.189
17.9667 10.428
17.9819 10.465
17.9971 10.244
18.0122 10.182
18.0274 10.102
18.0426 10.088
18.0578 10.097
18.0729 10.182
18.0881 10.236
18.1033 9.975
18.1185 9.991
18.1336 10.091
18.1488 10.127
18.1640 9.985
18.1792 10.122
18.1943 10.314
18.2095 10.154
18.2247 9.794
18.2399 9.720
18.2550 9.853
18.2702 9.884
18.2854 9.917
18.3006 9.963
18.3157 9.918
18.3309 9.750
18.3461 9.709
18.3613 9.700
18.3764 9.894
18.3916 9.676
18.4068 9.789
18.4220 9.932
18.4371 9.862
18.4523 9.973
18.4675 9.857
18.4827 9.746
18.4978 9.835
18.5130 9.837
18.5282 9.956
18.5434 10.004
18.5585 9.748
18.5737 9.816
18.5889 9.870
18.6041 9.776
18.6192 9.544
18.6344 9.663
18.6496 9.963
18.6648 9.779
18.6799 9.573
18.6951 9.633
18.7103 9.856
18.7255 10.027
18.7406 9.933
18.7558 9.881
18.7710 9.730
18.7862 9.851
18.8013 9.753
18.8165 9.599
18.8317 9.766
18.8469 9.870
18.8620 9.743
18.8772 9.887
18.8924 9.815
18.9076 9.967
18.9227 9.879
18.9379 9.854
18.9531 9.783
18.9683 9.913
18.9834 10.094
18.9986 9.989
19.0138 9.892
19.0290 9.974
19.0441 9.887
19.0593 10.038
19.0745 10.317
19.0897 10.190
19.1048 10.204
19.1200 10.072
19.1352 10.152
19.1504 10.324
19.1655 10.406
19.1807 10.492
19.1959 10.670
19.2111 10.528
19.2262 10.738
19.2414 10.964
19.2566 10.779
19.2718 10.498
19.2869 10.677
19.3021 10.937
19.3173 10.902
19.3325 10.991
19.3476 11.047
19.3628 10.982
19.3780 11.082
19.3932 11.159
19.4083 11.281
19.4235 11.294
19.4387 11.102
19.4539 11.217
19.4690 11.448
19.4842 11.388
19.4994 11.388
19.5146 11.398
19.5297 11.564
19.5449 11.767
19.5601 11.577
19.5753 11.457
19.5904 11.538
19.6056 11.475
19.6208 11.464
19.6360 11.653
19.6511 11.763
19.6663 11.647
19.6815 11.513
19.6967 11.581
19.7118 11.478
19.7270 11.308
19.7422 11.568
19.7574 11.793
19.7725 11.874
19.7877 11.823
19.8029 11.736
19.8180 11.776
19.8332 11.840
19.8484 11.971
19.8636 12.197
19.8787 12.467
19.8939 12.589
19.9091 12.958
19.9243 13.574
19.9394 13.797
19.9546 13.824
19.9698 14.096
19.9850 14.316
20.0001 14.263
20.0153 14.177
20.0305 13.897
20.0457 13.664
20.0608 13.520
20.0760 13.597
20.0912 13.595
20.1064 13.547
20.1215 13.411
20.1367 13.055
20.1519 13.005
20.1671 12.866
20.1822 12.668
20.1974 12.631
20.2126 12.497
20.2278 12.651
20.2429 12.551
20.2581 12.129
20.2733 11.953
20.2885 11.640
20.3036 11.648
20.3188 11.838
20.3340 11.991
20.3492 11.906
20.3643 11.667
20.3795 11.463
20.3947 11.601
20.4099 11.504
20.4250 11.537
20.4402 11.635
20.4554 11.740
20.4706 11.926
20.4857 12.002
20.5009 11.847
20.5161 11.741
20.5313 11.379
20.5464 11.353
20.5616 11.716
20.5768 11.686
20.5920 11.463
20.6071 11.442
20.6223 11.230
20.6375 11.225
20.6527 10.962
20.6678 10.570
20.6830 10.489
20.6982 10.843
20.7134 10.713
20.7285 10.323
20.7437 10.494
20.7589 10.548
20.7741 10.626
20.7892 10.463
20.8044 10.390
20.8196 10.283
20.8348 10.286
20.8499 10.342
20.8651 10.306
20.8803 10.011
20.8955 10.339
20.9106 10.126
20.9258 9.959
20.9410 10.192
20.9562 10.069
20.9713 9.942
20.9865 9.903
21.0017 10.012
21.0169 9.945
21.0320 9.763
21.0472 9.710
21.0624 9.728
21.0776 9.968
21.0927 9.737
21.1079 9.583
21.1231 9.912
21.1383 9.700
21.1534 9.554
21.1686 9.765
21.1838 9.732
21.1990 10.014
21.2141 9.383
21.2293 9.632
21.2445 9.876
21.2597 9.937
21.2748 9.585
21.2900 9.457
21.3052 9.668
21.3204 9.715
21.3355 9.333
21.3507 9.567
21.3659 9.528
21.3811 9.523
21.3962 9.606
21.4114 9.162
21.4266 9.112
21.4418 9.288
21.4569 9.321
21.4721 9.362
21.4873 9.335
21.5025 9.418
21.5176 9.214
21.5328 8.990
21.5480 9.243
21.5632 9.234
21.5783 9.468
21.5935 9.348
21.6087 9.400
21.6239 9.205
21.6390 9.285
21.6542 9.452
21.6694 8.917
21.6846 9.019
21.6997 9.199
21.7149 9.144
21.7301 8.785
21.7453 8.992
21.7604 9.038
21.7756 8.850
21.7908 8.908
21.8060 9.090
21.8211 9.149
21.8363 9.106
21.8515 9.059
21.8667 9.124
21.8818 9.160
21.8970 9.266
21.9122 9.125
21.9274 9.166
21.9425 8.974
21.9577 8.815
21.9729 8.692
21.9881 8.853
22.0032 8.847
22.0184 8.715
22.0336 8.801
22.0488 8.797
22.0639 8.817
22.0791 8.824
22.0943 8.701
22.1095 8.535
22.1246 8.723
22.1398 8.651
22.1550 8.544
22.1702 8.731
22.1853 8.590
22.2005 8.307
22.2157 8.317
22.2309 8.465
22.2460 8.622
22.2612 8.609
22.2764 8.458
22.2916 8.418
22.3067 8.360
22.3219 8.408
22.3371 8.630
22.3523 8.542
22.3674 8.535
22.3826 8.476
22.3978 8.565
22.4130 8.392
22.4281 8.281
22.4433 8.534
22.4585 8.427
22.4737 8.328
22.4888 8.368
22.5040 8.320
22.5192 8.418
22.5344 8.700
22.5495 8.414
22.5647 8.267
22.5799 8.234
22.5951 8.371
22.6102 8.505
22.6254 8.402
22.6406 8.255
22.6558 8.366
22.6709 8.174
22.6861 8.225
22.7013 7.978
22.7165 7.834
22.7316 6.329
