'Id: "" Comment: "" Operator: "Lab Manager" Anode: "Mo" Scantype: "Still (Eiger2R_500K (1D mode))" TimePerStep: "300" X: "11.8" Y: "9.4" Z: "11.284" 
7.2532 18.450
7.2684 18.938
7.2836 18.737
7.2987 18.882
7.3139 18.900
7.3291 19.294
7.3443 19.637
7.3594 19.120
7.3746 19.189
7.3898 19.255
7.4050 19.171
7.4201 19.469
7.4353 19.728
7.4505 19.817
7.4657 19.841
7.4808 19.793
7.4960 19.492
7.5112 19.601
7.5264 19.992
7.5415 19.991
7.5567 19.891
7.5719 19.681
7.5871 20.027
7.6022 20.014
7.6174 20.162
7.6326 20.010
7.6478 19.902
7.6629 19.871
7.6781 19.792
7.6933 20.019
7.7085 19.870
7.7236 19.992
7.7388 20.384
7.7540 20.560
7.7692 20.434
7.7843 20.368
7.7995 20.532
7.8147 20.421
7.8299 20.439
7.8450 20.571
7.8602 20.309
7.8754 20.455
7.8905 20.946
7.9057 20.925
7.9209 20.957
7.9361 20.953
7.9512 20.825
7.9664 21.045
7.9816 20.960
7.9968 20.698
8.0119 20.687
8.0271 20.447
8.0423 20.818
8.0575 20.843
8.0726 20.677
8.0878 20.742
8.1030 20.686
8.1182 20.984
8.1333 21.177
8.1485 21.230
8.1637 21.395
8.1789 21.150
8.1940 21.161
8.2092 21.163
8.2244 21.121
8.2396 21.134
8.2547 21.133
8.2699 21.730
8.2851 21.622
8.3003 21.525
8.3154 21.962
8.3306 21.658
8.3458 21.696
8.3610 21.825
8.3761 21.627
8.3913 21.513
8.4065 21.565
8.4217 21.867
8.4368 21.677
8.4520 22.069
8.4672 21.644
8.4824 21.551
8.4975 22.141
8.5127 21.595
8.5279 22.149
8.5431 22.129
8.5582 21.959
8.5734 22.246
8.5886 21.557
8.6038 22.012
8.6189 22.133
8.6341 22.378
8.6493 22.404
8.6645 21.721
8.6796 22.302
8.6948 22.101
8.7100 21.514
8.7252 22.447
8.7403 21.718
8.7555 22.338
8.7707 22.387
8.7859 22.439
8.8010 22.487
8.8162 22.143
8.8314 21.994
8.8466 22.331
8.8617 22.136
8.8769 22.152
8.8921 22.013
8.9073 22.745
8.9224 22.823
8.9376 22.641
8.9528 22.391
8.9680 22.356
8.9831 22.089
8.9983 22.455
9.0135 22.662
9.0287 22.790
9.0438 22.823
9.0590 23.234
9.0742 22.955
9.0894 22.622
9.1045 22.490
9.1197 22.471
9.1349 22.794
9.1501 22.798
9.1652 22.730
9.1804 22.602
9.1956 22.516
9.2108 22.605
9.2259 22.590
9.2411 22.413
9.2563 22.626
9.2715 22.696
9.2866 22.577
9.3018 23.193
9.3170 22.918
9.3322 22.635
9.3473 22.593
9.3625 22.678
9.3777 22.926
9.3929 22.851
9.4080 22.351
9.4232 22.492
9.4384 23.076
9.4536 22.904
9.4687 22.849
9.4839 22.859
9.4991 23.044
9.5143 23.311
9.5294 23.075
9.5446 23.215
9.5598 23.377
9.5750 23.136
9.5901 22.947
9.6053 23.042
9.6205 23.371
9.6357 23.262
9.6508 23.270
9.6660 23.489
9.6812 23.297
9.6964 23.344
9.7115 23.731
9.7267 23.788
9.7419 23.488
9.7571 23.822
9.7722 23.995
9.7874 23.760
9.8026 23.488
9.8178 23.096
9.8329 23.249
9.8481 23.182
9.8633 22.977
9.8785 23.145
9.8936 23.237
9.9088 23.350
9.9240 23.113
9.9392 22.978
9.9543 23.205
9.9695 23.254
9.9847 23.262
9.9999 23.248
10.0150 23.277
10.0302 23.370
10.0454 23.355
10.0606 23.072
10.0757 23.065
10.0909 23.161
10.1061 23.499
10.1213 23.453
10.1364 23.314
10.1516 23.360
10.1668 23.287
10.1820 23.048
10.1971 22.968
10.2123 23.236
10.2275 23.047
10.2427 22.794
10.2578 22.718
10.2730 22.981
10.2882 22.769
10.3034 22.592
10.3185 22.451
10.3337 22.330
10.3489 22.606
10.3641 22.692
10.3792 22.459
10.3944 22.539
10.4096 22.449
10.4248 22.408
10.4399 22.300
10.4551 22.588
10.4703 22.720
10.4855 22.585
10.5006 22.763
10.5158 22.479
10.5310 22.383
10.5462 22.760
10.5613 22.846
10.5765 22.455
10.5917 22.374
10.6069 22.947
10.6220 22.903
10.6372 22.296
10.6524 22.392
10.6676 22.594
10.6827 22.606
10.6979 22.202
10.7131 22.251
10.7283 22.252
10.7434 22.310
10.7586 22.194
10.7738 22.073
10.7890 22.296
10.8041 22.388
10.8193 22.374
10.8345 22.268
10.8497 22.084
10.8648 22.283
10.8800 22.042
10.8952 22.233
10.9104 22.389
10.9255 21.936
10.9407 21.762
10.9559 22.007
10.9711 21.922
10.9862 21.899
11.0014 21.972
11.0166 21.979
11.0318 22.161
11.0469 21.813
11.0621 21.803
11.0773 22.128
11.0925 22.045
11.1076 21.960
11.1228 21.670
11.1380 21.554
11.1532 21.969
11.1683 21.985
11.1835 21.762
11.1987 21.706
11.2139 21.529
11.2290 21.881
11.2442 21.813
11.2594 21.534
11.2746 21.633
11.2897 21.515
11.3049 21.336
11.3201 21.586
11.3353 21.402
11.3504 21.691
11.3656 21.810
11.3808 21.286
11.3960 21.531
11.4111 21.235
11.4263 20.875
11.4415 21.240
11.4567 21.323
11.4718 21.442
11.4870 21.271
11.5022 21.045
11.5174 20.957
11.5325 20.769
11.5477 21.121
11.5629 20.901
11.5781 20.887
11.5932 20.565
11.6084 20.799
11.6236 20.498
11.6388 20.493
11.6539 20.551
11.6691 20.599
11.6843 20.433
11.6995 20.441
11.7146 20.486
11.7298 20.263
11.7450 20.222
11.7602 20.245
11.7753 20.180
11.7905 19.984
11.8057 20.035
11.8209 19.726
11.8360 19.796
11.8512 19.804
11.8664 19.550
11.8816 19.371
11.8967 19.244
11.9119 19.615
11.9271 19.937
11.9423 19.691
11.9574 19.359
11.9726 19.060
11.9878 18.962
12.0030 19.078
12.0181 19.067
12.0333 19.227
12.0485 19.043
12.0637 18.567
12.0788 18.849
12.0940 18.703
12.1092 18.680
12.1244 18.646
12.1395 18.565
12.1547 18.783
12.1699 18.637
12.1851 18.347
12.2002 17.972
12.2154 17.960
12.2306 18.050
12.2458 17.795
12.2609 17.808
12.2761 17.944
12.2913 17.595
12.3065 17.516
12.3216 17.696
12.3368 17.493
12.3520 17.349
12.3672 17.149
12.3823 17.015
12.3975 17.271
12.4127 16.787
12.4279 16.707
12.4430 16.554
12.4582 16.662
12.4734 16.837
12.4886 16.926
12.5037 16.796
12.5189 16.635
12.5341 16.737
12.5493 16.599
12.5644 16.414
12.5796 16.173
12.5948 16.022
12.6100 15.756
12.6251 15.644
12.6403 15.894
12.6555 15.911
12.6707 15.962
12.6858 15.949
12.7010 15.958
12.7162 15.721
12.7314 15.211
12.7465 15.104
12.7617 15.291
12.7769 15.455
12.7921 15.295
12.8072 14.932
12.8224 14.803
12.8376 14.884
12.8528 14.836
12.8679 14.633
12.8831 14.558
12.8983 14.623
12.9135 14.612
12.9286 14.473
12.9438 14.537
12.9590 14.592
12.9742 14.435
12.9893 14.367
13.0045 14.217
13.0197 14.368
13.0349 14.293
13.0500 14.124
13.0652 14.102
13.0804 14.179
13.0956 13.902
13.1107 13.606
13.1259 13.768
13.1411 13.500
13.1563 13.378
13.1714 13.557
13.1866 13.354
13.2018 13.459
13.2170 13.514
13.2321 13.237
13.2473 13.265
13.2625 13.326
13.2777 13.443
13.2928 13.262
13.3080 13.121
13.3232 13.126
13.3384 13.108
13.3535 13.121
13.3687 12.937
13.3839 12.860
13.3991 13.128
13.4142 13.133
13.4294 12.887
13.4446 13.004
13.4598 13.064
13.4749 12.920
13.4901 12.791
13.5053 12.680
13.5205 12.581
13.5356 12.358
13.5508 12.324
13.5660 12.205
13.5812 11.918
13.5963 11.944
13.6115 12.231
13.6267 12.333
13.6419 12.241
13.6570 12.227
13.6722 12.165
13.6874 12.048
13.7026 12.042
13.7177 12.058
13.7329 12.244
13.7481 12.136
13.7633 11.897
13.7784 12.071
13.7936 12.187
13.8088 12.163
13.8239 12.225
13.8391 12.418
13.8543 12.393
13.8695 12.386
13.8846 12.345
13.8998 12.222
13.9150 12.147
13.9302 11.900
13.9453 11.864
13.9605 11.815
13.9757 11.700
13.9909 11.653
14.0060 11.840
14.0212 11.802
14.0364 11.865
14.0516 11.808
14.0667 11.736
14.0819 11.456
14.0971 11.294
14.1123 11.448
14.1274 11.669
14.1426 11.676
14.1578 11.583
14.1730 11.628
14.1881 11.766
14.2033 11.731
14.2185 12.039
14.2337 11.864
14.2488 11.957
14.2640 11.814
14.2792 11.801
14.2944 11.767
14.3095 11.897
14.3247 12.112
14.3399 12.497
14.3551 12.140
14.3702 12.625
14.3854 13.130
14.4006 13.091
14.4158 13.209
14.4309 12.791
14.4461 12.337
14.4613 12.578
14.4765 12.400
14.4916 11.902
14.5068 12.056
14.5220 11.755
14.5372 11.500
14.5523 11.525
14.5675 11.569
14.5827 11.134
14.5979 10.986
14.6130 10.685
14.6282 10.947
14.6434 11.051
14.6586 11.050
14.6737 10.487
14.6889 10.713
14.7041 10.887
14.7193 10.929
14.7344 10.913
14.7496 10.572
14.7648 10.801
14.7800 10.613
14.7951 10.446
14.8103 10.372
14.8255 10.519
14.8407 10.614
14.8558 10.198
14.8710 10.163
14.8862 10.446
14.9014 10.809
14.9165 10.964
14.9317 10.994
14.9469 10.636
14.9621 10.496
14.9772 10.036
14.9924 10.203
15.0076 10.198
15.0228 10.124
15.0379 10.398
15.0531 10.185
15.0683 10.369
15.0835 10.315
15.0986 10.792
15.1138 10.010
15.1290 10.117
15.1442 10.643
15.1593 10.475
15.1745 9.858
15.1897 10.365
15.2049 10.112
15.2200 9.910
15.2352 10.246
15.2504 10.315
15.2656 10.199
15.2807 9.960
15.2959 9.678
15.3111 10.007
15.3263 10.154
15.3414 10.362
15.3566 10.232
15.3718 9.811
15.3870 10.075
15.4021 10.012
15.4173 10.193
15.4325 10.634
15.4477 10.608
15.4628 10.108
15.4780 10.006
15.4932 10.243
15.5084 9.810
15.5235 9.783
15.5387 10.141
15.5539 9.852
15.5691 10.036
15.5842 10.039
15.5994 9.751
15.6146 9.829
15.6298 9.726
15.6449 9.962
15.6601 9.899
15.6753 9.766
15.6905 9.686
15.7056 9.667
15.7208 9.905
15.7360 9.830
15.7512 9.579
15.7663 9.824
15.7815 9.821
15.7967 9.625
15.8119 9.694
15.8270 9.855
15.8422 9.926
15.8574 9.694
15.8726 9.635
15.8877 9.735
15.9029 9.682
15.9181 9.621
15.9333 9.675
15.9484 9.583
15.9636 9.395
15.9788 9.450
15.9940 9.797
16.0091 9.692
16.0243 9.574
16.0395 9.476
16.0547 9.614
16.0698 9.322
16.0850 9.372
16.1002 9.468
16.1154 9.595
16.1305 9.680
16.1457 9.584
16.1609 9.547
16.1761 9.496
16.1912 9.634
16.2064 9.390
16.2216 9.612
16.2368 9.642
16.2519 9.692
16.2671 9.784
16.2823 9.857
16.2975 9.873
16.3126 9.883
16.3278 9.955
16.3430 9.796
16.3582 9.740
16.3733 9.652
16.3885 9.794
16.4037 9.983
16.4189 9.805
16.4340 9.666
16.4492 9.866
16.4644 9.741
16.4796 9.565
16.4947 9.598
16.5099 9.764
16.5251 9.662
16.5403 9.718
16.5554 9.397
16.5706 9.533
16.5858 9.677
16.6010 9.713
16.6161 9.604
16.6313 9.645
16.6465 9.881
16.6617 9.868
16.6768 9.902
16.6920 9.702
16.7072 9.755
16.7224 9.856
16.7375 10.030
16.7527 10.181
16.7679 10.072
16.7831 9.719
16.7982 9.705
16.8134 9.892
16.8286 9.925
16.8438 9.675
16.8589 9.559
16.8741 9.627
16.8893 9.726
16.9045 9.729
16.9196 9.650
16.9348 9.513
16.9500 9.706
16.9652 9.769
16.9803 9.749
16.9955 9.756
17.0107 9.646
17.0259 9.871
17.0410 9.931
17.0562 10.062
17.0714 10.246
17.0866 10.172
17.1017 10.361
17.1169 10.554
17.1321 10.752
17.1473 11.241
17.1624 11.763
17.1776 12.219
17.1928 12.777
17.2080 13.829
17.2231 15.153
17.2383 16.449
17.2535 17.553
17.2687 18.331
17.2838 18.417
17.2990 18.034
17.3142 17.195
17.3294 16.416
17.3445 16.232
17.3597 16.265
17.3749 16.013
17.3901 15.212
17.4052 14.162
17.4204 13.339
17.4356 12.601
17.4508 11.970
17.4659 11.674
17.4811 11.767
17.4963 11.952
17.5115 11.427
17.5266 11.104
17.5418 11.092
17.5570 11.043
17.5722 11.140
17.5873 11.280
17.6025 11.244
17.6177 10.878
17.6329 10.979
17.6480 11.359
17.6632 11.490
17.6784 11.627
17.6936 11.493
17.7087 11.462
17.7239 11.614
17.7391 11.342
17.7543 11.018
17.7694 11.032
17.7846 10.958
17.7998 10.785
17.8150 10.792
17.8301 10.501
17.8453 10.271
17.8605 10.257
17.8757 10.161
17.8908 10.047
17.9060 10.080
17.9212 10.018
17.9364 9.966
17.9515 10.088
17.9667 10.125
17.9819 10.057
17.9971 10.213
18.0122 10.333
18.0274 10.091
18.0426 10.178
18.0578 10.114
18.0729 9.892
18.0881 9.720
18.1033 9.852
18.1185 9.940
18.1336 9.926
18.1488 9.952
18.1640 9.829
18.1792 9.724
18.1943 9.917
18.2095 9.981
18.2247 9.872
18.2399 9.613
18.2550 9.668
18.2702 9.817
18.2854 9.867
18.3006 9.851
18.3157 9.808
18.3309 9.939
18.3461 9.902
18.3613 9.910
18.3764 9.863
18.3916 9.887
18.4068 9.831
18.4220 9.629
18.4371 9.760
18.4523 9.782
18.4675 9.722
18.4827 9.714
18.4978 9.644
18.5130 9.641
18.5282 9.715
18.5434 9.618
18.5585 9.374
18.5737 9.779
18.5889 9.922
18.6041 9.824
18.6192 9.924
18.6344 9.888
18.6496 9.900
18.6648 9.972
18.6799 9.843
18.6951 9.683
18.7103 9.523
18.7255 9.610
18.7406 9.633
18.7558 9.619
18.7710 9.754
18.7862 9.882
18.8013 9.771
18.8165 9.659
18.8317 9.873
18.8469 10.096
18.8620 9.976
18.8772 9.901
18.8924 9.990
18.9076 10.078
18.9227 9.902
18.9379 9.715
18.9531 9.920
18.9683 10.020
18.9834 9.981
18.9986 10.167
19.0138 10.189
19.0290 10.174
19.0441 10.043
19.0593 10.031
19.0745 10.145
19.0897 10.259
19.1048 10.286
19.1200 10.438
19.1352 10.467
19.1504 10.436
19.1655 10.560
19.1807 10.581
19.1959 10.695
19.2111 10.625
19.2262 10.666
19.2414 10.589
19.2566 10.571
19.2718 10.795
19.2869 10.888
19.3021 10.999
19.3173 11.072
19.3325 11.108
19.3476 11.092
19.3628 10.835
19.3780 10.999
19.3932 11.348
19.4083 11.060
19.4235 10.965
19.4387 11.077
19.4539 11.216
19.4690 11.489
19.4842 11.350
19.4994 11.174
19.5146 11.219
19.5297 11.449
19.5449 11.575
19.5601 11.647
19.5753 11.705
19.5904 11.662
19.6056 11.601
19.6208 11.420
19.6360 11.351
19.6511 11.601
19.6663 11.922
19.6815 11.744
19.6967 11.791
19.7118 11.856
19.7270 11.711
19.7422 11.934
19.7574 11.815
19.7725 11.708
19.7877 11.790
19.8029 12.010
19.8180 11.921
19.8332 11.741
19.8484 11.917
19.8636 12.245
19.8787 12.305
19.8939 12.601
19.9091 12.831
19.9243 13.311
19.9394 13.900
19.9546 14.008
19.9698 14.197
19.9850 14.516
20.0001 14.420
20.0153 14.106
20.0305 13.870
20.0457 13.580
20.0608 13.458
20.0760 13.468
20.0912 13.500
20.1064 13.776
20.1215 13.731
20.1367 13.455
20.1519 13.129
20.1671 12.826
20.1822 12.820
20.1974 12.751
20.2126 12.835
20.2278 13.079
20.2429 12.776
20.2581 12.245
20.2733 12.044
20.2885 12.077
20.3036 12.180
20.3188 11.878
20.3340 11.913
20.3492 11.917
20.3643 11.736
20.3795 11.882
20.3947 11.949
20.4099 11.830
20.4250 11.748
20.4402 11.842
20.4554 11.914
20.4706 11.891
20.4857 11.502
20.5009 11.398
20.5161 11.558
20.5313 11.204
20.5464 11.001
20.5616 11.178
20.5768 11.173
20.5920 11.127
20.6071 11.227
20.6223 10.952
20.6375 10.716
20.6527 10.610
20.6678 10.845
20.6830 10.555
20.6982 10.415
20.7134 10.466
20.7285 10.348
20.7437 10.355
20.7589 10.488
20.7741 10.453
20.7892 10.372
20.8044 10.534
20.8196 10.423
20.8348 10.284
20.8499 10.323
20.8651 10.461
20.8803 10.374
20.8955 9.725
20.9106 9.978
20.9258 10.483
20.9410 10.054
20.9562 9.961
20.9713 9.999
20.9865 9.787
21.0017 10.024
21.0169 9.964
21.0320 9.855
21.0472 9.965
21.0624 10.007
21.0776 9.981
21.0927 10.118
21.1079 9.887
21.1231 10.107
21.1383 9.904
21.1534 9.836
21.1686 9.616
21.1838 9.725
21.1990 9.772
21.2141 9.666
21.2293 9.989
21.2445 9.777
21.2597 9.539
21.2748 9.591
21.2900 9.486
21.3052 9.757
21.3204 9.685
21.3355 9.594
21.3507 9.452
21.3659 9.012
21.3811 9.234
21.3962 9.502
21.4114 9.558
21.4266 9.284
21.4418 9.616
21.4569 9.549
21.4721 9.495
21.4873 9.478
21.5025 9.606
21.5176 9.240
21.5328 9.121
21.5480 9.077
21.5632 9.514
21.5783 9.315
21.5935 9.154
21.6087 9.241
21.6239 9.212
21.6390 9.169
21.6542 9.172
21.6694 9.224
21.6846 8.930
21.6997 9.020
21.7149 9.257
21.7301 9.237
21.7453 9.250
21.7604 9.172
21.7756 8.993
21.7908 9.048
21.8060 9.137
21.8211 9.012
21.8363 8.936
21.8515 8.997
21.8667 8.781
21.8818 8.820
21.8970 8.874
21.9122 9.019
21.9274 9.079
21.9425 9.023
21.9577 8.913
21.9729 8.927
21.9881 8.891
22.0032 8.612
22.0184 8.706
22.0336 8.817
22.0488 8.796
22.0639 8.844
22.0791 8.894
22.0943 8.840
22.1095 8.827
22.1246 8.796
22.1398 8.602
22.1550 8.506
22.1702 8.800
22.1853 8.764
22.2005 8.744
22.2157 8.706
22.2309 8.623
22.2460 8.492
22.2612 8.322
22.2764 8.451
22.2916 8.560
22.3067 8.616
22.3219 8.501
22.3371 8.483
22.3523 8.525
22.3674 8.347
22.3826 8.306
22.3978 8.139
22.4130 8.377
22.4281 8.370
22.4433 8.262
22.4585 8.680
22.4737 8.677
22.4888 8.296
22.5040 8.419
22.5192 8.306
22.5344 8.343
22.5495 8.408
22.5647 8.130
22.5799 8.343
22.5951 8.510
22.6102 8.208
22.6254 8.597
22.6406 7.865
22.6558 8.042
22.6709 8.391
22.6861 8.402
22.7013 8.061
22.7165 7.875
22.7316 6.214
