'Id: "" Comment: "" Operator: "Lab Manager" Anode: "Mo" Scantype: "Still (Eiger2R_500K (1D mode))" TimePerStep: "300" X: "11.8" Y: "9.4" Z: "11.284" 
7.2532 18.799
7.2684 18.712
7.2836 19.075
7.2987 18.670
7.3139 18.818
7.3291 19.020
7.3443 19.182
7.3594 19.287
7.3746 19.175
7.3898 19.325
7.4050 19.256
7.4201 19.418
7.4353 19.526
7.4505 19.435
7.4657 19.690
7.4808 19.419
7.4960 19.502
7.5112 19.855
7.5264 20.197
7.5415 19.988
7.5567 19.910
7.5719 19.706
7.5871 19.707
7.6022 19.723
7.6174 19.815
7.6326 19.922
7.6478 19.908
7.6629 20.178
7.6781 20.017
7.6933 20.115
7.7085 20.106
7.7236 20.175
7.7388 20.178
7.7540 20.435
7.7692 20.443
7.7843 20.402
7.7995 20.334
7.8147 20.673
7.8299 20.795
7.8450 20.945
7.8602 20.843
7.8754 20.748
7.8905 20.710
7.9057 20.482
7.9209 20.704
7.9361 20.974
7.9512 20.823
7.9664 20.702
7.9816 20.933
7.9968 20.918
8.0119 21.194
8.0271 20.910
8.0423 21.017
8.0575 21.414
8.0726 21.350
8.0878 21.306
8.1030 20.912
8.1182 21.032
8.1333 21.274
8.1485 21.513
8.1637 21.364
8.1789 20.781
8.1940 21.233
8.2092 20.924
8.2244 20.868
8.2396 21.050
8.2547 21.369
8.2699 21.788
8.2851 21.778
8.3003 22.014
8.3154 21.491
8.3306 21.313
8.3458 21.679
8.3610 21.403
8.3761 21.933
8.3913 21.585
8.4065 21.845
8.4217 21.773
8.4368 22.107
8.4520 22.258
8.4672 21.286
8.4824 22.136
8.4975 22.437
8.5127 22.253
8.5279 21.686
8.5431 21.940
8.5582 22.225
8.5734 21.992
8.5886 21.891
8.6038 22.065
8.6189 21.652
8.6341 22.248
8.6493 22.154
8.6645 22.372
8.6796 22.808
8.6948 22.217
8.7100 22.258
8.7252 22.093
8.7403 22.370
8.7555 22.671
8.7707 22.188
8.7859 22.337
8.8010 22.417
8.8162 22.722
8.8314 22.327
8.8466 22.392
8.8617 21.836
8.8769 22.559
8.8921 22.812
8.9073 22.362
8.9224 22.453
8.9376 22.852
8.9528 22.780
8.9680 22.751
8.9831 22.579
8.9983 22.390
9.0135 22.576
9.0287 22.528
9.0438 22.528
9.0590 22.388
9.0742 23.075
9.0894 22.900
9.1045 22.966
9.1197 22.615
9.1349 22.541
9.1501 22.947
9.1652 23.029
9.1804 22.788
9.1956 22.594
9.2108 23.026
9.2259 23.091
9.2411 23.094
9.2563 23.102
9.2715 23.019
9.2866 22.733
9.3018 22.970
9.3170 23.089
9.3322 22.960
9.3473 22.933
9.3625 22.786
9.3777 23.098
9.3929 22.766
9.4080 22.929
9.4232 23.339
9.4384 23.244
9.4536 22.909
9.4687 23.212
9.4839 23.516
9.4991 23.287
9.5143 23.230
9.5294 23.081
9.5446 23.046
9.5598 23.170
9.5750 23.258
9.5901 23.274
9.6053 23.353
9.6205 23.379
9.6357 23.434
9.6508 23.507
9.6660 23.502
9.6812 23.966
9.6964 23.986
9.7115 23.847
9.7267 23.999
9.7419 23.874
9.7571 23.920
9.7722 23.947
9.7874 23.917
9.8026 23.744
9.8178 23.673
9.8329 23.654
9.8481 23.353
9.8633 23.110
9.8785 23.440
9.8936 23.438
9.9088 23.082
9.9240 23.177
9.9392 23.097
9.9543 23.216
9.9695 23.555
9.9847 23.703
9.9999 23.655
10.0150 23.198
10.0302 23.275
10.0454 23.424
10.0606 23.263
10.0757 23.257
10.0909 23.132
10.1061 22.954
10.1213 23.302
10.1364 23.544
10.1516 23.595
10.1668 23.725
10.1820 23.206
10.1971 22.952
10.2123 23.363
10.2275 23.358
10.2427 23.160
10.2578 23.112
10.2730 22.750
10.2882 22.657
10.3034 22.950
10.3185 23.106
10.3337 23.323
10.3489 22.802
10.3641 22.616
10.3792 22.853
10.3944 22.852
10.4096 22.710
10.4248 22.560
10.4399 22.574
10.4551 23.143
10.4703 22.779
10.4855 22.384
10.5006 22.500
10.5158 22.662
10.5310 22.607
10.5462 22.363
10.5613 22.339
10.5765 22.560
10.5917 22.260
10.6069 22.607
10.6220 22.925
10.6372 22.347
10.6524 22.177
10.6676 22.332
10.6827 22.569
10.6979 22.429
10.7131 22.300
10.7283 22.598
10.7434 22.756
10.7586 22.462
10.7738 22.461
10.7890 22.237
10.8041 22.113
10.8193 22.329
10.8345 22.326
10.8497 22.248
10.8648 22.051
10.8800 21.933
10.8952 22.112
10.9104 22.495
10.9255 22.354
10.9407 22.340
10.9559 21.757
10.9711 21.703
10.9862 21.627
11.0014 21.519
11.0166 22.197
11.0318 22.550
11.0469 22.064
11.0621 21.668
11.0773 21.567
11.0925 21.660
11.1076 21.516
11.1228 21.976
11.1380 21.737
11.1532 21.570
11.1683 21.350
11.1835 21.806
11.1987 21.917
11.2139 21.886
11.2290 22.035
11.2442 21.925
11.2594 21.624
11.2746 21.677
11.2897 21.289
11.3049 21.680
11.3201 21.559
11.3353 21.331
11.3504 21.342
11.3656 20.918
11.3808 21.280
11.3960 21.370
11.4111 21.632
11.4263 21.129
11.4415 21.334
11.4567 20.972
11.4718 20.977
11.4870 20.946
11.5022 21.026
11.5174 20.689
11.5325 20.758
11.5477 20.956
11.5629 21.108
11.5781 20.755
11.5932 21.194
11.6084 21.035
11.6236 20.866
11.6388 20.819
11.6539 20.812
11.6691 20.645
11.6843 20.234
11.6995 20.544
11.7146 20.642
11.7298 20.431
11.7450 20.440
11.7602 20.298
11.7753 20.348
11.7905 20.210
11.8057 20.111
11.8209 19.898
11.8360 19.813
11.8512 19.902
11.8664 19.566
11.8816 19.658
11.8967 19.616
11.9119 19.475
11.9271 19.615
11.9423 19.133
11.9574 19.219
11.9726 19.159
11.9878 19.137
12.0030 19.175
12.0181 19.176
12.0333 18.833
12.0485 18.961
12.0637 18.937
12.0788 19.013
12.0940 18.969
12.1092 18.770
12.1244 18.809
12.1395 18.701
12.1547 18.711
12.1699 18.418
12.1851 18.118
12.2002 18.212
12.2154 18.096
12.2306 18.337
12.2458 18.176
12.2609 17.708
12.2761 17.784
12.2913 17.955
12.3065 17.991
12.3216 17.668
12.3368 17.486
12.3520 17.575
12.3672 17.463
12.3823 17.282
12.3975 17.475
12.4127 17.216
12.4279 17.306
12.4430 17.067
12.4582 16.882
12.4734 16.905
12.4886 16.872
12.5037 16.709
12.5189 16.568
12.5341 16.351
12.5493 16.242
12.5644 16.378
12.5796 16.444
12.5948 16.104
12.6100 15.964
12.6251 15.991
12.6403 15.847
12.6555 15.335
12.6707 15.579
12.6858 15.912
12.7010 15.677
12.7162 15.749
12.7314 15.679
12.7465 15.691
12.7617 15.305
12.7769 15.046
12.7921 15.009
12.8072 15.090
12.8224 15.109
12.8376 14.963
12.8528 15.011
12.8679 14.674
12.8831 14.470
12.8983 14.631
12.9135 14.682
12.9286 14.453
12.9438 14.554
12.9590 14.562
12.9742 14.529
12.9893 14.387
13.0045 14.173
13.0197 14.028
13.0349 13.914
13.0500 14.103
13.0652 14.263
13.0804 14.158
13.0956 14.101
13.1107 14.087
13.1259 13.992
13.1411 13.743
13.1563 13.614
13.1714 13.566
13.1866 13.644
13.2018 13.744
13.2170 13.578
13.2321 13.535
13.2473 13.306
13.2625 13.325
13.2777 13.406
13.2928 13.101
13.3080 13.188
13.3232 13.181
13.3384 13.065
13.3535 13.029
13.3687 12.852
13.3839 12.923
13.3991 12.905
13.4142 13.164
13.4294 13.024
13.4446 12.553
13.4598 12.652
13.4749 12.645
13.4901 12.723
13.5053 12.842
13.5205 12.589
13.5356 12.461
13.5508 12.482
13.5660 12.276
13.5812 12.111
13.5963 12.246
13.6115 12.456
13.6267 12.437
13.6419 12.154
13.6570 12.162
13.6722 12.373
13.6874 12.299
13.7026 12.148
13.7177 12.180
13.7329 12.262
13.7481 11.980
13.7633 11.885
13.7784 12.230
13.7936 12.179
13.8088 12.050
13.8239 12.315
13.8391 12.566
13.8543 12.444
13.8695 12.268
13.8846 11.948
13.8998 11.902
13.9150 11.841
13.9302 11.986
13.9453 11.809
13.9605 12.049
13.9757 11.755
13.9909 11.602
14.0060 11.483
14.0212 11.624
14.0364 11.776
14.0516 11.457
14.0667 11.394
14.0819 11.376
14.0971 11.232
14.1123 11.388
14.1274 11.412
14.1426 11.607
14.1578 11.398
14.1730 11.419
14.1881 11.482
14.2033 11.603
14.2185 11.485
14.2337 11.918
14.2488 11.613
14.2640 11.683
14.2792 11.851
14.2944 11.691
14.3095 11.826
14.3247 11.884
14.3399 11.807
14.3551 12.509
14.3702 12.858
14.3854 13.331
14.4006 13.261
14.4158 13.488
14.4309 13.637
14.4461 13.217
14.4613 12.943
14.4765 13.003
14.4916 12.622
14.5068 12.352
14.5220 12.303
14.5372 12.014
14.5523 11.525
14.5675 11.219
14.5827 11.069
14.5979 11.034
14.6130 11.140
14.6282 11.112
14.6434 10.945
14.6586 10.833
14.6737 10.713
14.6889 10.540
14.7041 10.998
14.7193 10.931
14.7344 10.838
14.7496 10.653
14.7648 10.819
14.7800 10.709
14.7951 10.546
14.8103 10.306
14.8255 10.701
14.8407 10.542
14.8558 10.429
14.8710 10.349
14.8862 10.123
14.9014 10.422
14.9165 10.552
14.9317 10.468
14.9469 10.893
14.9621 10.559
14.9772 10.226
14.9924 10.571
15.0076 10.368
15.0228 10.693
15.0379 10.191
15.0531 10.390
15.0683 10.253
15.0835 10.536
15.0986 10.009
15.1138 10.402
15.1290 10.511
15.1442 10.175
15.1593 10.337
15.1745 10.192
15.1897 10.170
15.2049 10.313
15.2200 10.248
15.2352 10.073
15.2504 10.260
15.2656 10.180
15.2807 10.197
15.2959 9.826
15.3111 10.191
15.3263 10.303
15.3414 10.313
15.3566 10.237
15.3718 10.338
15.3870 10.210
15.4021 10.467
15.4173 9.836
15.4325 10.108
15.4477 10.285
15.4628 10.232
15.4780 10.127
15.4932 9.847
15.5084 10.166
15.5235 9.908
15.5387 10.326
15.5539 10.191
15.5691 9.798
15.5842 9.637
15.5994 9.863
15.6146 9.977
15.6298 9.737
15.6449 10.023
15.6601 9.739
15.6753 9.763
15.6905 9.722
15.7056 9.662
15.7208 9.803
15.7360 9.601
15.7512 9.584
15.7663 9.818
15.7815 9.648
15.7967 9.973
15.8119 9.819
15.8270 9.829
15.8422 9.564
15.8574 9.836
15.8726 9.702
15.8877 9.541
15.9029 9.760
15.9181 9.613
15.9333 9.712
15.9484 9.632
15.9636 9.498
15.9788 9.695
15.9940 9.841
16.0091 9.890
16.0243 9.698
16.0395 9.693
16.0547 9.696
16.0698 9.634
16.0850 9.599
16.1002 9.750
16.1154 9.645
16.1305 9.683
16.1457 9.666
16.1609 9.561
16.1761 9.424
16.1912 9.810
16.2064 9.665
16.2216 9.868
16.2368 9.768
16.2519 9.654
16.2671 9.895
16.2823 9.858
16.2975 9.856
16.3126 9.802
16.3278 9.754
16.3430 9.942
16.3582 9.854
16.3733 9.900
16.3885 9.775
16.4037 9.889
16.4189 9.797
16.4340 9.732
16.4492 9.684
16.4644 10.044
16.4796 10.071
16.4947 9.500
16.5099 9.485
16.5251 9.662
16.5403 9.477
16.5554 9.664
16.5706 9.636
16.5858 9.743
16.6010 9.799
16.6161 9.715
16.6313 9.831
16.6465 9.839
16.6617 9.901
16.6768 9.997
16.6920 9.742
16.7072 9.925
16.7224 9.941
16.7375 9.854
16.7527 10.013
16.7679 9.980
16.7831 9.860
16.7982 9.851
16.8134 9.780
16.8286 9.924
16.8438 9.921
16.8589 9.841
16.8741 9.854
16.8893 9.745
16.9045 9.673
16.9196 9.618
16.9348 9.622
16.9500 9.716
16.9652 9.707
16.9803 9.833
16.9955 9.924
17.0107 9.930
17.0259 9.912
17.0410 10.002
17.0562 10.029
17.0714 10.224
17.0866 10.350
17.1017 10.264
17.1169 10.558
17.1321 10.990
17.1473 11.155
17.1624 11.522
17.1776 12.156
17.1928 12.763
17.2080 13.694
17.2231 14.786
17.2383 16.107
17.2535 17.388
17.2687 18.166
17.2838 18.077
17.2990 17.361
17.3142 16.610
17.3294 16.185
17.3445 15.754
17.3597 15.643
17.3749 15.702
17.3901 15.260
17.4052 14.369
17.4204 13.154
17.4356 12.345
17.4508 11.863
17.4659 11.583
17.4811 11.325
17.4963 11.177
17.5115 10.983
17.5266 10.877
17.5418 10.999
17.5570 10.788
17.5722 10.636
17.5873 10.832
17.6025 10.942
17.6177 10.844
17.6329 11.041
17.6480 11.329
17.6632 11.569
17.6784 11.796
17.6936 12.143
17.7087 12.392
17.7239 12.087
17.7391 11.784
17.7543 11.631
17.7694 11.507
17.7846 11.399
17.7998 11.086
17.8150 10.945
17.8301 11.039
17.8453 10.821
17.8605 10.395
17.8757 10.446
17.8908 10.640
17.9060 10.666
17.9212 10.711
17.9364 10.595
17.9515 10.242
17.9667 10.048
17.9819 10.263
17.9971 10.312
18.0122 10.283
18.0274 10.281
18.0426 10.136
18.0578 10.065
18.0729 10.094
18.0881 10.243
18.1033 10.258
18.1185 9.945
18.1336 9.838
18.1488 9.803
18.1640 9.909
18.1792 9.918
18.1943 9.749
18.2095 9.829
18.2247 9.945
18.2399 10.009
18.2550 9.917
18.2702 9.781
18.2854 9.806
18.3006 9.892
18.3157 9.942
18.3309 9.938
18.3461 9.843
18.3613 9.813
18.3764 9.876
18.3916 9.868
18.4068 9.949
18.4220 9.765
18.4371 9.685
18.4523 9.896
18.4675 9.966
18.4827 9.747
18.4978 9.670
18.5130 9.952
18.5282 9.905
18.5434 9.719
18.5585 9.749
18.5737 9.826
18.5889 9.936
18.6041 9.974
18.6192 9.699
18.6344 9.839
18.6496 9.879
18.6648 9.764
18.6799 9.546
18.6951 9.518
18.7103 9.970
18.7255 10.119
18.7406 9.774
18.7558 9.716
18.7710 9.874
18.7862 9.824
18.8013 9.701
18.8165 9.647
18.8317 9.710
18.8469 9.734
18.8620 9.797
18.8772 9.960
18.8924 9.906
18.9076 10.052
18.9227 10.090
18.9379 9.952
18.9531 9.852
18.9683 9.981
18.9834 10.124
18.9986 10.012
19.0138 10.146
19.0290 10.227
19.0441 9.964
19.0593 10.042
19.0745 10.355
19.0897 10.311
19.1048 10.316
19.1200 10.364
19.1352 10.321
19.1504 10.266
19.1655 10.355
19.1807 10.372
19.1959 10.301
19.2111 10.503
19.2262 10.619
19.2414 10.573
19.2566 10.622
19.2718 10.838
19.2869 10.977
19.3021 11.026
19.3173 10.901
19.3325 10.717
19.3476 10.988
19.3628 11.129
19.3780 11.057
19.3932 11.107
19.4083 11.012
19.4235 10.986
19.4387 11.219
19.4539 11.300
19.4690 11.198
19.4842 11.070
19.4994 11.248
19.5146 11.232
19.5297 11.272
19.5449 11.398
19.5601 11.405
19.5753 11.414
19.5904 11.353
19.6056 11.342
19.6208 11.578
19.6360 11.559
19.6511 11.547
19.6663 11.716
19.6815 11.713
19.6967 11.656
19.7118 11.602
19.7270 11.626
19.7422 11.563
19.7574 11.628
19.7725 11.933
19.7877 11.847
19.8029 11.980
19.8180 12.131
19.8332 12.028
19.8484 12.172
19.8636 12.127
19.8787 12.447
19.8939 12.745
19.9091 12.961
19.9243 13.614
19.9394 13.940
19.9546 14.209
19.9698 14.422
19.9850 14.534
20.0001 14.267
20.0153 14.040
20.0305 13.895
20.0457 13.613
20.0608 13.574
20.0760 13.628
20.0912 13.537
20.1064 13.551
20.1215 13.365
20.1367 13.224
20.1519 13.020
20.1671 12.955
20.1822 12.826
20.1974 13.125
20.2126 13.063
20.2278 12.692
20.2429 12.448
20.2581 11.858
20.2733 12.029
20.2885 11.905
20.3036 11.821
20.3188 12.153
20.3340 12.077
20.3492 11.916
20.3643 11.698
20.3795 11.583
20.3947 11.532
20.4099 11.543
20.4250 11.658
20.4402 12.172
20.4554 12.298
20.4706 12.230
20.4857 12.067
20.5009 12.158
20.5161 11.880
20.5313 11.802
20.5464 11.625
20.5616 11.469
20.5768 11.695
20.5920 11.528
20.6071 11.450
20.6223 11.497
20.6375 11.404
20.6527 11.256
20.6678 10.952
20.6830 10.716
20.6982 10.489
20.7134 10.437
20.7285 10.462
20.7437 10.580
20.7589 10.700
20.7741 10.510
20.7892 10.515
20.8044 10.646
20.8196 10.406
20.8348 10.332
20.8499 10.233
20.8651 10.075
20.8803 10.304
20.8955 10.477
20.9106 10.088
20.9258 10.132
20.9410 10.207
20.9562 10.043
20.9713 10.030
20.9865 10.199
21.0017 10.082
21.0169 9.797
21.0320 9.829
21.0472 9.736
21.0624 10.159
21.0776 9.906
21.0927 9.714
21.1079 9.756
21.1231 10.025
21.1383 9.818
21.1534 9.746
21.1686 9.799
21.1838 9.480
21.1990 9.966
21.2141 9.925
21.2293 9.323
21.2445 9.443
21.2597 9.625
21.2748 9.778
21.2900 9.324
21.3052 9.419
21.3204 9.870
21.3355 9.659
21.3507 9.565
21.3659 9.493
21.3811 9.491
21.3962 9.236
21.4114 9.506
21.4266 9.434
21.4418 9.441
21.4569 9.355
21.4721 9.285
21.4873 9.252
21.5025 9.307
21.5176 9.008
21.5328 9.325
21.5480 9.429
21.5632 9.375
21.5783 9.290
21.5935 9.207
21.6087 9.017
21.6239 9.220
21.6390 9.292
21.6542 9.461
21.6694 9.086
21.6846 9.159
21.6997 9.101
21.7149 9.138
21.7301 9.042
21.7453 8.892
21.7604 8.808
21.7756 9.014
21.7908 9.182
21.8060 9.067
21.8211 9.234
21.8363 9.083
21.8515 8.701
21.8667 8.899
21.8818 9.037
21.8970 9.016
21.9122 8.976
21.9274 8.928
21.9425 8.732
21.9577 8.845
21.9729 8.948
21.9881 9.031
22.0032 8.987
22.0184 8.927
22.0336 8.893
22.0488 8.834
22.0639 8.805
22.0791 8.773
22.0943 8.787
22.1095 8.873
22.1246 8.646
22.1398 8.592
22.1550 8.760
22.1702 8.719
22.1853 8.807
22.2005 8.548
22.2157 8.542
22.2309 8.520
22.2460 8.449
22.2612 8.454
22.2764 8.492
22.2916 8.538
22.3067 8.552
22.3219 8.750
22.3371 8.429
22.3523 8.144
22.3674 8.408
22.3826 8.476
22.3978 8.249
22.4130 8.352
22.4281 8.324
22.4433 8.533
22.4585 8.524
22.4737 8.299
22.4888 8.278
22.5040 8.371
22.5192 8.431
22.5344 8.230
22.5495 8.272
22.5647 8.281
22.5799 8.481
22.5951 8.436
22.6102 8.513
22.6254 8.446
22.6406 8.368
22.6558 8.579
22.6709 8.324
22.6861 8.649
22.7013 8.146
22.7165 7.956
22.7316 6.268
