'Id: "" Comment: "" Operator: "Lab Manager" Anode: "Mo" Scantype: "Still (Eiger2R_500K (1D mode))" TimePerStep: "300" X: "11.8" Y: "9.4" Z: "11.284" 
7.2532 18.811
7.2684 18.834
7.2836 19.138
7.2987 18.674
7.3139 18.935
7.3291 18.817
7.3443 19.653
7.3594 19.214
7.3746 18.915
7.3898 18.825
7.4050 19.123
7.4201 19.655
7.4353 19.599
7.4505 19.373
7.4657 19.495
7.4808 19.864
7.4960 19.522
7.5112 19.597
7.5264 19.746
7.5415 19.714
7.5567 20.052
7.5719 20.190
7.5871 20.214
7.6022 20.388
7.6174 19.802
7.6326 19.970
7.6478 20.096
7.6629 20.070
7.6781 19.937
7.6933 19.994
7.7085 20.028
7.7236 20.226
7.7388 20.336
7.7540 20.354
7.7692 20.651
7.7843 20.848
7.7995 20.683
7.8147 20.691
7.8299 20.764
7.8450 20.551
7.8602 20.861
7.8754 21.204
7.8905 20.721
7.9057 20.770
7.9209 20.995
7.9361 20.956
7.9512 20.836
7.9664 20.899
7.9816 20.951
7.9968 20.800
8.0119 21.068
8.0271 21.054
8.0423 20.809
8.0575 21.216
8.0726 21.296
8.0878 21.127
8.1030 21.326
8.1182 21.172
8.1333 21.031
8.1485 21.681
8.1637 21.450
8.1789 21.492
8.1940 21.182
8.2092 21.332
8.2244 21.264
8.2396 21.309
8.2547 21.621
8.2699 21.669
8.2851 21.359
8.3003 21.684
8.3154 21.698
8.3306 21.645
8.3458 21.650
8.3610 22.065
8.3761 21.733
8.3913 21.626
8.4065 22.095
8.4217 21.250
8.4368 22.091
8.4520 21.672
8.4672 22.079
8.4824 21.877
8.4975 21.747
8.5127 21.863
8.5279 21.886
8.5431 22.362
8.5582 22.550
8.5734 21.582
8.5886 22.393
8.6038 22.055
8.6189 22.021
8.6341 22.174
8.6493 22.309
8.6645 22.333
8.6796 22.344
8.6948 22.129
8.7100 22.088
8.7252 22.870
8.7403 22.251
8.7555 22.365
8.7707 22.131
8.7859 22.906
8.8010 22.839
8.8162 22.537
8.8314 22.484
8.8466 22.679
8.8617 22.500
8.8769 22.532
8.8921 22.248
8.9073 22.450
8.9224 22.493
8.9376 22.555
8.9528 22.568
8.9680 22.865
8.9831 22.546
8.9983 22.913
9.0135 22.723
9.0287 22.586
9.0438 22.481
9.0590 22.745
9.0742 23.320
9.0894 22.926
9.1045 22.566
9.1197 22.579
9.1349 22.596
9.1501 22.387
9.1652 22.696
9.1804 22.791
9.1956 23.207
9.2108 23.038
9.2259 23.378
9.2411 23.354
9.2563 22.758
9.2715 22.797
9.2866 23.075
9.3018 23.106
9.3170 23.166
9.3322 23.110
9.3473 23.146
9.3625 22.903
9.3777 23.016
9.3929 22.851
9.4080 23.224
9.4232 22.808
9.4384 22.750
9.4536 22.882
9.4687 23.034
9.4839 22.892
9.4991 22.936
9.5143 23.217
9.5294 23.160
9.5446 23.047
9.5598 22.999
9.5750 23.155
9.5901 23.067
9.6053 23.002
9.6205 23.315
9.6357 23.197
9.6508 23.313
9.6660 23.736
9.6812 23.612
9.6964 23.440
9.7115 23.738
9.7267 24.135
9.7419 24.194
9.7571 24.171
9.7722 24.152
9.7874 24.012
9.8026 23.592
9.8178 23.400
9.8329 23.615
9.8481 23.577
9.8633 23.237
9.8785 23.054
9.8936 22.956
9.9088 23.285
9.9240 23.623
9.9392 23.317
9.9543 23.148
9.9695 23.365
9.9847 23.446
9.9999 23.348
10.0150 23.169
10.0302 22.991
10.0454 22.956
10.0606 23.305
10.0757 23.160
10.0909 22.987
10.1061 23.072
10.1213 23.364
10.1364 23.435
10.1516 23.101
10.1668 22.927
10.1820 23.198
10.1971 23.304
10.2123 23.297
10.2275 23.279
10.2427 23.178
10.2578 23.205
10.2730 23.220
10.2882 23.255
10.3034 23.239
10.3185 22.840
10.3337 22.688
10.3489 22.765
10.3641 22.908
10.3792 22.628
10.3944 22.598
10.4096 22.569
10.4248 22.880
10.4399 22.790
10.4551 22.777
10.4703 22.858
10.4855 23.008
10.5006 22.685
10.5158 22.117
10.5310 22.535
10.5462 22.534
10.5613 22.370
10.5765 22.521
10.5917 22.687
10.6069 22.703
10.6220 22.758
10.6372 22.853
10.6524 22.603
10.6676 22.467
10.6827 22.417
10.6979 22.590
10.7131 22.701
10.7283 22.291
10.7434 22.336
10.7586 22.589
10.7738 22.083
10.7890 22.326
10.8041 22.180
10.8193 22.140
10.8345 22.422
10.8497 22.362
10.8648 21.784
10.8800 21.836
10.8952 21.973
10.9104 22.225
10.9255 22.184
10.9407 22.038
10.9559 22.047
10.9711 22.027
10.9862 21.808
11.0014 21.643
11.0166 22.211
11.0318 22.274
11.0469 22.091
11.0621 22.043
11.0773 21.998
11.0925 21.899
11.1076 22.047
11.1228 21.597
11.1380 21.618
11.1532 21.666
11.1683 21.853
11.1835 21.856
11.1987 21.637
11.2139 21.755
11.2290 21.781
11.2442 21.741
11.2594 21.773
11.2746 21.545
11.2897 21.613
11.3049 21.525
11.3201 21.254
11.3353 21.583
11.3504 21.352
11.3656 21.742
11.3808 21.486
11.3960 21.590
11.4111 21.291
11.4263 21.144
11.4415 21.090
11.4567 21.297
11.4718 21.447
11.4870 21.242
11.5022 21.107
11.5174 20.828
11.5325 20.963
11.5477 20.696
11.5629 20.822
11.5781 20.941
11.5932 20.863
11.6084 20.835
11.6236 20.898
11.6388 20.958
11.6539 20.488
11.6691 20.637
11.6843 20.259
11.6995 20.487
11.7146 20.657
11.7298 20.762
11.7450 20.833
11.7602 20.785
11.7753 20.475
11.7905 20.394
11.8057 19.966
11.8209 19.708
11.8360 19.720
11.8512 19.950
11.8664 19.884
11.8816 19.881
11.8967 19.743
11.9119 19.541
11.9271 19.558
11.9423 19.405
11.9574 19.421
11.9726 19.791
11.9878 19.243
12.0030 19.253
12.0181 19.256
12.0333 18.833
12.0485 19.093
12.0637 18.845
12.0788 18.436
12.0940 18.510
12.1092 18.920
12.1244 18.747
12.1395 18.421
12.1547 18.389
12.1699 18.301
12.1851 18.185
12.2002 18.273
12.2154 18.322
12.2306 18.290
12.2458 17.790
12.2609 18.002
12.2761 17.895
12.2913 17.430
12.3065 17.504
12.3216 17.564
12.3368 17.664
12.3520 17.642
12.3672 17.324
12.3823 17.181
12.3975 17.309
12.4127 17.027
12.4279 17.124
12.4430 17.250
12.4582 16.951
12.4734 16.759
12.4886 16.877
12.5037 16.945
12.5189 16.600
12.5341 16.345
12.5493 16.088
12.5644 16.047
12.5796 16.156
12.5948 16.162
12.6100 16.274
12.6251 16.068
12.6403 16.091
12.6555 16.068
12.6707 16.027
12.6858 15.911
12.7010 15.701
12.7162 15.390
12.7314 15.437
12.7465 15.561
12.7617 15.402
12.7769 15.125
12.7921 15.149
12.8072 15.161
12.8224 15.001
12.8376 15.098
12.8528 14.983
12.8679 14.977
12.8831 14.889
12.8983 14.797
12.9135 14.689
12.9286 14.544
12.9438 14.562
12.9590 14.556
12.9742 14.631
12.9893 14.701
13.0045 14.492
13.0197 14.329
13.0349 14.275
13.0500 14.305
13.0652 14.190
13.0804 13.892
13.0956 13.689
13.1107 13.928
13.1259 13.925
13.1411 13.698
13.1563 13.728
13.1714 13.503
13.1866 13.356
13.2018 13.330
13.2170 13.721
13.2321 13.757
13.2473 13.386
13.2625 13.487
13.2777 13.382
13.2928 13.171
13.3080 13.075
13.3232 13.282
13.3384 13.441
13.3535 13.308
13.3687 13.250
13.3839 13.121
13.3991 13.182
13.4142 13.201
13.4294 12.972
13.4446 13.024
13.4598 12.830
13.4749 12.667
13.4901 12.852
13.5053 12.488
13.5205 12.428
13.5356 12.727
13.5508 12.486
13.5660 12.226
13.5812 12.245
13.5963 12.356
13.6115 12.222
13.6267 12.429
13.6419 12.352
13.6570 12.165
13.6722 12.162
13.6874 12.191
13.7026 12.253
13.7177 12.416
13.7329 12.342
13.7481 12.255
13.7633 11.978
13.7784 12.051
13.7936 12.399
13.8088 12.183
13.8239 12.152
13.8391 12.213
13.8543 12.103
13.8695 11.968
13.8846 12.165
13.8998 12.463
13.9150 12.242
13.9302 12.117
13.9453 12.262
13.9605 12.208
13.9757 11.418
13.9909 11.305
14.0060 11.516
14.0212 11.885
14.0364 11.739
14.0516 11.471
14.0667 11.482
14.0819 11.370
14.0971 11.520
14.1123 11.834
14.1274 11.748
14.1426 11.494
14.1578 11.660
14.1730 11.463
14.1881 11.573
14.2033 11.354
14.2185 11.421
14.2337 11.557
14.2488 11.896
14.2640 11.939
14.2792 12.207
14.2944 12.078
14.3095 12.104
14.3247 12.271
14.3399 12.399
14.3551 12.516
14.3702 12.918
14.3854 12.868
14.4006 13.280
14.4158 13.307
14.4309 13.184
14.4461 12.989
14.4613 12.776
14.4765 12.182
14.4916 11.818
14.5068 11.837
14.5220 11.968
14.5372 11.384
14.5523 11.445
14.5675 11.304
14.5827 11.292
14.5979 11.216
14.6130 10.847
14.6282 10.795
14.6434 10.721
14.6586 10.795
14.6737 10.604
14.6889 10.949
14.7041 10.787
14.7193 10.480
14.7344 10.709
14.7496 10.911
14.7648 10.640
14.7800 10.343
14.7951 10.475
14.8103 10.611
14.8255 10.394
14.8407 10.198
14.8558 10.263
14.8710 10.505
14.8862 10.800
14.9014 10.968
14.9165 10.766
14.9317 10.548
14.9469 10.419
14.9621 10.749
14.9772 10.435
14.9924 10.282
15.0076 10.319
15.0228 10.692
15.0379 10.469
15.0531 10.393
15.0683 10.275
15.0835 10.166
15.0986 10.397
15.1138 10.299
15.1290 10.319
15.1442 10.105
15.1593 10.581
15.1745 10.343
15.1897 10.023
15.2049 9.862
15.2200 10.202
15.2352 10.001
15.2504 9.922
15.2656 10.106
15.2807 10.157
15.2959 9.825
15.3111 9.840
15.3263 10.140
15.3414 10.297
15.3566 10.416
15.3718 9.966
15.3870 10.160
15.4021 10.227
15.4173 10.422
15.4325 10.330
15.4477 10.349
15.4628 10.259
15.4780 10.334
15.4932 9.948
15.5084 9.766
15.5235 10.046
15.5387 9.928
15.5539 10.086
15.5691 10.022
15.5842 9.853
15.5994 10.050
15.6146 9.766
15.6298 9.976
15.6449 10.093
15.6601 9.979
15.6753 9.893
15.6905 9.848
15.7056 9.645
15.7208 9.728
15.7360 9.664
15.7512 9.845
15.7663 9.813
15.7815 9.615
15.7967 9.710
15.8119 9.745
15.8270 9.445
15.8422 9.668
15.8574 9.711
15.8726 9.347
15.8877 9.570
15.9029 9.606
15.9181 9.874
15.9333 9.680
15.9484 9.534
15.9636 9.618
15.9788 9.779
15.9940 10.037
16.0091 9.573
16.0243 9.293
16.0395 9.482
16.0547 9.711
16.0698 9.623
16.0850 9.696
16.1002 9.400
16.1154 9.506
16.1305 9.661
16.1457 9.600
16.1609 9.505
16.1761 9.504
16.1912 9.776
16.2064 9.768
16.2216 9.884
16.2368 9.846
16.2519 9.564
16.2671 9.572
16.2823 9.844
16.2975 9.749
16.3126 9.774
16.3278 9.835
16.3430 9.742
16.3582 9.660
16.3733 9.820
16.3885 10.015
16.4037 9.885
16.4189 9.536
16.4340 9.770
16.4492 9.964
16.4644 9.812
16.4796 9.788
16.4947 9.692
16.5099 9.673
16.5251 9.661
16.5403 9.909
16.5554 10.011
16.5706 9.558
16.5858 9.410
16.6010 9.773
16.6161 9.946
16.6313 9.790
16.6465 9.726
16.6617 9.763
16.6768 9.646
16.6920 9.851
16.7072 9.966
16.7224 9.863
16.7375 9.672
16.7527 9.810
16.7679 9.960
16.7831 9.885
16.7982 9.737
16.8134 9.750
16.8286 9.880
16.8438 9.786
16.8589 9.942
16.8741 10.003
16.8893 10.044
16.9045 9.807
16.9196 9.815
16.9348 9.739
16.9500 9.594
16.9652 9.773
16.9803 9.829
16.9955 9.929
17.0107 9.924
17.0259 10.100
17.0410 10.227
17.0562 10.014
17.0714 10.075
17.0866 10.328
17.1017 10.473
17.1169 10.664
17.1321 10.925
17.1473 11.115
17.1624 11.741
17.1776 12.253
17.1928 12.877
17.2080 13.923
17.2231 15.247
17.2383 16.523
17.2535 17.479
17.2687 18.423
17.2838 18.548
17.2990 17.687
17.3142 16.806
17.3294 16.134
17.3445 15.856
17.3597 16.107
17.3749 15.991
17.3901 15.452
17.4052 14.502
17.4204 13.313
17.4356 12.521
17.4508 12.119
17.4659 11.807
17.4811 11.359
17.4963 11.414
17.5115 11.347
17.5266 11.043
17.5418 11.157
17.5570 10.952
17.5722 10.919
17.5873 11.159
17.6025 11.210
17.6177 11.148
17.6329 11.127
17.6480 11.270
17.6632 11.486
17.6784 11.758
17.6936 11.677
17.7087 11.437
17.7239 11.318
17.7391 11.342
17.7543 11.039
17.7694 10.971
17.7846 10.950
17.7998 10.633
17.8150 10.500
17.8301 10.331
17.8453 10.152
17.8605 10.374
17.8757 10.303
17.8908 10.182
17.9060 10.272
17.9212 10.051
17.9364 9.800
17.9515 9.882
17.9667 10.182
17.9819 10.311
17.9971 9.987
18.0122 10.006
18.0274 10.264
18.0426 10.299
18.0578 10.089
18.0729 9.959
18.0881 10.069
18.1033 10.059
18.1185 9.947
18.1336 9.843
18.1488 9.981
18.1640 10.018
18.1792 9.787
18.1943 9.882
18.2095 10.037
18.2247 10.039
18.2399 10.122
18.2550 9.870
18.2702 9.928
18.2854 10.120
18.3006 10.101
18.3157 9.956
18.3309 9.994
18.3461 10.004
18.3613 9.794
18.3764 9.887
18.3916 9.894
18.4068 9.884
18.4220 9.708
18.4371 9.717
18.4523 9.910
18.4675 9.876
18.4827 9.916
18.4978 9.766
18.5130 9.652
18.5282 9.645
18.5434 9.654
18.5585 9.798
18.5737 9.852
18.5889 9.710
18.6041 9.821
18.6192 9.826
18.6344 9.762
18.6496 9.662
18.6648 9.615
18.6799 9.662
18.6951 9.725
18.7103 9.797
18.7255 9.883
18.7406 9.753
18.7558 9.607
18.7710 9.603
18.7862 9.917
18.8013 9.834
18.8165 9.944
18.8317 10.039
18.8469 9.744
18.8620 9.848
18.8772 10.021
18.8924 10.005
18.9076 9.850
18.9227 10.011
18.9379 10.232
18.9531 10.220
18.9683 9.749
18.9834 9.888
18.9986 9.939
19.0138 10.213
19.0290 10.025
19.0441 9.924
19.0593 10.326
19.0745 10.184
19.0897 10.063
19.1048 10.320
19.1200 10.336
19.1352 10.220
19.1504 10.455
19.1655 10.551
19.1807 10.744
19.1959 10.547
19.2111 10.591
19.2262 10.789
19.2414 10.714
19.2566 10.822
19.2718 10.788
19.2869 10.815
19.3021 10.978
19.3173 10.947
19.3325 10.893
19.3476 10.928
19.3628 11.118
19.3780 10.973
19.3932 11.129
19.4083 11.390
19.4235 11.271
19.4387 11.430
19.4539 11.457
19.4690 11.420
19.4842 11.297
19.4994 11.182
19.5146 11.275
19.5297 11.317
19.5449 11.395
19.5601 11.624
19.5753 11.598
19.5904 11.661
19.6056 11.785
19.6208 11.682
19.6360 11.504
19.6511 11.542
19.6663 11.752
19.6815 11.856
19.6967 11.657
19.7118 11.649
19.7270 11.950
19.7422 11.746
19.7574 11.646
19.7725 11.798
19.7877 11.624
19.8029 11.718
19.8180 11.906
19.8332 11.997
19.8484 12.355
19.8636 12.361
19.8787 12.240
19.8939 12.463
19.9091 13.072
19.9243 13.479
19.9394 13.586
19.9546 14.167
19.9698 14.662
19.9850 14.677
20.0001 14.484
20.0153 14.288
20.0305 13.962
20.0457 13.646
20.0608 13.617
20.0760 13.811
20.0912 13.968
20.1064 13.794
20.1215 13.552
20.1367 13.318
20.1519 13.106
20.1671 12.916
20.1822 12.811
20.1974 12.966
20.2126 12.798
20.2278 12.614
20.2429 12.518
20.2581 12.331
20.2733 12.074
20.2885 11.799
20.3036 11.960
20.3188 12.221
20.3340 12.232
20.3492 11.998
20.3643 11.789
20.3795 12.054
20.3947 11.835
20.4099 11.678
20.4250 11.850
20.4402 11.851
20.4554 12.043
20.4706 11.830
20.4857 11.787
20.5009 11.532
20.5161 11.568
20.5313 11.489
20.5464 11.603
20.5616 11.521
20.5768 11.136
20.5920 11.185
20.6071 11.257
20.6223 11.130
20.6375 11.278
20.6527 11.062
20.6678 10.582
20.6830 10.323
20.6982 10.490
20.7134 10.448
20.7285 10.624
20.7437 10.474
20.7589 10.062
20.7741 10.300
20.7892 10.543
20.8044 10.522
20.8196 10.325
20.8348 10.063
20.8499 10.327
20.8651 10.439
20.8803 10.155
20.8955 9.765
20.9106 9.955
20.9258 10.014
20.9410 9.951
20.9562 9.778
20.9713 10.183
20.9865 10.013
21.0017 10.048
21.0169 9.822
21.0320 9.889
21.0472 10.285
21.0624 9.803
21.0776 9.871
21.0927 9.936
21.1079 9.909
21.1231 9.707
21.1383 9.688
21.1534 10.277
21.1686 9.948
21.1838 9.922
21.1990 9.828
21.2141 9.996
21.2293 9.943
21.2445 9.642
21.2597 9.637
21.2748 9.265
21.2900 9.648
21.3052 9.476
21.3204 9.950
21.3355 9.636
21.3507 9.445
21.3659 9.560
21.3811 9.382
21.3962 9.212
21.4114 9.523
21.4266 9.305
21.4418 9.464
21.4569 9.754
21.4721 9.184
21.4873 9.248
21.5025 9.279
21.5176 9.222
21.5328 9.439
21.5480 9.221
21.5632 9.151
21.5783 9.329
21.5935 9.299
21.6087 9.265
21.6239 9.437
21.6390 9.065
21.6542 9.030
21.6694 9.115
21.6846 8.835
21.6997 9.231
21.7149 9.200
21.7301 9.251
21.7453 9.367
21.7604 9.145
21.7756 9.090
21.7908 9.028
21.8060 8.874
21.8211 8.972
21.8363 9.041
21.8515 9.223
21.8667 9.065
21.8818 8.928
21.8970 9.355
21.9122 9.185
21.9274 9.069
21.9425 8.971
21.9577 8.862
21.9729 8.841
21.9881 8.802
22.0032 8.823
22.0184 8.757
22.0336 8.684
22.0488 8.746
22.0639 8.711
22.0791 8.576
22.0943 8.465
22.1095 8.583
22.1246 8.686
22.1398 8.494
22.1550 8.548
22.1702 8.679
22.1853 8.764
22.2005 8.648
22.2157 8.479
22.2309 8.354
22.2460 8.452
22.2612 8.511
22.2764 8.493
22.2916 8.299
22.3067 8.568
22.3219 8.395
22.3371 8.592
22.3523 8.583
22.3674 8.435
22.3826 8.400
22.3978 8.292
22.4130 8.557
22.4281 8.411
22.4433 8.377
22.4585 8.739
22.4737 8.687
22.4888 8.668
22.5040 8.236
22.5192 8.334
22.5344 8.490
22.5495 8.464
22.5647 8.398
22.5799 8.467
22.5951 8.540
22.6102 8.844
22.6254 8.759
22.6406 8.293
22.6558 8.506
22.6709 8.598
22.6861 8.262
22.7013 8.418
22.7165 7.914
22.7316 6.466
