'Id: "" Comment: "" Operator: "Lab Manager" Anode: "Mo" Scantype: "Still (Eiger2R_500K (1D mode))" TimePerStep: "300" X: "11.8" Y: "9.4" Z: "11.284" 
7.2532 19.116
7.2684 18.949
7.2836 19.178
7.2987 19.578
7.3139 19.243
7.3291 19.618
7.3443 19.310
7.3594 18.926
7.3746 19.442
7.3898 19.046
7.4050 19.347
7.4201 19.209
7.4353 19.770
7.4505 20.172
7.4657 19.666
7.4808 19.643
7.4960 19.868
7.5112 20.142
7.5264 19.853
7.5415 20.177
7.5567 20.151
7.5719 20.132
7.5871 20.069
7.6022 20.102
7.6174 20.287
7.6326 20.344
7.6478 20.428
7.6629 19.853
7.6781 20.093
7.6933 20.536
7.7085 20.771
7.7236 20.741
7.7388 20.480
7.7540 20.638
7.7692 20.651
7.7843 20.944
7.7995 20.704
7.8147 20.528
7.8299 20.924
7.8450 21.024
7.8602 20.914
7.8754 20.967
7.8905 21.055
7.9057 21.165
7.9209 21.362
7.9361 21.213
7.9512 21.030
7.9664 21.186
7.9816 21.100
7.9968 21.237
8.0119 21.368
8.0271 21.645
8.0423 21.914
8.0575 21.597
8.0726 21.756
8.0878 21.978
8.1030 21.615
8.1182 21.257
8.1333 21.556
8.1485 21.615
8.1637 21.450
8.1789 21.455
8.1940 21.662
8.2092 21.850
8.2244 21.521
8.2396 21.759
8.2547 21.749
8.2699 21.817
8.2851 21.951
8.3003 21.987
8.3154 22.143
8.3306 21.357
8.3458 21.395
8.3610 21.812
8.3761 22.150
8.3913 21.860
8.4065 22.212
8.4217 22.034
8.4368 21.761
8.4520 22.457
8.4672 22.401
8.4824 22.400
8.4975 22.481
8.5127 22.649
8.5279 22.490
8.5431 22.261
8.5582 22.577
8.5734 22.370
8.5886 22.484
8.6038 22.158
8.6189 23.188
8.6341 22.370
8.6493 22.697
8.6645 22.634
8.6796 23.200
8.6948 23.138
8.7100 22.608
8.7252 22.918
8.7403 22.513
8.7555 22.705
8.7707 22.770
8.7859 22.569
8.8010 22.933
8.8162 22.597
8.8314 22.929
8.8466 22.462
8.8617 22.871
8.8769 22.878
8.8921 22.530
8.9073 22.875
8.9224 22.849
8.9376 22.238
8.9528 22.532
8.9680 22.441
8.9831 22.594
8.9983 22.815
9.0135 22.595
9.0287 22.470
9.0438 23.203
9.0590 23.133
9.0742 22.830
9.0894 22.669
9.1045 22.687
9.1197 22.870
9.1349 22.827
9.1501 23.080
9.1652 22.800
9.1804 22.972
9.1956 23.377
9.2108 23.283
9.2259 23.246
9.2411 23.425
9.2563 23.382
9.2715 23.085
9.2866 23.321
9.3018 23.283
9.3170 23.106
9.3322 23.082
9.3473 23.330
9.3625 23.045
9.3777 23.282
9.3929 23.294
9.4080 23.194
9.4232 23.516
9.4384 23.457
9.4536 23.241
9.4687 23.660
9.4839 23.556
9.4991 23.435
9.5143 23.585
9.5294 23.647
9.5446 23.355
9.5598 23.209
9.5750 23.341
9.5901 23.789
9.6053 23.557
9.6205 23.294
9.6357 23.290
9.6508 23.506
9.6660 23.655
9.6812 23.882
9.6964 24.159
9.7115 23.906
9.7267 23.996
9.7419 24.357
9.7571 24.221
9.7722 23.971
9.7874 23.871
9.8026 23.704
9.8178 23.611
9.8329 23.720
9.8481 23.966
9.8633 23.901
9.8785 23.518
9.8936 23.279
9.9088 23.478
9.9240 23.429
9.9392 23.330
9.9543 23.451
9.9695 23.665
9.9847 23.898
9.9999 23.884
10.0150 23.447
10.0302 23.589
10.0454 23.740
10.0606 23.399
10.0757 23.665
10.0909 23.978
10.1061 24.064
10.1213 23.777
10.1364 23.967
10.1516 24.067
10.1668 24.052
10.1820 24.793
10.1971 24.527
10.2123 24.288
10.2275 24.165
10.2427 24.366
10.2578 24.244
10.2730 23.993
10.2882 23.895
10.3034 23.671
10.3185 23.683
10.3337 23.631
10.3489 23.182
10.3641 22.977
10.3792 22.952
10.3944 23.011
10.4096 22.947
10.4248 22.670
10.4399 22.796
10.4551 22.806
10.4703 22.784
10.4855 22.693
10.5006 22.551
10.5158 23.000
10.5310 23.006
10.5462 22.716
10.5613 22.797
10.5765 22.648
10.5917 22.295
10.6069 22.387
10.6220 22.892
10.6372 23.018
10.6524 22.768
10.6676 22.962
10.6827 23.062
10.6979 22.748
10.7131 22.807
10.7283 22.484
10.7434 22.393
10.7586 22.342
10.7738 22.374
10.7890 22.550
10.8041 22.642
10.8193 22.627
10.8345 22.527
10.8497 22.246
10.8648 21.997
10.8800 22.102
10.8952 22.376
10.9104 22.477
10.9255 22.454
10.9407 22.519
10.9559 22.608
10.9711 22.386
10.9862 22.284
11.0014 22.079
11.0166 22.418
11.0318 22.484
11.0469 22.260
11.0621 21.907
11.0773 21.981
11.0925 21.902
11.1076 21.952
11.1228 21.939
11.1380 21.859
11.1532 21.831
11.1683 21.781
11.1835 21.694
11.1987 22.020
11.2139 22.222
11.2290 22.010
11.2442 22.113
11.2594 21.664
11.2746 21.907
11.2897 22.200
11.3049 22.327
11.3201 21.644
11.3353 21.423
11.3504 21.351
11.3656 21.732
11.3808 21.448
11.3960 21.469
11.4111 21.241
11.4263 21.432
11.4415 21.459
11.4567 21.273
11.4718 21.156
11.4870 21.410
11.5022 21.234
11.5174 21.442
11.5325 21.145
11.5477 20.715
11.5629 20.835
11.5781 21.094
11.5932 21.263
11.6084 21.033
11.6236 20.843
11.6388 20.721
11.6539 20.591
11.6691 20.646
11.6843 20.726
11.6995 20.620
11.7146 20.616
11.7298 20.419
11.7450 20.411
11.7602 20.244
11.7753 20.378
11.7905 20.128
11.8057 19.991
11.8209 19.890
11.8360 19.657
11.8512 19.845
11.8664 20.062
11.8816 19.819
11.8967 19.715
11.9119 19.454
11.9271 19.425
11.9423 19.495
11.9574 19.686
11.9726 19.221
11.9878 18.990
12.0030 19.429
12.0181 19.350
12.0333 19.257
12.0485 19.158
12.0637 19.032
12.0788 19.196
12.0940 18.886
12.1092 18.495
12.1244 18.740
12.1395 18.690
12.1547 18.304
12.1699 18.315
12.1851 18.305
12.2002 18.002
12.2154 17.765
12.2306 17.957
12.2458 17.985
12.2609 17.805
12.2761 17.516
12.2913 17.942
12.3065 17.887
12.3216 17.371
12.3368 17.753
12.3520 17.609
12.3672 17.415
12.3823 17.629
12.3975 17.342
12.4127 17.351
12.4279 17.382
12.4430 17.188
12.4582 17.113
12.4734 17.002
12.4886 17.017
12.5037 16.937
12.5189 16.724
12.5341 16.662
12.5493 16.637
12.5644 16.544
12.5796 16.281
12.5948 16.145
12.6100 16.153
12.6251 16.228
12.6403 16.174
12.6555 15.878
12.6707 15.554
12.6858 15.494
12.7010 15.617
12.7162 15.663
12.7314 15.593
12.7465 15.262
12.7617 15.322
12.7769 15.467
12.7921 15.344
12.8072 15.205
12.8224 14.898
12.8376 14.735
12.8528 14.751
12.8679 14.691
12.8831 14.949
12.8983 14.888
12.9135 14.512
12.9286 14.774
12.9438 14.761
12.9590 14.440
12.9742 14.582
12.9893 14.488
13.0045 14.389
13.0197 14.354
13.0349 14.238
13.0500 14.399
13.0652 14.441
13.0804 14.235
13.0956 13.941
13.1107 13.827
13.1259 13.744
13.1411 13.713
13.1563 13.609
13.1714 13.531
13.1866 13.645
13.2018 13.531
13.2170 13.311
13.2321 13.128
13.2473 13.321
13.2625 13.444
13.2777 13.194
13.2928 13.115
13.3080 13.102
13.3232 13.082
13.3384 13.165
13.3535 13.164
13.3687 12.983
13.3839 12.688
13.3991 12.733
13.4142 13.011
13.4294 13.053
13.4446 13.100
13.4598 12.851
13.4749 12.570
13.4901 12.655
13.5053 12.662
13.5205 12.422
13.5356 12.498
13.5508 12.456
13.5660 12.266
13.5812 12.257
13.5963 12.251
13.6115 12.164
13.6267 12.149
13.6419 12.272
13.6570 12.470
13.6722 12.284
13.6874 12.103
13.7026 11.945
13.7177 12.225
13.7329 12.206
13.7481 12.095
13.7633 12.095
13.7784 11.942
13.7936 12.019
13.8088 12.265
13.8239 12.091
13.8391 12.300
13.8543 12.281
13.8695 12.308
13.8846 12.022
13.8998 11.872
13.9150 11.919
13.9302 11.971
13.9453 11.672
13.9605 11.822
13.9757 11.676
13.9909 11.457
14.0060 11.525
14.0212 11.724
14.0364 11.815
14.0516 11.512
14.0667 11.412
14.0819 11.568
14.0971 11.463
14.1123 11.242
14.1274 11.325
14.1426 11.427
14.1578 11.364
14.1730 11.615
14.1881 11.664
14.2033 11.471
14.2185 11.672
14.2337 12.012
14.2488 11.923
14.2640 11.848
14.2792 11.711
14.2944 12.156
14.3095 12.609
14.3247 12.665
14.3399 12.746
14.3551 12.704
14.3702 12.939
14.3854 12.929
14.4006 12.973
14.4158 13.176
14.4309 13.241
14.4461 13.165
14.4613 13.333
14.4765 13.367
14.4916 13.173
14.5068 12.701
14.5220 12.789
14.5372 12.657
14.5523 12.277
14.5675 12.374
14.5827 11.945
14.5979 12.000
14.6130 11.965
14.6282 12.155
14.6434 11.888
14.6586 11.201
14.6737 11.510
14.6889 11.194
14.7041 10.900
14.7193 11.390
14.7344 11.132
14.7496 10.774
14.7648 10.803
14.7800 11.158
14.7951 10.991
14.8103 10.583
14.8255 10.872
14.8407 10.692
14.8558 10.622
14.8710 10.631
14.8862 10.677
14.9014 10.763
14.9165 10.878
14.9317 10.623
14.9469 10.616
14.9621 10.466
14.9772 10.623
14.9924 10.517
15.0076 10.780
15.0228 10.668
15.0379 10.983
15.0531 10.582
15.0683 10.479
15.0835 10.506
15.0986 10.487
15.1138 10.453
15.1290 10.579
15.1442 10.311
15.1593 10.867
15.1745 10.361
15.1897 10.718
15.2049 10.414
15.2200 10.288
15.2352 10.193
15.2504 10.282
15.2656 10.356
15.2807 10.236
15.2959 10.298
15.3111 10.435
15.3263 10.500
15.3414 10.409
15.3566 10.412
15.3718 10.473
15.3870 10.469
15.4021 10.161
15.4173 10.457
15.4325 10.786
15.4477 10.657
15.4628 10.639
15.4780 10.452
15.4932 10.416
15.5084 10.573
15.5235 10.541
15.5387 10.609
15.5539 10.554
15.5691 10.259
15.5842 10.400
15.5994 10.458
15.6146 10.313
15.6298 9.855
15.6449 10.289
15.6601 10.337
15.6753 10.329
15.6905 9.934
15.7056 9.987
15.7208 9.898
15.7360 9.932
15.7512 9.993
15.7663 9.616
15.7815 9.800
15.7967 9.789
15.8119 9.933
15.8270 10.132
15.8422 9.744
15.8574 9.787
15.8726 9.914
15.8877 9.695
15.9029 9.938
15.9181 9.630
15.9333 9.862
15.9484 10.014
15.9636 9.886
15.9788 9.725
15.9940 9.880
16.0091 9.826
16.0243 9.792
16.0395 9.673
16.0547 9.679
16.0698 9.835
16.0850 9.885
16.1002 9.572
16.1154 9.550
16.1305 9.607
16.1457 10.091
16.1609 9.842
16.1761 9.736
16.1912 9.748
16.2064 9.885
16.2216 9.857
16.2368 9.753
16.2519 9.785
16.2671 10.063
16.2823 10.041
16.2975 9.998
16.3126 10.234
16.3278 10.107
16.3430 10.054
16.3582 10.054
16.3733 10.060
16.3885 9.980
16.4037 10.115
16.4189 10.119
16.4340 10.150
16.4492 10.047
16.4644 10.157
16.4796 9.938
16.4947 9.826
16.5099 9.806
16.5251 9.854
16.5403 9.715
16.5554 9.651
16.5706 9.841
16.5858 9.831
16.6010 9.939
16.6161 9.714
16.6313 9.609
16.6465 9.667
16.6617 9.732
16.6768 9.913
16.6920 10.093
16.7072 10.145
16.7224 10.010
16.7375 10.143
16.7527 10.194
16.7679 10.113
16.7831 9.892
16.7982 9.724
16.8134 9.792
16.8286 9.923
16.8438 9.718
16.8589 9.635
16.8741 9.817
16.8893 9.899
16.9045 9.839
16.9196 9.600
16.9348 9.599
16.9500 9.885
16.9652 9.937
16.9803 9.806
16.9955 9.844
17.0107 9.827
17.0259 9.809
17.0410 9.875
17.0562 9.953
17.0714 10.380
17.0866 10.559
17.1017 10.370
17.1169 10.656
17.1321 11.099
17.1473 11.172
17.1624 11.658
17.1776 12.333
17.1928 12.963
17.2080 13.853
17.2231 14.954
17.2383 16.127
17.2535 17.315
17.2687 18.483
17.2838 18.904
17.2990 18.032
17.3142 16.891
17.3294 16.291
17.3445 16.106
17.3597 15.966
17.3749 15.575
17.3901 14.891
17.4052 14.049
17.4204 13.127
17.4356 12.288
17.4508 12.123
17.4659 11.931
17.4811 11.425
17.4963 11.480
17.5115 11.489
17.5266 11.201
17.5418 11.069
17.5570 11.192
17.5722 11.537
17.5873 11.656
17.6025 11.631
17.6177 11.449
17.6329 11.220
17.6480 11.280
17.6632 11.295
17.6784 10.972
17.6936 10.917
17.7087 11.093
17.7239 10.898
17.7391 10.661
17.7543 10.714
17.7694 10.979
17.7846 11.042
17.7998 11.249
17.8150 11.334
17.8301 11.044
17.8453 11.067
17.8605 11.315
17.8757 11.541
17.8908 11.262
17.9060 11.093
17.9212 11.006
17.9364 10.981
17.9515 10.890
17.9667 10.867
17.9819 10.637
17.9971 10.625
18.0122 10.673
18.0274 10.515
18.0426 10.601
18.0578 10.565
18.0729 10.125
18.0881 10.028
18.1033 10.068
18.1185 9.974
18.1336 9.868
18.1488 9.958
18.1640 9.912
18.1792 9.910
18.1943 9.966
18.2095 9.972
18.2247 10.193
18.2399 10.063
18.2550 10.057
18.2702 10.127
18.2854 9.909
18.3006 9.827
18.3157 9.973
18.3309 9.913
18.3461 9.798
18.3613 9.817
18.3764 9.948
18.3916 9.789
18.4068 9.669
18.4220 9.954
18.4371 9.970
18.4523 9.893
18.4675 10.129
18.4827 9.928
18.4978 9.649
18.5130 9.882
18.5282 9.737
18.5434 9.628
18.5585 9.667
18.5737 9.718
18.5889 9.999
18.6041 9.851
18.6192 9.861
18.6344 9.873
18.6496 9.899
18.6648 9.829
18.6799 9.800
18.6951 9.876
18.7103 9.970
18.7255 9.805
18.7406 9.740
18.7558 9.776
18.7710 9.895
18.7862 9.821
18.8013 9.587
18.8165 9.599
18.8317 9.823
18.8469 9.948
18.8620 10.073
18.8772 10.238
18.8924 10.093
18.9076 9.992
18.9227 10.261
18.9379 10.195
18.9531 10.119
18.9683 9.955
18.9834 9.844
18.9986 9.961
19.0138 9.937
19.0290 9.966
19.0441 10.216
19.0593 10.306
19.0745 10.386
19.0897 10.311
19.1048 10.242
19.1200 10.477
19.1352 10.761
19.1504 10.613
19.1655 10.370
19.1807 10.468
19.1959 10.383
19.2111 10.417
19.2262 10.814
19.2414 10.764
19.2566 10.471
19.2718 10.611
19.2869 10.961
19.3021 10.987
19.3173 11.014
19.3325 11.041
19.3476 11.124
19.3628 11.267
19.3780 11.028
19.3932 10.845
19.4083 11.118
19.4235 11.168
19.4387 11.140
19.4539 11.213
19.4690 11.445
19.4842 11.389
19.4994 11.351
19.5146 11.302
19.5297 11.256
19.5449 11.402
19.5601 11.365
19.5753 11.534
19.5904 11.534
19.6056 11.489
19.6208 11.712
19.6360 11.832
19.6511 11.662
19.6663 11.572
19.6815 11.910
19.6967 12.007
19.7118 11.683
19.7270 11.497
19.7422 11.640
19.7574 11.785
19.7725 11.942
19.7877 11.907
19.8029 11.903
19.8180 12.013
19.8332 11.900
19.8484 12.029
19.8636 12.283
19.8787 12.556
19.8939 12.583
19.9091 12.775
19.9243 13.148
19.9394 13.625
19.9546 14.010
19.9698 14.058
19.9850 14.087
20.0001 14.154
20.0153 14.136
20.0305 13.932
20.0457 13.874
20.0608 13.825
20.0760 13.681
20.0912 13.654
20.1064 13.725
20.1215 13.653
20.1367 13.225
20.1519 13.029
20.1671 12.823
20.1822 13.046
20.1974 13.182
20.2126 12.928
20.2278 12.912
20.2429 12.742
20.2581 12.369
20.2733 12.237
20.2885 12.179
20.3036 12.095
20.3188 12.305
20.3340 12.013
20.3492 11.710
20.3643 11.545
20.3795 11.567
20.3947 11.283
20.4099 11.173
20.4250 11.150
20.4402 11.133
20.4554 11.254
20.4706 10.919
20.4857 11.019
20.5009 11.014
20.5161 11.087
20.5313 10.831
20.5464 11.102
20.5616 10.964
20.5768 10.834
20.5920 10.985
20.6071 10.962
20.6223 10.713
20.6375 10.840
20.6527 11.009
20.6678 10.796
20.6830 10.903
20.6982 10.794
20.7134 10.732
20.7285 10.879
20.7437 10.859
20.7589 10.734
20.7741 10.715
20.7892 10.584
20.8044 10.532
20.8196 10.437
20.8348 10.519
20.8499 10.171
20.8651 10.597
20.8803 10.371
20.8955 10.199
20.9106 10.295
20.9258 10.284
20.9410 10.144
20.9562 10.325
20.9713 10.230
20.9865 9.866
21.0017 9.940
21.0169 9.854
21.0320 9.699
21.0472 10.087
21.0624 9.957
21.0776 10.004
21.0927 10.057
21.1079 10.140
21.1231 10.142
21.1383 9.949
21.1534 10.113
21.1686 9.730
21.1838 9.797
21.1990 9.840
21.2141 9.821
21.2293 9.486
21.2445 10.226
21.2597 9.733
21.2748 9.760
21.2900 9.710
21.3052 9.646
21.3204 9.597
21.3355 9.617
21.3507 9.604
21.3659 9.325
21.3811 9.661
21.3962 9.477
21.4114 9.522
21.4266 9.357
21.4418 9.261
21.4569 9.375
21.4721 9.356
21.4873 9.488
21.5025 9.555
21.5176 9.695
21.5328 9.310
21.5480 9.482
21.5632 9.275
21.5783 9.168
21.5935 9.052
21.6087 9.319
21.6239 9.125
21.6390 8.941
21.6542 9.224
21.6694 9.065
21.6846 9.025
21.6997 9.328
21.7149 9.109
21.7301 9.073
21.7453 9.110
21.7604 8.935
21.7756 8.830
21.7908 9.123
21.8060 9.244
21.8211 8.958
21.8363 8.938
21.8515 8.960
21.8667 8.858
21.8818 8.956
21.8970 8.945
21.9122 9.023
21.9274 8.910
21.9425 8.764
21.9577 8.858
21.9729 8.953
21.9881 8.957
22.0032 9.032
22.0184 8.798
22.0336 8.878
22.0488 9.123
22.0639 8.829
22.0791 8.605
22.0943 8.614
22.1095 8.803
22.1246 8.768
22.1398 8.558
22.1550 8.631
22.1702 8.528
22.1853 8.739
22.2005 8.669
22.2157 8.568
22.2309 8.866
22.2460 8.628
22.2612 8.614
22.2764 8.854
22.2916 8.594
22.3067 8.483
22.3219 8.732
22.3371 8.534
22.3523 8.444
22.3674 8.494
22.3826 8.423
22.3978 8.596
22.4130 8.481
22.4281 8.235
22.4433 8.454
22.4585 8.543
22.4737 8.094
22.4888 8.482
22.5040 8.518
22.5192 8.531
22.5344 8.550
22.5495 8.635
22.5647 8.566
22.5799 8.413
22.5951 8.523
22.6102 8.259
22.6254 8.386
22.6406 8.503
22.6558 8.365
22.6709 8.490
22.6861 8.454
22.7013 8.532
22.7165 8.150
22.7316 6.606
