'Id: "" Comment: "" Operator: "Lab Manager" Anode: "Mo" Scantype: "Still (Eiger2R_500K (1D mode))" TimePerStep: "300" X: "11.8" Y: "9.4" Z: "11.284" 
7.2532 18.567
7.2684 18.642
7.2836 19.019
7.2987 19.128
7.3139 18.928
7.3291 18.904
7.3443 18.813
7.3594 19.168
7.3746 18.965
7.3898 19.099
7.4050 19.266
7.4201 18.935
7.4353 19.096
7.4505 19.431
7.4657 19.497
7.4808 19.889
7.4960 19.645
7.5112 19.458
7.5264 19.512
7.5415 19.827
7.5567 19.607
7.5719 19.609
7.5871 19.816
7.6022 19.881
7.6174 19.909
7.6326 20.156
7.6478 20.139
7.6629 20.122
7.6781 20.199
7.6933 20.041
7.7085 20.252
7.7236 20.674
7.7388 20.580
7.7540 20.390
7.7692 20.451
7.7843 20.433
7.7995 20.191
7.8147 20.113
7.8299 20.198
7.8450 20.291
7.8602 20.125
7.8754 20.365
7.8905 20.634
7.9057 20.866
7.9209 21.102
7.9361 21.051
7.9512 20.696
7.9664 20.807
7.9816 20.637
7.9968 20.824
8.0119 21.219
8.0271 21.273
8.0423 21.117
8.0575 21.134
8.0726 21.108
8.0878 20.970
8.1030 20.898
8.1182 21.216
8.1333 21.555
8.1485 21.509
8.1637 21.417
8.1789 21.117
8.1940 21.079
8.2092 20.918
8.2244 21.183
8.2396 21.371
8.2547 21.362
8.2699 21.742
8.2851 21.829
8.3003 21.625
8.3154 21.787
8.3306 21.344
8.3458 21.408
8.3610 21.304
8.3761 21.511
8.3913 21.671
8.4065 21.843
8.4217 21.833
8.4368 21.533
8.4520 22.148
8.4672 22.121
8.4824 21.692
8.4975 22.058
8.5127 22.122
8.5279 22.140
8.5431 21.861
8.5582 21.974
8.5734 21.942
8.5886 22.471
8.6038 22.249
8.6189 22.249
8.6341 22.372
8.6493 22.583
8.6645 21.769
8.6796 22.261
8.6948 21.961
8.7100 22.801
8.7252 22.734
8.7403 22.207
8.7555 22.241
8.7707 21.782
8.7859 22.546
8.8010 22.617
8.8162 21.938
8.8314 22.146
8.8466 22.466
8.8617 22.503
8.8769 22.571
8.8921 22.355
8.9073 22.356
8.9224 22.621
8.9376 22.467
8.9528 22.633
8.9680 22.328
8.9831 22.256
8.9983 22.518
9.0135 22.504
9.0287 22.306
9.0438 22.749
9.0590 22.594
9.0742 22.693
9.0894 22.824
9.1045 22.665
9.1197 22.606
9.1349 23.191
9.1501 22.902
9.1652 22.779
9.1804 23.033
9.1956 22.932
9.2108 22.470
9.2259 22.678
9.2411 23.099
9.2563 23.093
9.2715 23.125
9.2866 23.334
9.3018 23.109
9.3170 22.824
9.3322 22.714
9.3473 22.625
9.3625 22.728
9.3777 22.878
9.3929 22.887
9.4080 22.853
9.4232 22.691
9.4384 22.681
9.4536 22.850
9.4687 22.840
9.4839 22.830
9.4991 22.882
9.5143 23.004
9.5294 23.076
9.5446 22.553
9.5598 22.854
9.5750 23.294
9.5901 23.229
9.6053 23.098
9.6205 23.280
9.6357 23.346
9.6508 23.420
9.6660 23.591
9.6812 23.561
9.6964 23.581
9.7115 23.533
9.7267 23.591
9.7419 24.008
9.7571 23.942
9.7722 23.869
9.7874 23.759
9.8026 23.551
9.8178 23.638
9.8329 23.476
9.8481 22.948
9.8633 23.128
9.8785 23.119
9.8936 22.779
9.9088 22.924
9.9240 23.228
9.9392 23.431
9.9543 23.212
9.9695 23.207
9.9847 23.024
9.9999 22.860
10.0150 23.160
10.0302 23.274
10.0454 23.296
10.0606 23.294
10.0757 23.148
10.0909 22.899
10.1061 23.102
10.1213 23.402
10.1364 23.442
10.1516 23.307
10.1668 23.317
10.1820 23.239
10.1971 23.115
10.2123 23.123
10.2275 23.130
10.2427 22.578
10.2578 22.201
10.2730 22.447
10.2882 22.491
10.3034 22.553
10.3185 22.590
10.3337 22.940
10.3489 22.942
10.3641 22.535
10.3792 22.241
10.3944 22.303
10.4096 22.266
10.4248 22.588
10.4399 22.564
10.4551 22.688
10.4703 22.772
10.4855 22.495
10.5006 22.112
10.5158 22.284
10.5310 22.292
10.5462 22.252
10.5613 22.249
10.5765 22.658
10.5917 22.868
10.6069 22.841
10.6220 22.540
10.6372 22.567
10.6524 22.561
10.6676 22.449
10.6827 22.543
10.6979 22.413
10.7131 22.362
10.7283 22.211
10.7434 22.056
10.7586 21.958
10.7738 22.277
10.7890 22.448
10.8041 22.509
10.8193 22.455
10.8345 22.420
10.8497 22.314
10.8648 22.362
10.8800 22.319
10.8952 22.270
10.9104 22.071
10.9255 21.867
10.9407 21.637
10.9559 21.812
10.9711 21.743
10.9862 21.992
11.0014 22.078
11.0166 22.071
11.0318 21.863
11.0469 21.667
11.0621 21.698
11.0773 21.711
11.0925 21.448
11.1076 21.683
11.1228 21.549
11.1380 21.581
11.1532 21.596
11.1683 21.538
11.1835 21.637
11.1987 21.470
11.2139 21.689
11.2290 21.581
11.2442 21.907
11.2594 21.482
11.2746 21.318
11.2897 21.380
11.3049 21.596
11.3201 21.346
11.3353 21.164
11.3504 21.372
11.3656 21.482
11.3808 21.480
11.3960 21.353
11.4111 21.536
11.4263 21.194
11.4415 20.934
11.4567 21.190
11.4718 21.036
11.4870 21.067
11.5022 21.194
11.5174 21.179
11.5325 21.156
11.5477 20.774
11.5629 20.941
11.5781 21.023
11.5932 20.769
11.6084 20.839
11.6236 20.917
11.6388 20.835
11.6539 20.828
11.6691 20.773
11.6843 20.514
11.6995 20.512
11.7146 20.589
11.7298 20.718
11.7450 20.403
11.7602 20.122
11.7753 20.100
11.7905 20.165
11.8057 20.413
11.8209 20.081
11.8360 19.738
11.8512 19.998
11.8664 19.892
11.8816 19.669
11.8967 19.345
11.9119 19.253
11.9271 19.483
11.9423 19.593
11.9574 19.524
11.9726 19.275
11.9878 19.269
12.0030 19.146
12.0181 19.293
12.0333 19.183
12.0485 18.822
12.0637 18.861
12.0788 18.759
12.0940 18.953
12.1092 18.700
12.1244 18.671
12.1395 18.853
12.1547 18.740
12.1699 18.261
12.1851 17.964
12.2002 18.330
12.2154 18.217
12.2306 17.747
12.2458 17.754
12.2609 17.671
12.2761 17.585
12.2913 17.728
12.3065 17.833
12.3216 17.818
12.3368 17.736
12.3520 17.693
12.3672 17.578
12.3823 17.487
12.3975 17.215
12.4127 17.037
12.4279 16.942
12.4430 16.866
12.4582 16.976
12.4734 16.934
12.4886 16.707
12.5037 16.555
12.5189 16.677
12.5341 16.435
12.5493 16.282
12.5644 16.388
12.5796 16.394
12.5948 16.296
12.6100 16.128
12.6251 15.753
12.6403 15.940
12.6555 16.034
12.6707 15.899
12.6858 15.901
12.7010 15.874
12.7162 15.733
12.7314 15.378
12.7465 15.475
12.7617 15.390
12.7769 15.352
12.7921 15.320
12.8072 15.289
12.8224 15.314
12.8376 14.928
12.8528 14.792
12.8679 14.983
12.8831 15.062
12.8983 14.851
12.9135 14.929
12.9286 14.965
12.9438 14.588
12.9590 14.327
12.9742 14.220
12.9893 14.382
13.0045 14.302
13.0197 14.278
13.0349 14.391
13.0500 14.268
13.0652 14.173
13.0804 14.074
13.0956 14.170
13.1107 14.117
13.1259 13.759
13.1411 13.726
13.1563 13.697
13.1714 13.483
13.1866 13.327
13.2018 13.292
13.2170 13.537
13.2321 13.570
13.2473 13.303
13.2625 13.096
13.2777 13.108
13.2928 13.267
13.3080 13.002
13.3232 12.802
13.3384 13.117
13.3535 13.055
13.3687 12.888
13.3839 13.004
13.3991 12.951
13.4142 12.738
13.4294 12.743
13.4446 12.664
13.4598 12.584
13.4749 12.978
13.4901 12.820
13.5053 12.804
13.5205 12.722
13.5356 12.443
13.5508 12.518
13.5660 12.477
13.5812 12.467
13.5963 12.310
13.6115 12.322
13.6267 12.403
13.6419 12.480
13.6570 12.352
13.6722 12.070
13.6874 11.892
13.7026 11.868
13.7177 11.970
13.7329 12.220
13.7481 12.547
13.7633 12.216
13.7784 12.111
13.7936 12.225
13.8088 12.346
13.8239 12.750
13.8391 12.459
13.8543 12.512
13.8695 12.552
13.8846 12.217
13.8998 12.296
13.9150 12.302
13.9302 12.201
13.9453 12.106
13.9605 11.877
13.9757 12.012
13.9909 11.760
14.0060 11.521
14.0212 11.481
14.0364 11.734
14.0516 11.404
14.0667 11.728
14.0819 11.791
14.0971 11.571
14.1123 11.593
14.1274 11.809
14.1426 11.658
14.1578 11.633
14.1730 11.668
14.1881 11.693
14.2033 11.958
14.2185 12.202
14.2337 12.059
14.2488 12.014
14.2640 12.092
14.2792 12.090
14.2944 12.183
14.3095 12.181
14.3247 12.422
14.3399 12.321
14.3551 12.614
14.3702 12.283
14.3854 12.924
14.4006 12.856
14.4158 13.102
14.4309 12.888
14.4461 12.696
14.4613 12.631
14.4765 12.459
14.4916 12.369
14.5068 11.852
14.5220 11.623
14.5372 11.618
14.5523 11.543
14.5675 11.189
14.5827 10.643
14.5979 11.054
14.6130 10.615
14.6282 10.769
14.6434 10.449
14.6586 10.692
14.6737 10.708
14.6889 10.445
14.7041 10.740
14.7193 10.640
14.7344 10.519
14.7496 10.703
14.7648 10.895
14.7800 10.437
14.7951 10.559
14.8103 10.454
14.8255 10.360
14.8407 10.663
14.8558 10.694
14.8710 10.577
14.8862 10.686
14.9014 10.490
14.9165 10.778
14.9317 10.821
14.9469 10.541
14.9621 10.515
14.9772 10.038
14.9924 10.211
15.0076 9.911
15.0228 10.137
15.0379 10.465
15.0531 10.491
15.0683 9.911
15.0835 10.406
15.0986 10.234
15.1138 9.876
15.1290 10.377
15.1442 10.327
15.1593 10.123
15.1745 9.968
15.1897 10.271
15.2049 9.978
15.2200 9.837
15.2352 10.367
15.2504 10.307
15.2656 10.326
15.2807 10.195
15.2959 10.238
15.3111 9.884
15.3263 10.336
15.3414 10.235
15.3566 9.989
15.3718 9.968
15.3870 10.088
15.4021 10.215
15.4173 10.128
15.4325 10.139
15.4477 10.510
15.4628 10.091
15.4780 9.750
15.4932 10.203
15.5084 10.261
15.5235 10.075
15.5387 10.044
15.5539 9.910
15.5691 9.912
15.5842 10.087
15.5994 9.901
15.6146 9.726
15.6298 10.011
15.6449 9.746
15.6601 9.790
15.6753 9.869
15.6905 9.524
15.7056 9.574
15.7208 9.741
15.7360 10.006
15.7512 9.568
15.7663 9.789
15.7815 9.853
15.7967 9.904
15.8119 9.538
15.8270 9.676
15.8422 9.740
15.8574 9.688
15.8726 9.293
15.8877 9.401
15.9029 9.677
15.9181 9.475
15.9333 9.593
15.9484 9.751
15.9636 9.549
15.9788 9.682
15.9940 9.725
16.0091 9.705
16.0243 9.336
16.0395 9.342
16.0547 9.482
16.0698 9.599
16.0850 9.599
16.1002 9.483
16.1154 9.635
16.1305 9.774
16.1457 9.430
16.1609 9.699
16.1761 9.669
16.1912 9.757
16.2064 9.525
16.2216 9.736
16.2368 9.539
16.2519 9.510
16.2671 9.816
16.2823 9.950
16.2975 9.902
16.3126 9.862
16.3278 9.542
16.3430 9.701
16.3582 9.935
16.3733 9.802
16.3885 9.871
16.4037 10.061
16.4189 9.866
16.4340 9.941
16.4492 9.898
16.4644 9.729
16.4796 9.755
16.4947 9.688
16.5099 9.688
16.5251 9.756
16.5403 9.762
16.5554 9.759
16.5706 9.542
16.5858 9.564
16.6010 9.968
16.6161 9.640
16.6313 9.608
16.6465 9.659
16.6617 9.615
16.6768 10.078
16.6920 9.975
16.7072 9.928
16.7224 9.929
16.7375 9.949
16.7527 9.885
16.7679 9.488
16.7831 9.717
16.7982 9.956
16.8134 9.878
16.8286 9.734
16.8438 9.748
16.8589 9.853
16.8741 9.696
16.8893 9.680
16.9045 9.627
16.9196 9.773
16.9348 9.754
16.9500 9.727
16.9652 9.768
16.9803 9.700
16.9955 9.689
17.0107 9.767
17.0259 9.817
17.0410 9.986
17.0562 10.311
17.0714 10.343
17.0866 10.231
17.1017 10.566
17.1169 10.658
17.1321 10.689
17.1473 11.051
17.1624 11.414
17.1776 12.002
17.1928 13.035
17.2080 14.113
17.2231 15.181
17.2383 16.335
17.2535 17.467
17.2687 18.362
17.2838 18.530
17.2990 17.968
17.3142 17.071
17.3294 16.290
17.3445 16.034
17.3597 16.003
17.3749 15.777
17.3901 15.299
17.4052 14.425
17.4204 13.507
17.4356 12.809
17.4508 12.145
17.4659 11.724
17.4811 11.651
17.4963 11.382
17.5115 11.242
17.5266 11.157
17.5418 10.994
17.5570 11.154
17.5722 10.995
17.5873 10.915
17.6025 10.979
17.6177 11.046
17.6329 11.199
17.6480 11.162
17.6632 11.211
17.6784 11.345
17.6936 11.556
17.7087 11.793
17.7239 11.477
17.7391 10.935
17.7543 10.910
17.7694 11.064
17.7846 11.010
17.7998 10.957
17.8150 10.917
17.8301 10.600
17.8453 10.293
17.8605 10.246
17.8757 10.329
17.8908 10.310
17.9060 10.216
17.9212 10.211
17.9364 10.231
17.9515 10.144
17.9667 10.170
17.9819 10.232
17.9971 10.198
18.0122 9.997
18.0274 9.941
18.0426 10.112
18.0578 10.271
18.0729 10.247
18.0881 10.205
18.1033 10.038
18.1185 9.934
18.1336 9.884
18.1488 9.897
18.1640 9.875
18.1792 9.996
18.1943 10.123
18.2095 9.940
18.2247 9.813
18.2399 9.962
18.2550 9.860
18.2702 9.807
18.2854 9.881
18.3006 9.852
18.3157 9.761
18.3309 9.809
18.3461 9.813
18.3613 9.799
18.3764 9.631
18.3916 9.540
18.4068 9.749
18.4220 9.914
18.4371 9.794
18.4523 9.734
18.4675 9.778
18.4827 9.804
18.4978 9.842
18.5130 9.853
18.5282 9.818
18.5434 9.841
18.5585 9.752
18.5737 9.764
18.5889 9.769
18.6041 9.795
18.6192 9.681
18.6344 9.670
18.6496 9.785
18.6648 9.751
18.6799 9.813
18.6951 9.979
18.7103 10.168
18.7255 9.997
18.7406 9.805
18.7558 9.845
18.7710 10.032
18.7862 10.062
18.8013 9.551
18.8165 9.475
18.8317 9.720
18.8469 9.612
18.8620 9.947
18.8772 9.934
18.8924 9.795
18.9076 9.729
18.9227 9.797
18.9379 10.026
18.9531 10.052
18.9683 10.086
18.9834 10.125
18.9986 10.175
19.0138 10.220
19.0290 10.061
19.0441 10.076
19.0593 10.050
19.0745 10.144
19.0897 10.218
19.1048 10.229
19.1200 10.409
19.1352 10.382
19.1504 10.239
19.1655 10.197
19.1807 10.606
19.1959 10.644
19.2111 10.614
19.2262 10.819
19.2414 10.704
19.2566 10.733
19.2718 10.815
19.2869 10.917
19.3021 10.933
19.3173 11.031
19.3325 10.943
19.3476 11.023
19.3628 11.181
19.3780 10.967
19.3932 11.038
19.4083 11.255
19.4235 11.300
19.4387 11.129
19.4539 11.137
19.4690 11.089
19.4842 11.011
19.4994 11.373
19.5146 11.508
19.5297 11.563
19.5449 11.664
19.5601 11.552
19.5753 11.641
19.5904 11.622
19.6056 11.627
19.6208 11.714
19.6360 11.725
19.6511 11.504
19.6663 11.422
19.6815 11.493
19.6967 11.759
19.7118 11.831
19.7270 11.687
19.7422 11.620
19.7574 11.656
19.7725 11.837
19.7877 12.083
19.8029 12.171
19.8180 11.980
19.8332 11.980
19.8484 12.097
19.8636 12.319
19.8787 12.573
19.8939 12.791
19.9091 13.054
19.9243 13.410
19.9394 13.712
19.9546 13.922
19.9698 14.375
19.9850 14.457
20.0001 14.132
20.0153 14.071
20.0305 13.968
20.0457 13.951
20.0608 13.859
20.0760 13.591
20.0912 13.714
20.1064 13.809
20.1215 13.771
20.1367 13.423
20.1519 12.994
20.1671 12.747
20.1822 12.618
20.1974 12.600
20.2126 12.665
20.2278 12.697
20.2429 12.573
20.2581 12.300
20.2733 12.042
20.2885 11.823
20.3036 11.672
20.3188 11.710
20.3340 11.622
20.3492 12.023
20.3643 12.038
20.3795 11.574
20.3947 11.733
20.4099 11.881
20.4250 11.812
20.4402 12.174
20.4554 12.098
20.4706 11.891
20.4857 11.729
20.5009 11.460
20.5161 11.508
20.5313 11.425
20.5464 11.490
20.5616 11.438
20.5768 11.478
20.5920 10.993
20.6071 10.765
20.6223 10.994
20.6375 11.192
20.6527 10.903
20.6678 10.688
20.6830 10.906
20.6982 10.511
20.7134 10.507
20.7285 10.432
20.7437 10.645
20.7589 10.836
20.7741 10.633
20.7892 10.218
20.8044 10.227
20.8196 10.113
20.8348 10.174
20.8499 10.279
20.8651 10.345
20.8803 10.366
20.8955 10.334
20.9106 10.003
20.9258 10.189
20.9410 9.976
20.9562 10.067
20.9713 9.881
20.9865 10.080
21.0017 9.998
21.0169 9.936
21.0320 9.931
21.0472 9.726
21.0624 10.120
21.0776 9.862
21.0927 9.764
21.1079 9.992
21.1231 9.693
21.1383 9.709
21.1534 9.875
21.1686 9.718
21.1838 9.206
21.1990 9.655
21.2141 9.561
21.2293 9.904
21.2445 9.506
21.2597 9.607
21.2748 9.828
21.2900 9.669
21.3052 9.780
21.3204 9.466
21.3355 9.671
21.3507 9.460
21.3659 9.490
21.3811 9.405
21.3962 9.411
21.4114 9.277
21.4266 9.450
21.4418 9.558
21.4569 9.234
21.4721 9.342
21.4873 9.409
21.5025 9.415
21.5176 9.649
21.5328 9.335
21.5480 9.302
21.5632 9.334
21.5783 9.377
21.5935 9.247
21.6087 9.110
21.6239 9.383
21.6390 9.190
21.6542 9.364
21.6694 9.241
21.6846 9.020
21.6997 9.038
21.7149 9.346
21.7301 9.113
21.7453 9.064
21.7604 9.074
21.7756 9.170
21.7908 9.039
21.8060 9.157
21.8211 8.951
21.8363 9.029
21.8515 9.098
21.8667 9.079
21.8818 9.079
21.8970 9.109
21.9122 8.911
21.9274 8.794
21.9425 8.829
21.9577 8.880
21.9729 8.966
21.9881 8.965
22.0032 9.081
22.0184 8.834
22.0336 8.522
22.0488 8.771
22.0639 8.876
22.0791 8.894
22.0943 8.675
22.1095 8.477
22.1246 8.765
22.1398 8.850
22.1550 8.677
22.1702 8.536
22.1853 8.569
22.2005 8.603
22.2157 8.588
22.2309 8.632
22.2460 8.533
22.2612 8.452
22.2764 8.561
22.2916 8.539
22.3067 8.528
22.3219 8.679
22.3371 8.407
22.3523 8.522
22.3674 8.455
22.3826 8.490
22.3978 8.329
22.4130 8.416
22.4281 8.388
22.4433 8.362
22.4585 8.371
22.4737 8.544
22.4888 8.266
22.5040 8.495
22.5192 8.310
22.5344 8.469
22.5495 8.282
22.5647 8.388
22.5799 8.724
22.5951 8.371
22.6102 8.490
22.6254 8.121
22.6406 8.538
22.6558 8.374
22.6709 8.183
22.6861 8.583
22.7013 8.268
22.7165 8.039
22.7316 6.490
