'Id: "" Comment: "" Operator: "Lab Manager" Anode: "Mo" Scantype: "Still (Eiger2R_500K (1D mode))" TimePerStep: "300" X: "11.8" Y: "9.4" Z: "11.284" 
7.2532 19.335
7.2684 18.842
7.2836 19.141
7.2987 19.071
7.3139 19.400
7.3291 19.474
7.3443 19.264
7.3594 19.438
7.3746 19.556
7.3898 19.549
7.4050 19.598
7.4201 19.396
7.4353 19.284
7.4505 19.647
7.4657 20.009
7.4808 20.044
7.4960 19.745
7.5112 20.000
7.5264 19.876
7.5415 19.536
7.5567 19.553
7.5719 19.930
7.5871 20.088
7.6022 20.104
7.6174 19.621
7.6326 19.810
7.6478 20.201
7.6629 20.326
7.6781 19.868
7.6933 20.242
7.7085 20.519
7.7236 20.301
7.7388 20.574
7.7540 20.695
7.7692 20.815
7.7843 20.677
7.7995 20.398
7.8147 20.319
7.8299 20.518
7.8450 20.635
7.8602 20.632
7.8754 20.699
7.8905 21.057
7.9057 21.108
7.9209 20.645
7.9361 20.912
7.9512 21.117
7.9664 21.140
7.9816 21.094
7.9968 20.826
8.0119 21.041
8.0271 21.155
8.0423 21.361
8.0575 21.708
8.0726 21.471
8.0878 21.463
8.1030 21.584
8.1182 21.791
8.1333 21.211
8.1485 21.385
8.1637 21.685
8.1789 21.472
8.1940 21.527
8.2092 21.445
8.2244 21.570
8.2396 22.046
8.2547 21.978
8.2699 21.806
8.2851 21.434
8.3003 21.830
8.3154 21.634
8.3306 21.738
8.3458 21.340
8.3610 21.599
8.3761 21.839
8.3913 21.746
8.4065 21.747
8.4217 21.866
8.4368 22.367
8.4520 22.199
8.4672 22.388
8.4824 22.066
8.4975 22.189
8.5127 22.176
8.5279 22.160
8.5431 22.101
8.5582 22.170
8.5734 22.419
8.5886 22.447
8.6038 22.299
8.6189 22.595
8.6341 22.284
8.6493 22.022
8.6645 22.372
8.6796 21.874
8.6948 22.567
8.7100 22.302
8.7252 22.595
8.7403 22.734
8.7555 22.528
8.7707 22.528
8.7859 22.120
8.8010 22.446
8.8162 22.427
8.8314 22.231
8.8466 23.031
8.8617 22.472
8.8769 22.674
8.8921 22.385
8.9073 22.660
8.9224 22.654
8.9376 22.335
8.9528 22.505
8.9680 22.862
8.9831 22.701
8.9983 22.629
9.0135 22.999
9.0287 22.670
9.0438 22.692
9.0590 23.064
9.0742 22.806
9.0894 22.204
9.1045 22.942
9.1197 22.912
9.1349 23.124
9.1501 22.852
9.1652 22.937
9.1804 23.155
9.1956 22.935
9.2108 22.984
9.2259 23.097
9.2411 22.743
9.2563 22.950
9.2715 23.059
9.2866 23.120
9.3018 22.681
9.3170 22.584
9.3322 22.931
9.3473 23.437
9.3625 22.817
9.3777 22.891
9.3929 23.177
9.4080 22.936
9.4232 22.869
9.4384 23.365
9.4536 23.448
9.4687 23.222
9.4839 23.328
9.4991 23.321
9.5143 23.368
9.5294 23.224
9.5446 23.072
9.5598 23.269
9.5750 23.326
9.5901 23.289
9.6053 23.307
9.6205 23.508
9.6357 23.757
9.6508 23.587
9.6660 23.445
9.6812 23.747
9.6964 24.112
9.7115 23.976
9.7267 23.795
9.7419 24.051
9.7571 24.107
9.7722 23.842
9.7874 23.998
9.8026 24.140
9.8178 23.819
9.8329 23.917
9.8481 23.824
9.8633 23.411
9.8785 23.442
9.8936 23.783
9.9088 24.022
9.9240 24.165
9.9392 24.223
9.9543 24.018
9.9695 23.537
9.9847 23.667
9.9999 23.698
10.0150 23.523
10.0302 23.323
10.0454 23.271
10.0606 23.184
10.0757 23.105
10.0909 23.080
10.1061 23.149
10.1213 23.236
10.1364 23.114
10.1516 22.938
10.1668 23.053
10.1820 23.216
10.1971 23.233
10.2123 23.084
10.2275 23.209
10.2427 22.799
10.2578 22.908
10.2730 23.346
10.2882 23.293
10.3034 23.247
10.3185 22.910
10.3337 23.132
10.3489 23.266
10.3641 23.110
10.3792 23.161
10.3944 23.178
10.4096 23.099
10.4248 23.035
10.4399 22.609
10.4551 22.516
10.4703 22.816
10.4855 22.872
10.5006 22.776
10.5158 22.614
10.5310 22.631
10.5462 22.699
10.5613 22.834
10.5765 22.669
10.5917 22.404
10.6069 22.500
10.6220 22.575
10.6372 22.424
10.6524 22.396
10.6676 22.606
10.6827 22.673
10.6979 22.503
10.7131 22.277
10.7283 22.224
10.7434 22.480
10.7586 22.601
10.7738 22.456
10.7890 22.493
10.8041 22.528
10.8193 22.146
10.8345 22.237
10.8497 22.290
10.8648 22.385
10.8800 22.617
10.8952 21.878
10.9104 22.064
10.9255 22.058
10.9407 21.777
10.9559 22.048
10.9711 21.961
10.9862 22.361
11.0014 22.641
11.0166 22.152
11.0318 22.183
11.0469 22.051
11.0621 21.874
11.0773 21.873
11.0925 21.988
11.1076 21.755
11.1228 21.553
11.1380 21.564
11.1532 21.827
11.1683 21.820
11.1835 22.072
11.1987 22.162
11.2139 21.825
11.2290 21.727
11.2442 21.240
11.2594 21.035
11.2746 21.319
11.2897 21.539
11.3049 21.748
11.3201 21.684
11.3353 21.434
11.3504 21.224
11.3656 21.393
11.3808 21.574
11.3960 21.656
11.4111 21.879
11.4263 21.471
11.4415 21.105
11.4567 21.031
11.4718 21.264
11.4870 21.110
11.5022 21.261
11.5174 21.268
11.5325 21.189
11.5477 21.200
11.5629 21.277
11.5781 21.321
11.5932 21.573
11.6084 21.064
11.6236 20.967
11.6388 21.118
11.6539 20.859
11.6691 20.895
11.6843 20.570
11.6995 20.829
11.7146 20.621
11.7298 20.506
11.7450 20.720
11.7602 20.413
11.7753 20.090
11.7905 20.329
11.8057 20.535
11.8209 20.057
11.8360 19.862
11.8512 19.798
11.8664 19.899
11.8816 19.928
11.8967 19.756
11.9119 19.499
11.9271 19.637
11.9423 19.659
11.9574 19.350
11.9726 19.413
11.9878 19.620
12.0030 19.657
12.0181 19.326
12.0333 19.279
12.0485 18.917
12.0637 18.966
12.0788 19.047
12.0940 18.718
12.1092 18.836
12.1244 18.894
12.1395 18.835
12.1547 18.791
12.1699 18.719
12.1851 18.293
12.2002 18.014
12.2154 18.319
12.2306 18.150
12.2458 18.096
12.2609 18.227
12.2761 17.835
12.2913 17.800
12.3065 17.733
12.3216 17.577
12.3368 17.720
12.3520 17.637
12.3672 17.630
12.3823 17.448
12.3975 17.345
12.4127 17.090
12.4279 16.995
12.4430 16.758
12.4582 17.098
12.4734 16.982
12.4886 16.781
12.5037 16.654
12.5189 16.525
12.5341 16.456
12.5493 16.731
12.5644 16.573
12.5796 16.279
12.5948 16.155
12.6100 16.093
12.6251 16.132
12.6403 16.179
12.6555 15.892
12.6707 15.760
12.6858 15.975
12.7010 15.651
12.7162 15.572
12.7314 15.442
12.7465 15.389
12.7617 15.284
12.7769 15.133
12.7921 14.987
12.8072 15.183
12.8224 15.256
12.8376 15.113
12.8528 15.065
12.8679 15.130
12.8831 14.796
12.8983 14.534
12.9135 14.659
12.9286 14.841
12.9438 14.840
12.9590 14.642
12.9742 14.517
12.9893 14.503
13.0045 14.454
13.0197 14.116
13.0349 13.913
13.0500 13.985
13.0652 13.964
13.0804 13.950
13.0956 13.947
13.1107 13.876
13.1259 13.889
13.1411 13.792
13.1563 13.425
13.1714 13.618
13.1866 13.945
13.2018 13.736
13.2170 13.493
13.2321 13.530
13.2473 13.548
13.2625 13.436
13.2777 13.482
13.2928 13.396
13.3080 13.378
13.3232 13.433
13.3384 13.522
13.3535 13.379
13.3687 13.107
13.3839 13.242
13.3991 13.213
13.4142 12.831
13.4294 12.746
13.4446 12.764
13.4598 12.867
13.4749 13.080
13.4901 12.858
13.5053 12.854
13.5205 12.783
13.5356 12.634
13.5508 12.616
13.5660 12.461
13.5812 12.233
13.5963 12.248
13.6115 12.270
13.6267 12.416
13.6419 12.159
13.6570 11.939
13.6722 12.120
13.6874 12.086
13.7026 12.060
13.7177 11.853
13.7329 11.932
13.7481 12.014
13.7633 12.002
13.7784 11.994
13.7936 11.896
13.8088 11.974
13.8239 12.506
13.8391 12.432
13.8543 12.267
13.8695 12.202
13.8846 12.185
13.8998 12.255
13.9150 12.532
13.9302 12.394
13.9453 12.060
13.9605 12.005
13.9757 12.042
13.9909 11.586
14.0060 11.527
14.0212 11.424
14.0364 11.678
14.0516 11.716
14.0667 11.466
14.0819 11.333
14.0971 11.421
14.1123 11.413
14.1274 11.412
14.1426 11.300
14.1578 11.249
14.1730 11.462
14.1881 11.440
14.2033 11.275
14.2185 11.116
14.2337 11.322
14.2488 11.166
14.2640 11.430
14.2792 11.473
14.2944 11.555
14.3095 11.508
14.3247 11.631
14.3399 11.895
14.3551 12.224
14.3702 12.333
14.3854 12.355
14.4006 12.780
14.4158 12.605
14.4309 12.577
14.4461 12.536
14.4613 12.449
14.4765 12.523
14.4916 12.146
14.5068 12.070
14.5220 11.984
14.5372 11.819
14.5523 11.611
14.5675 11.396
14.5827 11.334
14.5979 11.445
14.6130 11.298
14.6282 11.447
14.6434 11.183
14.6586 10.909
14.6737 10.948
14.6889 10.899
14.7041 11.091
14.7193 11.461
14.7344 10.835
14.7496 11.090
14.7648 11.094
14.7800 11.010
14.7951 10.965
14.8103 11.013
14.8255 10.832
14.8407 10.980
14.8558 11.009
14.8710 11.349
14.8862 10.732
14.9014 10.756
14.9165 10.942
14.9317 11.152
14.9469 10.719
14.9621 10.467
14.9772 10.545
14.9924 10.502
15.0076 10.228
15.0228 10.677
15.0379 10.621
15.0531 10.661
15.0683 10.510
15.0835 10.463
15.0986 10.634
15.1138 10.480
15.1290 10.853
15.1442 10.413
15.1593 10.547
15.1745 10.412
15.1897 10.313
15.2049 10.395
15.2200 10.305
15.2352 10.784
15.2504 10.369
15.2656 10.294
15.2807 10.148
15.2959 10.212
15.3111 10.462
15.3263 10.096
15.3414 10.289
15.3566 10.354
15.3718 10.026
15.3870 10.164
15.4021 10.429
15.4173 10.102
15.4325 10.485
15.4477 10.022
15.4628 9.965
15.4780 10.636
15.4932 10.433
15.5084 10.426
15.5235 10.445
15.5387 10.637
15.5539 10.120
15.5691 10.353
15.5842 10.042
15.5994 9.860
15.6146 10.024
15.6298 10.088
15.6449 10.086
15.6601 10.358
15.6753 10.325
15.6905 10.037
15.7056 9.965
15.7208 10.012
15.7360 9.868
15.7512 9.987
15.7663 10.025
15.7815 9.908
15.7967 9.873
15.8119 10.062
15.8270 10.014
15.8422 10.054
15.8574 9.703
15.8726 9.767
15.8877 9.693
15.9029 9.744
15.9181 9.992
15.9333 9.848
15.9484 9.805
15.9636 9.589
15.9788 9.515
15.9940 9.793
16.0091 10.010
16.0243 9.798
16.0395 9.891
16.0547 9.749
16.0698 9.855
16.0850 9.897
16.1002 9.802
16.1154 9.782
16.1305 9.561
16.1457 9.597
16.1609 9.802
16.1761 9.802
16.1912 9.592
16.2064 9.794
16.2216 9.669
16.2368 9.980
16.2519 10.122
16.2671 10.024
16.2823 10.140
16.2975 10.112
16.3126 9.817
16.3278 9.726
16.3430 9.953
16.3582 9.830
16.3733 10.075
16.3885 9.876
16.4037 10.102
16.4189 10.039
16.4340 9.652
16.4492 9.969
16.4644 9.801
16.4796 9.787
16.4947 9.958
16.5099 9.925
16.5251 9.891
16.5403 9.918
16.5554 9.969
16.5706 9.937
16.5858 9.873
16.6010 9.864
16.6161 10.067
16.6313 10.136
16.6465 10.069
16.6617 9.928
16.6768 9.911
16.6920 10.100
16.7072 10.148
16.7224 10.199
16.7375 10.404
16.7527 10.127
16.7679 10.063
16.7831 10.154
16.7982 10.117
16.8134 10.164
16.8286 9.942
16.8438 9.805
16.8589 10.142
16.8741 10.030
16.8893 9.984
16.9045 10.186
16.9196 10.039
16.9348 9.839
16.9500 9.969
16.9652 9.987
16.9803 9.868
16.9955 9.943
17.0107 10.018
17.0259 10.267
17.0410 10.356
17.0562 10.359
17.0714 10.495
17.0866 10.695
17.1017 10.815
17.1169 10.845
17.1321 11.107
17.1473 11.461
17.1624 11.961
17.1776 12.545
17.1928 13.217
17.2080 14.259
17.2231 15.327
17.2383 16.325
17.2535 17.613
17.2687 18.689
17.2838 18.717
17.2990 18.063
17.3142 17.118
17.3294 16.244
17.3445 16.132
17.3597 16.086
17.3749 16.077
17.3901 15.536
17.4052 14.200
17.4204 13.121
17.4356 12.225
17.4508 11.925
17.4659 11.739
17.4811 11.656
17.4963 11.389
17.5115 10.783
17.5266 10.765
17.5418 10.573
17.5570 10.357
17.5722 10.429
17.5873 10.435
17.6025 10.381
17.6177 10.307
17.6329 10.195
17.6480 10.132
17.6632 10.347
17.6784 10.268
17.6936 10.051
17.7087 10.285
17.7239 10.290
17.7391 10.126
17.7543 10.243
17.7694 10.490
17.7846 10.298
17.7998 10.411
17.8150 10.944
17.8301 10.891
17.8453 10.817
17.8605 10.945
17.8757 10.964
17.8908 11.184
17.9060 11.025
17.9212 11.015
17.9364 10.826
17.9515 10.508
17.9667 10.475
17.9819 10.608
17.9971 10.670
18.0122 10.529
18.0274 10.401
18.0426 10.252
18.0578 10.227
18.0729 10.329
18.0881 10.453
18.1033 10.166
18.1185 10.108
18.1336 10.309
18.1488 10.373
18.1640 10.208
18.1792 10.078
18.1943 10.102
18.2095 9.999
18.2247 9.912
18.2399 10.010
18.2550 9.973
18.2702 9.736
18.2854 9.943
18.3006 10.087
18.3157 10.003
18.3309 9.987
18.3461 9.753
18.3613 9.618
18.3764 10.022
18.3916 10.027
18.4068 9.810
18.4220 9.877
18.4371 9.933
18.4523 9.886
18.4675 9.773
18.4827 9.899
18.4978 9.919
18.5130 9.741
18.5282 9.826
18.5434 9.796
18.5585 9.901
18.5737 9.662
18.5889 9.641
18.6041 9.871
18.6192 10.022
18.6344 9.978
18.6496 10.075
18.6648 10.063
18.6799 10.080
18.6951 9.856
18.7103 9.589
18.7255 9.654
18.7406 9.684
18.7558 9.717
18.7710 9.708
18.7862 9.852
18.8013 9.957
18.8165 9.830
18.8317 10.069
18.8469 10.120
18.8620 9.975
18.8772 10.227
18.8924 10.252
18.9076 10.000
18.9227 10.194
18.9379 10.113
18.9531 9.889
18.9683 9.948
18.9834 10.271
18.9986 10.359
19.0138 10.030
19.0290 10.092
19.0441 10.188
19.0593 10.292
19.0745 10.263
19.0897 10.288
19.1048 10.227
19.1200 10.190
19.1352 10.387
19.1504 10.521
19.1655 10.529
19.1807 10.461
19.1959 10.470
19.2111 10.770
19.2262 11.101
19.2414 10.959
19.2566 10.922
19.2718 11.081
19.2869 10.989
19.3021 10.789
19.3173 10.960
19.3325 11.063
19.3476 11.166
19.3628 11.183
19.3780 11.272
19.3932 11.218
19.4083 11.262
19.4235 11.193
19.4387 11.148
19.4539 11.311
19.4690 11.320
19.4842 11.385
19.4994 11.434
19.5146 11.433
19.5297 11.614
19.5449 11.705
19.5601 11.560
19.5753 11.580
19.5904 11.510
19.6056 11.495
19.6208 11.456
19.6360 11.779
19.6511 12.035
19.6663 11.912
19.6815 11.783
19.6967 11.748
19.7118 11.688
19.7270 11.602
19.7422 11.710
19.7574 11.736
19.7725 11.761
19.7877 11.959
19.8029 11.936
19.8180 11.976
19.8332 12.022
19.8484 12.217
19.8636 12.617
19.8787 12.738
19.8939 12.889
19.9091 13.324
19.9243 13.485
19.9394 13.638
19.9546 13.927
19.9698 14.354
19.9850 14.772
20.0001 14.518
20.0153 14.370
20.0305 14.096
20.0457 13.822
20.0608 13.923
20.0760 14.077
20.0912 13.911
20.1064 13.678
20.1215 13.723
20.1367 13.196
20.1519 13.062
20.1671 13.068
20.1822 12.950
20.1974 12.669
20.2126 12.536
20.2278 12.435
20.2429 12.361
20.2581 12.167
20.2733 12.016
20.2885 11.565
20.3036 11.602
20.3188 11.551
20.3340 11.552
20.3492 11.610
20.3643 11.402
20.3795 11.126
20.3947 11.060
20.4099 11.023
20.4250 10.799
20.4402 10.617
20.4554 10.813
20.4706 10.804
20.4857 10.601
20.5009 10.782
20.5161 10.763
20.5313 10.494
20.5464 10.492
20.5616 10.697
20.5768 10.664
20.5920 10.760
20.6071 10.666
20.6223 10.572
20.6375 10.547
20.6527 10.498
20.6678 10.500
20.6830 10.621
20.6982 10.484
20.7134 10.624
20.7285 10.407
20.7437 10.193
20.7589 10.402
20.7741 10.335
20.7892 10.485
20.8044 10.193
20.8196 10.171
20.8348 10.436
20.8499 10.458
20.8651 10.446
20.8803 10.576
20.8955 10.377
20.9106 10.559
20.9258 10.362
20.9410 10.364
20.9562 10.459
20.9713 10.308
20.9865 10.429
21.0017 10.137
21.0169 10.372
21.0320 10.317
21.0472 10.467
21.0624 10.220
21.0776 10.407
21.0927 10.421
21.1079 10.070
21.1231 9.976
21.1383 10.237
21.1534 9.887
21.1686 9.999
21.1838 9.693
21.1990 10.001
21.2141 9.601
21.2293 10.080
21.2445 9.724
21.2597 9.794
21.2748 9.434
21.2900 9.769
21.3052 9.559
21.3204 9.518
21.3355 9.366
21.3507 9.533
21.3659 9.621
21.3811 9.542
21.3962 9.669
21.4114 9.745
21.4266 9.452
21.4418 9.311
21.4569 9.221
21.4721 9.410
21.4873 9.301
21.5025 9.213
21.5176 9.271
21.5328 9.158
21.5480 9.531
21.5632 9.277
21.5783 9.394
21.5935 8.919
21.6087 8.985
21.6239 9.569
21.6390 9.367
21.6542 9.199
21.6694 9.174
21.6846 9.282
21.6997 9.397
21.7149 9.406
21.7301 9.074
21.7453 9.009
21.7604 8.759
21.7756 8.752
21.7908 8.977
21.8060 9.066
21.8211 9.034
21.8363 9.137
21.8515 9.028
21.8667 8.941
21.8818 8.995
21.8970 8.947
21.9122 8.910
21.9274 9.063
21.9425 9.002
21.9577 9.128
21.9729 9.049
21.9881 8.721
22.0032 8.885
22.0184 9.027
22.0336 8.943
22.0488 8.729
22.0639 8.662
22.0791 8.882
22.0943 8.717
22.1095 8.571
22.1246 8.597
22.1398 8.693
22.1550 8.752
22.1702 8.721
22.1853 8.653
22.2005 8.583
22.2157 8.678
22.2309 8.830
22.2460 8.951
22.2612 8.680
22.2764 8.542
22.2916 8.609
22.3067 8.525
22.3219 8.391
22.3371 8.570
22.3523 8.529
22.3674 8.684
22.3826 8.532
22.3978 8.280
22.4130 8.418
22.4281 8.250
22.4433 8.397
22.4585 8.507
22.4737 8.549
22.4888 8.391
22.5040 8.364
22.5192 8.519
22.5344 8.468
22.5495 8.537
22.5647 8.658
22.5799 8.381
22.5951 8.492
22.6102 8.462
22.6254 8.299
22.6406 8.615
22.6558 8.387
22.6709 8.488
22.6861 8.056
22.7013 8.146
22.7165 7.885
22.7316 6.354
