'Id: "" Comment: "" Operator: "Lab Manager" Anode: "Mo" Scantype: "Still (Eiger2R_500K (1D mode))" TimePerStep: "300" X: "11.8" Y: "9.4" Z: "11.284" 
7.2532 18.918
7.2684 18.883
7.2836 19.070
7.2987 19.079
7.3139 19.227
7.3291 18.996
7.3443 19.011
7.3594 18.647
7.3746 19.532
7.3898 19.434
7.4050 18.923
7.4201 19.271
7.4353 19.674
7.4505 19.624
7.4657 19.695
7.4808 19.557
7.4960 19.611
7.5112 19.823
7.5264 19.575
7.5415 19.989
7.5567 19.974
7.5719 20.082
7.5871 20.032
7.6022 20.013
7.6174 20.191
7.6326 20.091
7.6478 20.178
7.6629 20.119
7.6781 20.147
7.6933 20.219
7.7085 20.312
7.7236 20.115
7.7388 20.080
7.7540 20.248
7.7692 20.411
7.7843 20.651
7.7995 20.814
7.8147 20.640
7.8299 20.618
7.8450 20.730
7.8602 20.913
7.8754 20.988
7.8905 21.230
7.9057 21.367
7.9209 21.043
7.9361 20.912
7.9512 21.284
7.9664 21.467
7.9816 21.096
7.9968 21.144
8.0119 21.340
8.0271 21.606
8.0423 21.644
8.0575 21.406
8.0726 21.378
8.0878 21.437
8.1030 21.257
8.1182 21.471
8.1333 21.398
8.1485 21.767
8.1637 21.634
8.1789 21.462
8.1940 21.214
8.2092 21.262
8.2244 22.001
8.2396 21.687
8.2547 21.925
8.2699 21.804
8.2851 21.900
8.3003 21.681
8.3154 21.841
8.3306 21.734
8.3458 22.072
8.3610 22.290
8.3761 22.276
8.3913 21.961
8.4065 21.676
8.4217 22.042
8.4368 21.584
8.4520 21.884
8.4672 22.264
8.4824 21.975
8.4975 22.084
8.5127 22.615
8.5279 22.397
8.5431 22.330
8.5582 22.131
8.5734 22.217
8.5886 22.433
8.6038 21.988
8.6189 22.045
8.6341 21.919
8.6493 22.115
8.6645 22.427
8.6796 22.297
8.6948 22.637
8.7100 22.611
8.7252 22.771
8.7403 22.657
8.7555 22.693
8.7707 23.004
8.7859 22.553
8.8010 22.946
8.8162 22.868
8.8314 22.504
8.8466 22.594
8.8617 22.172
8.8769 22.589
8.8921 23.155
8.9073 22.859
8.9224 22.658
8.9376 22.565
8.9528 22.882
8.9680 22.928
8.9831 22.906
8.9983 22.465
9.0135 22.783
9.0287 23.198
9.0438 22.964
9.0590 23.118
9.0742 23.191
9.0894 22.998
9.1045 22.755
9.1197 23.425
9.1349 23.296
9.1501 23.111
9.1652 22.827
9.1804 23.117
9.1956 23.279
9.2108 22.934
9.2259 22.868
9.2411 23.137
9.2563 22.659
9.2715 23.017
9.2866 23.515
9.3018 23.208
9.3170 23.275
9.3322 23.128
9.3473 23.192
9.3625 23.210
9.3777 23.204
9.3929 23.182
9.4080 23.260
9.4232 23.449
9.4384 23.264
9.4536 23.463
9.4687 23.247
9.4839 23.103
9.4991 22.978
9.5143 23.145
9.5294 23.521
9.5446 23.575
9.5598 23.266
9.5750 23.563
9.5901 23.872
9.6053 23.500
9.6205 23.580
9.6357 23.606
9.6508 23.440
9.6660 23.623
9.6812 23.836
9.6964 23.904
9.7115 24.103
9.7267 24.291
9.7419 24.475
9.7571 24.447
9.7722 24.369
9.7874 23.992
9.8026 23.749
9.8178 23.828
9.8329 23.352
9.8481 23.071
9.8633 23.435
9.8785 23.493
9.8936 23.394
9.9088 23.790
9.9240 24.141
9.9392 23.903
9.9543 23.638
9.9695 23.648
9.9847 23.658
9.9999 23.779
10.0150 23.485
10.0302 23.514
10.0454 23.799
10.0606 23.605
10.0757 23.919
10.0909 24.052
10.1061 23.996
10.1213 24.051
10.1364 23.801
10.1516 23.643
10.1668 23.882
10.1820 24.259
10.1971 24.547
10.2123 24.554
10.2275 24.479
10.2427 24.280
10.2578 24.676
10.2730 24.527
10.2882 24.244
10.3034 24.004
10.3185 23.601
10.3337 23.215
10.3489 23.412
10.3641 23.050
10.3792 23.112
10.3944 23.051
10.4096 22.994
10.4248 23.015
10.4399 22.971
10.4551 23.021
10.4703 23.015
10.4855 22.985
10.5006 22.897
10.5158 23.002
10.5310 22.825
10.5462 23.015
10.5613 22.940
10.5765 22.819
10.5917 23.149
10.6069 22.603
10.6220 22.484
10.6372 22.588
10.6524 22.658
10.6676 23.008
10.6827 23.012
10.6979 22.548
10.7131 23.051
10.7283 22.858
10.7434 22.858
10.7586 22.717
10.7738 22.397
10.7890 22.386
10.8041 22.472
10.8193 22.534
10.8345 22.731
10.8497 22.306
10.8648 22.269
10.8800 22.367
10.8952 22.501
10.9104 22.444
10.9255 22.479
10.9407 22.300
10.9559 22.048
10.9711 22.210
10.9862 22.232
11.0014 22.344
11.0166 22.352
11.0318 22.342
11.0469 22.032
11.0621 21.940
11.0773 22.225
11.0925 22.306
11.1076 22.264
11.1228 21.978
11.1380 21.841
11.1532 21.725
11.1683 21.794
11.1835 21.871
11.1987 21.835
11.2139 21.873
11.2290 22.216
11.2442 22.131
11.2594 21.941
11.2746 21.893
11.2897 22.075
11.3049 21.741
11.3201 21.803
11.3353 22.070
11.3504 22.268
11.3656 21.733
11.3808 21.736
11.3960 21.386
11.4111 21.366
11.4263 21.562
11.4415 21.347
11.4567 21.413
11.4718 21.399
11.4870 21.340
11.5022 21.073
11.5174 21.227
11.5325 21.472
11.5477 21.163
11.5629 20.996
11.5781 20.853
11.5932 20.848
11.6084 20.789
11.6236 20.735
11.6388 20.599
11.6539 20.500
11.6691 20.859
11.6843 20.363
11.6995 20.259
11.7146 20.298
11.7298 20.725
11.7450 20.763
11.7602 20.556
11.7753 20.548
11.7905 20.093
11.8057 20.300
11.8209 20.380
11.8360 20.270
11.8512 20.108
11.8664 19.969
11.8816 19.800
11.8967 19.547
11.9119 19.577
11.9271 19.727
11.9423 19.735
11.9574 19.527
11.9726 19.405
11.9878 19.406
12.0030 18.926
12.0181 18.844
12.0333 18.982
12.0485 18.757
12.0637 18.755
12.0788 18.932
12.0940 19.035
12.1092 18.823
12.1244 18.561
12.1395 18.657
12.1547 18.620
12.1699 18.307
12.1851 18.299
12.2002 18.231
12.2154 18.026
12.2306 17.965
12.2458 17.592
12.2609 17.620
12.2761 17.758
12.2913 17.859
12.3065 17.463
12.3216 17.759
12.3368 17.871
12.3520 17.643
12.3672 17.432
12.3823 17.544
12.3975 17.288
12.4127 17.214
12.4279 17.441
12.4430 17.333
12.4582 17.216
12.4734 17.175
12.4886 17.220
12.5037 16.824
12.5189 16.558
12.5341 16.556
12.5493 16.787
12.5644 16.665
12.5796 16.478
12.5948 16.397
12.6100 16.300
12.6251 15.945
12.6403 15.793
12.6555 16.059
12.6707 15.766
12.6858 15.660
12.7010 15.483
12.7162 15.287
12.7314 15.485
12.7465 15.443
12.7617 15.621
12.7769 15.533
12.7921 15.291
12.8072 15.077
12.8224 15.038
12.8376 15.114
12.8528 15.126
12.8679 14.872
12.8831 14.674
12.8983 14.660
12.9135 14.630
12.9286 14.727
12.9438 14.868
12.9590 14.706
12.9742 14.412
12.9893 14.486
13.0045 14.261
13.0197 14.256
13.0349 14.452
13.0500 14.158
13.0652 13.969
13.0804 14.068
13.0956 13.999
13.1107 13.610
13.1259 13.505
13.1411 13.671
13.1563 13.577
13.1714 13.521
13.1866 13.435
13.2018 13.293
13.2170 13.349
13.2321 13.434
13.2473 13.341
13.2625 13.148
13.2777 13.153
13.2928 13.180
13.3080 13.076
13.3232 13.036
13.3384 12.974
13.3535 12.946
13.3687 13.139
13.3839 13.038
13.3991 13.001
13.4142 13.039
13.4294 12.897
13.4446 12.787
13.4598 12.777
13.4749 12.757
13.4901 12.675
13.5053 12.682
13.5205 12.840
13.5356 12.652
13.5508 12.328
13.5660 12.287
13.5812 12.123
13.5963 12.101
13.6115 12.472
13.6267 12.147
13.6419 12.074
13.6570 12.393
13.6722 12.147
13.6874 12.199
13.7026 12.248
13.7177 12.051
13.7329 11.642
13.7481 11.811
13.7633 12.337
13.7784 12.289
13.7936 11.832
13.8088 11.944
13.8239 12.021
13.8391 12.203
13.8543 12.390
13.8695 12.351
13.8846 12.401
13.8998 12.323
13.9150 12.231
13.9302 12.010
13.9453 11.826
13.9605 11.822
13.9757 11.907
13.9909 11.903
14.0060 11.551
14.0212 11.511
14.0364 11.517
14.0516 11.286
14.0667 11.408
14.0819 11.602
14.0971 11.317
14.1123 11.373
14.1274 11.119
14.1426 11.272
14.1578 11.474
14.1730 11.468
14.1881 11.559
14.2033 11.687
14.2185 11.668
14.2337 11.955
14.2488 11.800
14.2640 11.982
14.2792 12.148
14.2944 12.130
14.3095 12.237
14.3247 12.376
14.3399 12.243
14.3551 12.254
14.3702 12.738
14.3854 13.445
14.4006 13.404
14.4158 13.113
14.4309 13.169
14.4461 12.782
14.4613 13.132
14.4765 13.085
14.4916 13.277
14.5068 13.036
14.5220 12.978
14.5372 12.610
14.5523 12.185
14.5675 12.492
14.5827 12.398
14.5979 12.220
14.6130 12.187
14.6282 11.835
14.6434 11.852
14.6586 11.846
14.6737 11.942
14.6889 11.426
14.7041 11.233
14.7193 11.219
14.7344 11.070
14.7496 11.152
14.7648 10.684
14.7800 10.861
14.7951 11.167
14.8103 10.415
14.8255 10.668
14.8407 10.463
14.8558 10.480
14.8710 10.646
14.8862 10.693
14.9014 10.592
14.9165 10.859
14.9317 10.985
14.9469 10.545
14.9621 10.643
14.9772 10.433
14.9924 10.440
15.0076 10.553
15.0228 10.422
15.0379 10.869
15.0531 10.981
15.0683 10.321
15.0835 10.175
15.0986 10.812
15.1138 10.397
15.1290 10.490
15.1442 10.893
15.1593 10.470
15.1745 10.521
15.1897 10.255
15.2049 10.425
15.2200 10.403
15.2352 10.468
15.2504 10.511
15.2656 10.391
15.2807 10.573
15.2959 10.515
15.3111 10.150
15.3263 10.360
15.3414 10.354
15.3566 10.311
15.3718 10.308
15.3870 10.419
15.4021 10.633
15.4173 10.726
15.4325 10.411
15.4477 10.427
15.4628 10.653
15.4780 10.450
15.4932 10.486
15.5084 10.484
15.5235 10.345
15.5387 10.669
15.5539 10.560
15.5691 10.346
15.5842 10.169
15.5994 10.165
15.6146 10.225
15.6298 9.930
15.6449 10.089
15.6601 10.137
15.6753 10.059
15.6905 9.912
15.7056 9.699
15.7208 9.924
15.7360 9.884
15.7512 9.815
15.7663 10.098
15.7815 9.946
15.7967 9.789
15.8119 9.986
15.8270 9.985
15.8422 9.811
15.8574 9.750
15.8726 9.916
15.8877 9.888
15.9029 9.752
15.9181 9.938
15.9333 9.813
15.9484 9.591
15.9636 9.875
15.9788 9.853
15.9940 9.609
16.0091 9.878
16.0243 9.749
16.0395 9.780
16.0547 9.750
16.0698 9.997
16.0850 9.947
16.1002 9.612
16.1154 9.819
16.1305 9.768
16.1457 9.810
16.1609 9.847
16.1761 9.836
16.1912 9.789
16.2064 9.913
16.2216 9.539
16.2368 9.766
16.2519 10.172
16.2671 9.962
16.2823 9.713
16.2975 10.184
16.3126 10.732
16.3278 10.296
16.3430 10.091
16.3582 10.214
16.3733 10.534
16.3885 10.163
16.4037 10.244
16.4189 10.105
16.4340 9.979
16.4492 10.088
16.4644 9.670
16.4796 9.517
16.4947 9.835
16.5099 9.684
16.5251 9.723
16.5403 9.762
16.5554 9.805
16.5706 9.801
16.5858 9.772
16.6010 9.897
16.6161 9.907
16.6313 9.796
16.6465 9.676
16.6617 10.002
16.6768 9.759
16.6920 9.791
16.7072 9.943
16.7224 10.103
16.7375 10.496
16.7527 10.377
16.7679 10.124
16.7831 10.103
16.7982 10.114
16.8134 10.106
16.8286 10.075
16.8438 10.000
16.8589 9.844
16.8741 9.841
16.8893 9.907
16.9045 9.656
16.9196 9.580
16.9348 9.943
16.9500 9.914
16.9652 9.863
16.9803 10.008
16.9955 9.795
17.0107 9.728
17.0259 9.937
17.0410 10.035
17.0562 10.041
17.0714 10.168
17.0866 10.464
17.1017 10.517
17.1169 10.483
17.1321 10.779
17.1473 11.072
17.1624 11.673
17.1776 12.379
17.1928 12.829
17.2080 13.712
17.2231 14.961
17.2383 16.188
17.2535 17.412
17.2687 18.407
17.2838 18.736
17.2990 18.039
17.3142 16.947
17.3294 16.194
17.3445 16.089
17.3597 16.229
17.3749 15.948
17.3901 15.209
17.4052 14.115
17.4204 13.169
17.4356 12.503
17.4508 12.159
17.4659 11.777
17.4811 11.322
17.4963 11.351
17.5115 11.491
17.5266 11.247
17.5418 11.060
17.5570 11.006
17.5722 11.179
17.5873 11.752
17.6025 11.794
17.6177 11.640
17.6329 11.349
17.6480 10.891
17.6632 10.896
17.6784 11.094
17.6936 10.978
17.7087 10.992
17.7239 11.145
17.7391 10.965
17.7543 10.773
17.7694 10.657
17.7846 10.801
17.7998 11.110
17.8150 11.282
17.8301 11.254
17.8453 11.025
17.8605 11.130
17.8757 11.432
17.8908 11.402
17.9060 11.361
17.9212 11.234
17.9364 10.967
17.9515 10.866
17.9667 10.782
17.9819 10.980
17.9971 10.882
18.0122 10.828
18.0274 10.677
18.0426 10.487
18.0578 10.272
18.0729 10.290
18.0881 10.336
18.1033 10.143
18.1185 10.181
18.1336 10.281
18.1488 10.042
18.1640 10.046
18.1792 9.867
18.1943 9.957
18.2095 10.030
18.2247 9.893
18.2399 9.786
18.2550 9.836
18.2702 9.813
18.2854 9.790
18.3006 9.859
18.3157 9.941
18.3309 9.780
18.3461 9.932
18.3613 10.173
18.3764 9.949
18.3916 9.920
18.4068 10.023
18.4220 9.939
18.4371 9.956
18.4523 9.982
18.4675 9.820
18.4827 9.601
18.4978 9.639
18.5130 9.798
18.5282 9.963
18.5434 9.931
18.5585 9.820
18.5737 9.939
18.5889 9.902
18.6041 9.646
18.6192 9.821
18.6344 9.808
18.6496 9.800
18.6648 9.892
18.6799 9.685
18.6951 9.620
18.7103 9.932
18.7255 9.762
18.7406 9.605
18.7558 10.040
18.7710 10.101
18.7862 9.761
18.8013 9.756
18.8165 9.843
18.8317 9.879
18.8469 9.940
18.8620 9.940
18.8772 9.934
18.8924 9.950
18.9076 9.888
18.9227 10.022
18.9379 10.019
18.9531 9.902
18.9683 9.912
18.9834 10.056
18.9986 10.220
19.0138 10.325
19.0290 10.380
19.0441 10.316
19.0593 10.232
19.0745 10.344
19.0897 10.434
19.1048 10.243
19.1200 10.267
19.1352 10.585
19.1504 10.599
19.1655 10.636
19.1807 10.609
19.1959 10.468
19.2111 10.845
19.2262 10.820
19.2414 10.640
19.2566 10.636
19.2718 10.618
19.2869 10.700
19.3021 11.048
19.3173 11.077
19.3325 11.061
19.3476 11.184
19.3628 11.310
19.3780 11.284
19.3932 10.993
19.4083 11.151
19.4235 11.179
19.4387 11.080
19.4539 11.305
19.4690 11.367
19.4842 11.270
19.4994 11.326
19.5146 11.290
19.5297 11.440
19.5449 11.624
19.5601 11.473
19.5753 11.576
19.5904 11.677
19.6056 11.511
19.6208 11.786
19.6360 11.831
19.6511 11.731
19.6663 11.902
19.6815 11.790
19.6967 11.679
19.7118 11.597
19.7270 11.601
19.7422 11.774
19.7574 11.719
19.7725 11.647
19.7877 11.691
19.8029 11.892
19.8180 12.008
19.8332 12.067
19.8484 12.239
19.8636 12.421
19.8787 12.689
19.8939 12.948
19.9091 13.128
19.9243 13.342
19.9394 13.614
19.9546 13.867
19.9698 13.968
19.9850 14.264
20.0001 14.426
20.0153 14.107
20.0305 13.952
20.0457 13.658
20.0608 13.470
20.0760 13.602
20.0912 13.504
20.1064 13.554
20.1215 13.537
20.1367 13.315
20.1519 13.129
20.1671 13.051
20.1822 13.254
20.1974 13.012
20.2126 12.904
20.2278 13.083
20.2429 12.712
20.2581 12.490
20.2733 12.082
20.2885 11.869
20.3036 12.130
20.3188 12.054
20.3340 12.032
20.3492 11.848
20.3643 11.805
20.3795 11.707
20.3947 11.469
20.4099 11.456
20.4250 11.391
20.4402 10.799
20.4554 11.114
20.4706 11.135
20.4857 11.195
20.5009 11.286
20.5161 11.087
20.5313 10.987
20.5464 10.989
20.5616 10.929
20.5768 11.073
20.5920 10.827
20.6071 11.219
20.6223 10.968
20.6375 10.712
20.6527 10.868
20.6678 11.026
20.6830 10.781
20.6982 11.009
20.7134 11.072
20.7285 11.096
20.7437 10.923
20.7589 10.954
20.7741 10.639
20.7892 10.438
20.8044 10.268
20.8196 10.969
20.8348 10.499
20.8499 10.694
20.8651 10.643
20.8803 10.425
20.8955 10.337
20.9106 10.399
20.9258 10.280
20.9410 10.384
20.9562 10.326
20.9713 10.261
20.9865 9.747
21.0017 10.299
21.0169 10.053
21.0320 9.909
21.0472 9.938
21.0624 9.943
21.0776 9.947
21.0927 9.601
21.1079 10.051
21.1231 9.781
21.1383 9.954
21.1534 9.554
21.1686 9.690
21.1838 9.854
21.1990 9.797
21.2141 9.812
21.2293 9.580
21.2445 9.658
21.2597 9.639
21.2748 9.533
21.2900 9.421
21.3052 9.719
21.3204 9.408
21.3355 9.300
21.3507 9.521
21.3659 9.761
21.3811 9.642
21.3962 9.479
21.4114 9.810
21.4266 9.453
21.4418 9.429
21.4569 9.255
21.4721 9.356
21.4873 9.254
21.5025 9.233
21.5176 9.570
21.5328 9.113
21.5480 9.184
21.5632 9.496
21.5783 9.656
21.5935 9.629
21.6087 9.519
21.6239 8.995
21.6390 9.186
21.6542 9.194
21.6694 9.037
21.6846 8.961
21.6997 9.044
21.7149 9.038
21.7301 9.085
21.7453 9.040
21.7604 9.065
21.7756 8.944
21.7908 9.017
21.8060 9.111
21.8211 9.110
21.8363 9.247
21.8515 8.985
21.8667 9.076
21.8818 9.229
21.8970 8.918
21.9122 8.915
21.9274 8.936
21.9425 8.838
21.9577 9.012
21.9729 8.937
21.9881 8.750
22.0032 8.815
22.0184 8.878
22.0336 8.904
22.0488 8.941
22.0639 9.060
22.0791 8.954
22.0943 8.478
22.1095 8.593
22.1246 8.793
22.1398 8.471
22.1550 8.501
22.1702 8.814
22.1853 8.719
22.2005 8.543
22.2157 8.828
22.2309 8.713
22.2460 8.577
22.2612 8.752
22.2764 8.538
22.2916 8.611
22.3067 8.403
22.3219 8.752
22.3371 8.489
22.3523 8.419
22.3674 8.630
22.3826 8.518
22.3978 8.321
22.4130 8.569
22.4281 8.720
22.4433 8.556
22.4585 8.395
22.4737 8.583
22.4888 8.638
22.5040 8.573
22.5192 8.296
22.5344 8.406
22.5495 8.546
22.5647 8.460
22.5799 8.433
22.5951 8.558
22.6102 8.530
22.6254 8.362
22.6406 8.265
22.6558 8.550
22.6709 8.694
22.6861 8.176
22.7013 8.316
22.7165 8.080
22.7316 6.332
