'Id: "" Comment: "" Operator: "Lab Manager" Anode: "Mo" Scantype: "Still (Eiger2R_500K (1D mode))" TimePerStep: "300" X: "11.8" Y: "9.4" Z: "11.284" 
7.2532 18.877
7.2684 18.847
7.2836 19.176
7.2987 19.574
7.3139 19.495
7.3291 19.234
7.3443 19.047
7.3594 19.309
7.3746 19.015
7.3898 19.144
7.4050 19.139
7.4201 19.371
7.4353 19.749
7.4505 19.293
7.4657 19.354
7.4808 19.460
7.4960 19.911
7.5112 19.929
7.5264 19.285
7.5415 19.102
7.5567 19.475
7.5719 19.892
7.5871 19.727
7.6022 19.582
7.6174 19.705
7.6326 19.994
7.6478 20.192
7.6629 20.163
7.6781 19.998
7.6933 20.505
7.7085 20.408
7.7236 20.124
7.7388 20.166
7.7540 20.409
7.7692 20.532
7.7843 20.607
7.7995 20.672
7.8147 20.539
7.8299 20.514
7.8450 20.813
7.8602 20.808
7.8754 20.664
7.8905 20.704
7.9057 20.682
7.9209 20.600
7.9361 20.865
7.9512 21.195
7.9664 21.299
7.9816 20.978
7.9968 20.879
8.0119 21.105
8.0271 21.312
8.0423 21.292
8.0575 21.218
8.0726 21.271
8.0878 20.865
8.1030 20.951
8.1182 20.945
8.1333 21.478
8.1485 21.868
8.1637 21.607
8.1789 21.578
8.1940 21.550
8.2092 21.378
8.2244 21.573
8.2396 22.095
8.2547 21.813
8.2699 21.738
8.2851 21.557
8.3003 21.523
8.3154 21.934
8.3306 21.481
8.3458 21.397
8.3610 22.145
8.3761 21.980
8.3913 22.097
8.4065 22.027
8.4217 22.184
8.4368 21.767
8.4520 21.711
8.4672 21.947
8.4824 22.506
8.4975 22.002
8.5127 21.871
8.5279 21.802
8.5431 22.290
8.5582 22.525
8.5734 22.207
8.5886 22.200
8.6038 21.878
8.6189 22.005
8.6341 22.102
8.6493 22.239
8.6645 22.255
8.6796 22.704
8.6948 22.441
8.7100 22.181
8.7252 22.468
8.7403 22.225
8.7555 22.492
8.7707 22.002
8.7859 22.538
8.8010 22.385
8.8162 22.759
8.8314 22.952
8.8466 22.685
8.8617 22.820
8.8769 22.539
8.8921 22.735
8.9073 22.951
8.9224 22.775
8.9376 22.532
8.9528 23.189
8.9680 22.916
8.9831 22.937
8.9983 22.681
9.0135 22.588
9.0287 22.714
9.0438 22.886
9.0590 23.054
9.0742 23.033
9.0894 22.459
9.1045 22.824
9.1197 22.778
9.1349 22.620
9.1501 22.702
9.1652 23.041
9.1804 23.130
9.1956 23.030
9.2108 23.011
9.2259 22.931
9.2411 22.691
9.2563 22.950
9.2715 22.565
9.2866 22.672
9.3018 23.115
9.3170 23.156
9.3322 23.045
9.3473 23.106
9.3625 23.231
9.3777 23.109
9.3929 23.365
9.4080 23.093
9.4232 23.101
9.4384 23.448
9.4536 23.331
9.4687 23.175
9.4839 23.189
9.4991 23.145
9.5143 23.223
9.5294 23.153
9.5446 23.027
9.5598 23.054
9.5750 23.143
9.5901 23.563
9.6053 23.582
9.6205 23.308
9.6357 23.409
9.6508 23.670
9.6660 23.718
9.6812 23.750
9.6964 24.025
9.7115 24.234
9.7267 24.005
9.7419 23.875
9.7571 23.921
9.7722 24.112
9.7874 23.944
9.8026 23.743
9.8178 23.762
9.8329 23.607
9.8481 23.551
9.8633 23.188
9.8785 23.192
9.8936 23.561
9.9088 23.585
9.9240 23.681
9.9392 23.920
9.9543 23.665
9.9695 23.474
9.9847 23.690
9.9999 23.690
10.0150 23.470
10.0302 23.117
10.0454 23.254
10.0606 23.202
10.0757 23.202
10.0909 23.288
10.1061 23.129
10.1213 23.558
10.1364 23.399
10.1516 23.176
10.1668 23.314
10.1820 23.357
10.1971 22.946
10.2123 23.130
10.2275 23.328
10.2427 23.135
10.2578 23.254
10.2730 23.140
10.2882 23.002
10.3034 23.339
10.3185 23.402
10.3337 23.267
10.3489 23.136
10.3641 23.501
10.3792 23.366
10.3944 23.325
10.4096 23.262
10.4248 23.137
10.4399 23.159
10.4551 22.857
10.4703 22.747
10.4855 22.759
10.5006 22.460
10.5158 23.010
10.5310 22.806
10.5462 22.257
10.5613 22.284
10.5765 22.457
10.5917 22.782
10.6069 22.864
10.6220 23.102
10.6372 22.505
10.6524 22.577
10.6676 22.603
10.6827 22.426
10.6979 22.160
10.7131 22.712
10.7283 22.704
10.7434 22.748
10.7586 22.785
10.7738 22.272
10.7890 22.357
10.8041 22.410
10.8193 22.430
10.8345 22.142
10.8497 21.907
10.8648 22.561
10.8800 23.002
10.8952 22.671
10.9104 22.503
10.9255 22.398
10.9407 22.193
10.9559 22.152
10.9711 21.998
10.9862 22.257
11.0014 22.663
11.0166 22.425
11.0318 22.099
11.0469 22.075
11.0621 21.899
11.0773 22.152
11.0925 21.958
11.1076 21.776
11.1228 21.844
11.1380 22.196
11.1532 21.934
11.1683 21.804
11.1835 21.924
11.1987 21.789
11.2139 21.330
11.2290 21.505
11.2442 21.933
11.2594 21.799
11.2746 21.933
11.2897 21.794
11.3049 21.842
11.3201 21.689
11.3353 21.530
11.3504 21.180
11.3656 21.586
11.3808 21.466
11.3960 21.338
11.4111 21.690
11.4263 21.512
11.4415 21.143
11.4567 21.224
11.4718 21.202
11.4870 21.598
11.5022 21.312
11.5174 21.046
11.5325 21.052
11.5477 21.395
11.5629 21.382
11.5781 20.985
11.5932 20.891
11.6084 21.365
11.6236 21.244
11.6388 21.080
11.6539 20.949
11.6691 20.582
11.6843 20.714
11.6995 20.697
11.7146 20.807
11.7298 20.609
11.7450 20.910
11.7602 20.720
11.7753 20.410
11.7905 20.269
11.8057 20.048
11.8209 20.182
11.8360 20.294
11.8512 19.793
11.8664 19.776
11.8816 19.912
11.8967 19.708
11.9119 19.535
11.9271 19.788
11.9423 19.954
11.9574 19.510
11.9726 19.092
11.9878 19.406
12.0030 19.296
12.0181 19.336
12.0333 19.215
12.0485 19.146
12.0637 19.079
12.0788 19.201
12.0940 18.768
12.1092 18.612
12.1244 18.774
12.1395 18.793
12.1547 18.709
12.1699 18.301
12.1851 18.309
12.2002 18.213
12.2154 18.374
12.2306 18.322
12.2458 18.125
12.2609 17.662
12.2761 17.816
12.2913 18.208
12.3065 17.838
12.3216 17.570
12.3368 17.565
12.3520 17.484
12.3672 17.528
12.3823 17.301
12.3975 17.060
12.4127 17.093
12.4279 17.072
12.4430 17.215
12.4582 16.921
12.4734 16.939
12.4886 16.743
12.5037 16.452
12.5189 16.627
12.5341 16.821
12.5493 16.636
12.5644 16.408
12.5796 16.272
12.5948 16.037
12.6100 15.988
12.6251 15.951
12.6403 16.070
12.6555 15.989
12.6707 15.977
12.6858 15.909
12.7010 15.713
12.7162 15.687
12.7314 15.566
12.7465 15.452
12.7617 15.519
12.7769 15.374
12.7921 15.006
12.8072 15.047
12.8224 15.341
12.8376 15.174
12.8528 14.885
12.8679 14.702
12.8831 14.914
12.8983 15.137
12.9135 15.063
12.9286 14.834
12.9438 14.489
12.9590 14.492
12.9742 14.653
12.9893 14.566
13.0045 14.454
13.0197 14.206
13.0349 14.167
13.0500 14.150
13.0652 14.042
13.0804 14.076
13.0956 13.913
13.1107 13.717
13.1259 13.815
13.1411 14.035
13.1563 14.048
13.1714 13.691
13.1866 13.508
13.2018 13.672
13.2170 13.666
13.2321 13.400
13.2473 13.201
13.2625 13.423
13.2777 13.499
13.2928 13.223
13.3080 13.002
13.3232 13.158
13.3384 13.245
13.3535 13.174
13.3687 13.212
13.3839 13.057
13.3991 13.113
13.4142 13.084
13.4294 12.887
13.4446 12.922
13.4598 12.894
13.4749 12.576
13.4901 12.475
13.5053 12.608
13.5205 12.738
13.5356 12.672
13.5508 12.691
13.5660 12.544
13.5812 12.330
13.5963 12.343
13.6115 12.642
13.6267 12.396
13.6419 12.179
13.6570 12.322
13.6722 12.375
13.6874 12.131
13.7026 11.980
13.7177 12.081
13.7329 12.051
13.7481 12.095
13.7633 12.251
13.7784 12.238
13.7936 12.321
13.8088 12.194
13.8239 12.133
13.8391 12.365
13.8543 12.473
13.8695 12.377
13.8846 12.052
13.8998 12.058
13.9150 12.097
13.9302 12.191
13.9453 11.930
13.9605 11.574
13.9757 11.570
13.9909 11.671
14.0060 12.004
14.0212 11.661
14.0364 11.551
14.0516 11.407
14.0667 11.516
14.0819 11.675
14.0971 11.832
14.1123 11.701
14.1274 11.503
14.1426 11.318
14.1578 11.294
14.1730 11.227
14.1881 11.423
14.2033 11.727
14.2185 11.228
14.2337 11.197
14.2488 11.794
14.2640 11.361
14.2792 11.541
14.2944 11.547
14.3095 11.709
14.3247 11.941
14.3399 11.846
14.3551 12.105
14.3702 12.025
14.3854 12.188
14.4006 12.599
14.4158 12.539
14.4309 12.480
14.4461 12.287
14.4613 12.172
14.4765 12.029
14.4916 12.094
14.5068 12.196
14.5220 11.987
14.5372 11.601
14.5523 11.720
14.5675 11.455
14.5827 11.351
14.5979 11.472
14.6130 11.136
14.6282 10.921
14.6434 11.122
14.6586 11.389
14.6737 11.140
14.6889 10.788
14.7041 11.586
14.7193 11.116
14.7344 10.855
14.7496 11.076
14.7648 11.484
14.7800 11.104
14.7951 10.965
14.8103 11.124
14.8255 11.057
14.8407 11.101
14.8558 10.986
14.8710 10.691
14.8862 10.805
14.9014 10.829
14.9165 10.929
14.9317 11.088
14.9469 10.580
14.9621 10.744
14.9772 10.465
14.9924 10.866
15.0076 10.593
15.0228 10.723
15.0379 10.314
15.0531 10.107
15.0683 10.636
15.0835 10.592
15.0986 10.431
15.1138 10.646
15.1290 10.306
15.1442 10.392
15.1593 10.492
15.1745 10.413
15.1897 10.590
15.2049 10.168
15.2200 10.270
15.2352 10.512
15.2504 10.129
15.2656 10.328
15.2807 10.273
15.2959 10.566
15.3111 10.557
15.3263 10.586
15.3414 10.239
15.3566 10.243
15.3718 10.476
15.3870 10.189
15.4021 10.482
15.4173 10.408
15.4325 10.634
15.4477 10.359
15.4628 10.148
15.4780 10.427
15.4932 10.466
15.5084 10.134
15.5235 10.604
15.5387 10.428
15.5539 10.412
15.5691 9.935
15.5842 10.005
15.5994 10.187
15.6146 9.781
15.6298 10.130
15.6449 10.099
15.6601 10.002
15.6753 10.469
15.6905 10.000
15.7056 10.096
15.7208 10.389
15.7360 10.084
15.7512 9.773
15.7663 9.920
15.7815 10.004
15.7967 9.958
15.8119 9.984
15.8270 10.042
15.8422 9.972
15.8574 9.905
15.8726 9.691
15.8877 9.817
15.9029 9.769
15.9181 9.898
15.9333 9.724
15.9484 9.749
15.9636 9.771
15.9788 9.955
15.9940 9.958
16.0091 9.678
16.0243 9.746
16.0395 9.751
16.0547 9.934
16.0698 9.983
16.0850 9.739
16.1002 9.792
16.1154 9.903
16.1305 9.863
16.1457 9.599
16.1609 10.044
16.1761 9.761
16.1912 9.929
16.2064 9.794
16.2216 9.636
16.2368 9.880
16.2519 10.125
16.2671 10.059
16.2823 10.061
16.2975 10.147
16.3126 9.966
16.3278 9.772
16.3430 9.998
16.3582 10.103
16.3733 10.250
16.3885 10.284
16.4037 10.035
16.4189 9.795
16.4340 9.942
16.4492 9.951
16.4644 9.879
16.4796 9.950
16.4947 9.887
16.5099 9.943
16.5251 10.182
16.5403 9.908
16.5554 9.916
16.5706 9.607
16.5858 9.723
16.6010 9.819
16.6161 9.770
16.6313 9.782
16.6465 9.822
16.6617 9.862
16.6768 10.069
16.6920 10.139
16.7072 9.916
16.7224 9.928
16.7375 10.311
16.7527 10.281
16.7679 9.981
16.7831 10.061
16.7982 10.148
16.8134 10.008
16.8286 9.845
16.8438 9.974
16.8589 9.968
16.8741 9.767
16.8893 9.873
16.9045 9.926
16.9196 9.852
16.9348 10.007
16.9500 9.993
16.9652 9.783
16.9803 9.928
16.9955 9.929
17.0107 9.858
17.0259 10.108
17.0410 10.256
17.0562 10.157
17.0714 10.164
17.0866 10.607
17.1017 10.922
17.1169 10.946
17.1321 11.202
17.1473 11.717
17.1624 12.036
17.1776 12.390
17.1928 13.099
17.2080 13.967
17.2231 14.989
17.2383 16.128
17.2535 17.670
17.2687 19.014
17.2838 19.132
17.2990 18.170
17.3142 16.966
17.3294 16.339
17.3445 16.028
17.3597 15.879
17.3749 15.885
17.3901 15.291
17.4052 14.241
17.4204 13.298
17.4356 12.598
17.4508 12.087
17.4659 11.624
17.4811 11.485
17.4963 11.396
17.5115 11.019
17.5266 10.778
17.5418 10.702
17.5570 10.509
17.5722 10.333
17.5873 10.375
17.6025 10.405
17.6177 10.474
17.6329 10.646
17.6480 10.338
17.6632 10.000
17.6784 10.249
17.6936 10.336
17.7087 10.241
17.7239 10.248
17.7391 10.304
17.7543 10.427
17.7694 10.399
17.7846 10.477
17.7998 10.565
17.8150 10.466
17.8301 10.484
17.8453 10.586
17.8605 10.911
17.8757 10.896
17.8908 10.925
17.9060 10.991
17.9212 10.691
17.9364 10.312
17.9515 10.448
17.9667 10.726
17.9819 10.716
17.9971 10.511
18.0122 10.238
18.0274 10.299
18.0426 10.288
18.0578 10.219
18.0729 10.132
18.0881 10.192
18.1033 10.122
18.1185 10.155
18.1336 10.309
18.1488 10.003
18.1640 9.949
18.1792 10.035
18.1943 9.958
18.2095 9.752
18.2247 9.906
18.2399 10.016
18.2550 9.888
18.2702 9.814
18.2854 9.837
18.3006 9.763
18.3157 9.721
18.3309 9.915
18.3461 9.902
18.3613 9.979
18.3764 10.141
18.3916 9.945
18.4068 9.918
18.4220 9.946
18.4371 9.852
18.4523 9.936
18.4675 9.861
18.4827 9.965
18.4978 10.070
18.5130 9.886
18.5282 9.829
18.5434 9.858
18.5585 9.772
18.5737 9.761
18.5889 9.752
18.6041 9.745
18.6192 9.754
18.6344 9.604
18.6496 9.428
18.6648 9.704
18.6799 9.839
18.6951 9.780
18.7103 9.906
18.7255 9.849
18.7406 9.770
18.7558 9.698
18.7710 9.865
18.7862 9.933
18.8013 9.722
18.8165 9.700
18.8317 9.908
18.8469 9.907
18.8620 9.788
18.8772 10.006
18.8924 9.987
18.9076 9.947
18.9227 9.927
18.9379 9.779
18.9531 9.975
18.9683 10.069
18.9834 10.128
18.9986 10.083
19.0138 10.203
19.0290 10.091
19.0441 10.138
19.0593 10.315
19.0745 10.320
19.0897 10.387
19.1048 10.295
19.1200 10.425
19.1352 10.481
19.1504 10.443
19.1655 10.638
19.1807 10.635
19.1959 10.518
19.2111 10.591
19.2262 10.735
19.2414 10.671
19.2566 10.644
19.2718 10.898
19.2869 10.838
19.3021 10.785
19.3173 10.973
19.3325 11.143
19.3476 11.166
19.3628 11.399
19.3780 11.179
19.3932 10.955
19.4083 11.069
19.4235 11.201
19.4387 11.410
19.4539 11.307
19.4690 11.366
19.4842 11.586
19.4994 11.483
19.5146 11.594
19.5297 11.820
19.5449 11.815
19.5601 11.598
19.5753 11.366
19.5904 11.355
19.6056 11.402
19.6208 11.574
19.6360 11.806
19.6511 11.792
19.6663 11.686
19.6815 11.534
19.6967 11.612
19.7118 11.826
19.7270 11.754
19.7422 11.698
19.7574 11.767
19.7725 11.951
19.7877 12.179
19.8029 12.138
19.8180 11.990
19.8332 11.973
19.8484 12.227
19.8636 12.596
19.8787 12.758
19.8939 12.876
19.9091 13.238
19.9243 13.506
19.9394 13.759
19.9546 14.169
19.9698 14.411
19.9850 14.452
20.0001 14.426
20.0153 14.539
20.0305 14.135
20.0457 13.875
20.0608 13.745
20.0760 13.691
20.0912 13.691
20.1064 13.526
20.1215 13.466
20.1367 13.511
20.1519 13.169
20.1671 12.973
20.1822 12.670
20.1974 12.543
20.2126 12.724
20.2278 12.579
20.2429 12.174
20.2581 12.197
20.2733 11.968
20.2885 11.822
20.3036 11.666
20.3188 11.592
20.3340 11.519
20.3492 11.719
20.3643 11.255
20.3795 11.159
20.3947 11.244
20.4099 11.120
20.4250 10.895
20.4402 10.703
20.4554 10.633
20.4706 10.637
20.4857 10.778
20.5009 10.787
20.5161 10.548
20.5313 10.700
20.5464 10.662
20.5616 10.633
20.5768 10.562
20.5920 10.497
20.6071 10.638
20.6223 10.296
20.6375 10.587
20.6527 10.426
20.6678 10.378
20.6830 10.191
20.6982 10.505
20.7134 10.374
20.7285 10.344
20.7437 10.610
20.7589 10.494
20.7741 10.260
20.7892 10.416
20.8044 10.116
20.8196 10.295
20.8348 10.434
20.8499 10.356
20.8651 10.158
20.8803 10.331
20.8955 10.201
20.9106 10.207
20.9258 10.391
20.9410 10.280
20.9562 10.572
20.9713 10.313
20.9865 10.085
21.0017 10.197
21.0169 10.144
21.0320 10.396
21.0472 10.441
21.0624 10.174
21.0776 10.152
21.0927 10.155
21.1079 9.921
21.1231 10.017
21.1383 9.802
21.1534 9.890
21.1686 9.513
21.1838 10.129
21.1990 9.722
21.2141 9.684
21.2293 9.840
21.2445 9.711
21.2597 9.700
21.2748 9.494
21.2900 9.740
21.3052 9.958
21.3204 9.283
21.3355 9.439
21.3507 9.472
21.3659 9.342
21.3811 9.277
21.3962 9.227
21.4114 9.366
21.4266 9.202
21.4418 9.395
21.4569 9.699
21.4721 9.396
21.4873 9.253
21.5025 9.114
21.5176 9.130
21.5328 9.147
21.5480 9.023
21.5632 9.046
21.5783 9.434
21.5935 9.292
21.6087 9.011
21.6239 8.988
21.6390 9.230
21.6542 9.344
21.6694 9.388
21.6846 9.382
21.6997 9.090
21.7149 8.959
21.7301 9.252
21.7453 9.064
21.7604 9.293
21.7756 9.229
21.7908 8.951
21.8060 8.973
21.8211 9.130
21.8363 9.078
21.8515 9.016
21.8667 9.002
21.8818 8.953
21.8970 8.903
21.9122 8.904
21.9274 9.010
21.9425 8.972
21.9577 8.969
21.9729 8.926
21.9881 9.023
22.0032 8.948
22.0184 8.957
22.0336 8.964
22.0488 8.885
22.0639 8.979
22.0791 9.148
22.0943 9.015
22.1095 8.776
22.1246 8.724
22.1398 8.620
22.1550 8.480
22.1702 8.557
22.1853 8.668
22.2005 8.490
22.2157 8.521
22.2309 8.480
22.2460 8.503
22.2612 8.518
22.2764 8.418
22.2916 8.554
22.3067 8.538
22.3219 8.662
22.3371 8.631
22.3523 8.504
22.3674 8.607
22.3826 8.469
22.3978 8.509
22.4130 8.421
22.4281 8.707
22.4433 8.701
22.4585 8.594
22.4737 8.456
22.4888 8.507
22.5040 8.405
22.5192 8.414
22.5344 8.492
22.5495 8.839
22.5647 8.777
22.5799 8.706
22.5951 8.716
22.6102 8.719
22.6254 8.591
22.6406 8.509
22.6558 8.571
22.6709 8.529
22.6861 8.323
22.7013 8.213
22.7165 7.798
22.7316 6.502
