'Id: "" Comment: "" Operator: "Lab Manager" Anode: "Mo" Scantype: "Still (Eiger2R_500K (1D mode))" TimePerStep: "300" X: "11.8" Y: "9.4" Z: "11.284" 
7.2532 19.130
7.2684 18.516
7.2836 18.600
7.2987 19.414
7.3139 18.921
7.3291 18.980
7.3443 19.050
7.3594 18.788
7.3746 18.819
7.3898 18.941
7.4050 19.217
7.4201 19.326
7.4353 19.425
7.4505 19.660
7.4657 18.989
7.4808 19.200
7.4960 19.973
7.5112 19.696
7.5264 19.473
7.5415 19.511
7.5567 20.099
7.5719 20.017
7.5871 19.846
7.6022 20.117
7.6174 19.913
7.6326 19.923
7.6478 20.070
7.6629 19.891
7.6781 20.206
7.6933 20.296
7.7085 20.390
7.7236 20.390
7.7388 20.230
7.7540 20.345
7.7692 20.253
7.7843 19.896
7.7995 19.975
7.8147 20.122
7.8299 20.340
7.8450 20.603
7.8602 20.704
7.8754 20.793
7.8905 20.806
7.9057 20.692
7.9209 20.481
7.9361 20.838
7.9512 21.047
7.9664 20.923
7.9816 20.682
7.9968 20.947
8.0119 21.023
8.0271 20.903
8.0423 21.137
8.0575 20.971
8.0726 20.777
8.0878 20.868
8.1030 21.059
8.1182 21.323
8.1333 21.012
8.1485 21.168
8.1637 21.515
8.1789 21.365
8.1940 21.559
8.2092 21.674
8.2244 21.129
8.2396 21.690
8.2547 21.609
8.2699 21.717
8.2851 21.639
8.3003 22.113
8.3154 21.648
8.3306 21.993
8.3458 22.210
8.3610 22.003
8.3761 21.384
8.3913 21.716
8.4065 21.591
8.4217 21.711
8.4368 22.116
8.4520 21.362
8.4672 21.498
8.4824 21.928
8.4975 21.952
8.5127 21.701
8.5279 22.057
8.5431 22.150
8.5582 21.805
8.5734 21.970
8.5886 21.738
8.6038 21.658
8.6189 21.274
8.6341 21.950
8.6493 22.256
8.6645 22.047
8.6796 22.835
8.6948 22.140
8.7100 22.099
8.7252 21.721
8.7403 22.158
8.7555 22.386
8.7707 22.216
8.7859 22.091
8.8010 22.307
8.8162 22.448
8.8314 22.553
8.8466 22.794
8.8617 22.557
8.8769 22.457
8.8921 22.395
8.9073 22.362
8.9224 22.314
8.9376 22.656
8.9528 22.619
8.9680 22.322
8.9831 22.475
8.9983 22.198
9.0135 22.490
9.0287 22.893
9.0438 22.600
9.0590 22.095
9.0742 22.437
9.0894 22.487
9.1045 22.758
9.1197 22.728
9.1349 22.673
9.1501 22.881
9.1652 22.405
9.1804 22.186
9.1956 22.657
9.2108 22.882
9.2259 22.784
9.2411 22.583
9.2563 22.790
9.2715 22.933
9.2866 23.169
9.3018 22.939
9.3170 22.705
9.3322 22.590
9.3473 22.777
9.3625 22.864
9.3777 23.102
9.3929 23.305
9.4080 22.963
9.4232 23.176
9.4384 22.978
9.4536 22.588
9.4687 22.888
9.4839 22.998
9.4991 23.195
9.5143 23.221
9.5294 23.287
9.5446 22.968
9.5598 23.074
9.5750 23.253
9.5901 22.972
9.6053 23.106
9.6205 23.251
9.6357 23.296
9.6508 23.120
9.6660 23.076
9.6812 23.481
9.6964 23.772
9.7115 23.937
9.7267 23.927
9.7419 23.888
9.7571 24.248
9.7722 24.138
9.7874 23.797
9.8026 23.664
9.8178 23.770
9.8329 23.412
9.8481 22.868
9.8633 23.004
9.8785 23.216
9.8936 23.270
9.9088 23.130
9.9240 22.979
9.9392 23.256
9.9543 23.239
9.9695 23.335
9.9847 23.259
9.9999 22.843
10.0150 23.076
10.0302 23.245
10.0454 23.201
10.0606 22.991
10.0757 23.063
10.0909 22.856
10.1061 22.843
10.1213 23.244
10.1364 23.109
10.1516 22.863
10.1668 23.313
10.1820 23.413
10.1971 23.280
10.2123 23.317
10.2275 23.279
10.2427 23.003
10.2578 22.915
10.2730 22.892
10.2882 22.756
10.3034 22.863
10.3185 22.886
10.3337 22.716
10.3489 22.840
10.3641 22.111
10.3792 21.803
10.3944 22.421
10.4096 22.738
10.4248 22.815
10.4399 22.501
10.4551 22.551
10.4703 22.434
10.4855 22.401
10.5006 22.355
10.5158 22.423
10.5310 22.490
10.5462 22.598
10.5613 22.556
10.5765 22.296
10.5917 22.173
10.6069 22.415
10.6220 22.650
10.6372 22.755
10.6524 22.677
10.6676 22.715
10.6827 22.446
10.6979 22.620
10.7131 22.639
10.7283 22.220
10.7434 22.034
10.7586 22.240
10.7738 22.419
10.7890 22.085
10.8041 22.012
10.8193 22.290
10.8345 21.882
10.8497 22.005
10.8648 21.981
10.8800 22.048
10.8952 22.338
10.9104 22.085
10.9255 22.134
10.9407 22.338
10.9559 21.911
10.9711 21.848
10.9862 22.024
11.0014 21.838
11.0166 21.887
11.0318 22.136
11.0469 21.694
11.0621 21.794
11.0773 21.958
11.0925 21.674
11.1076 21.687
11.1228 21.680
11.1380 21.513
11.1532 21.663
11.1683 21.544
11.1835 21.897
11.1987 21.661
11.2139 21.352
11.2290 21.505
11.2442 21.274
11.2594 21.517
11.2746 21.419
11.2897 21.325
11.3049 21.653
11.3201 21.627
11.3353 21.194
11.3504 21.020
11.3656 21.250
11.3808 21.245
11.3960 21.090
11.4111 21.117
11.4263 21.145
11.4415 21.049
11.4567 21.297
11.4718 21.050
11.4870 20.842
11.5022 20.791
11.5174 20.873
11.5325 20.942
11.5477 21.001
11.5629 20.899
11.5781 21.034
11.5932 20.769
11.6084 20.917
11.6236 20.801
11.6388 20.515
11.6539 20.362
11.6691 20.610
11.6843 20.838
11.6995 20.515
11.7146 20.396
11.7298 20.287
11.7450 20.191
11.7602 20.417
11.7753 20.083
11.7905 19.776
11.8057 19.866
11.8209 20.106
11.8360 19.977
11.8512 19.788
11.8664 19.678
11.8816 19.900
11.8967 19.751
11.9119 19.462
11.9271 19.463
11.9423 19.481
11.9574 19.270
11.9726 19.080
11.9878 19.187
12.0030 19.254
12.0181 19.299
12.0333 19.236
12.0485 19.357
12.0637 19.101
12.0788 18.677
12.0940 18.633
12.1092 18.261
12.1244 18.225
12.1395 18.291
12.1547 18.596
12.1699 18.398
12.1851 18.228
12.2002 18.637
12.2154 18.224
12.2306 17.918
12.2458 17.843
12.2609 17.800
12.2761 17.809
12.2913 17.836
12.3065 17.890
12.3216 17.675
12.3368 17.637
12.3520 17.709
12.3672 17.250
12.3823 17.131
12.3975 17.338
12.4127 17.105
12.4279 16.887
12.4430 16.778
12.4582 16.724
12.4734 16.788
12.4886 16.679
12.5037 16.821
12.5189 16.840
12.5341 16.528
12.5493 16.201
12.5644 16.084
12.5796 16.314
12.5948 15.877
12.6100 15.860
12.6251 15.878
12.6403 15.762
12.6555 15.936
12.6707 15.937
12.6858 15.809
12.7010 15.680
12.7162 15.667
12.7314 15.454
12.7465 15.445
12.7617 15.495
12.7769 15.273
12.7921 15.131
12.8072 15.083
12.8224 15.048
12.8376 14.965
12.8528 14.851
12.8679 14.693
12.8831 14.702
12.8983 14.763
12.9135 14.648
12.9286 14.596
12.9438 14.489
12.9590 14.432
12.9742 14.357
12.9893 14.181
13.0045 14.211
13.0197 14.264
13.0349 14.046
13.0500 13.799
13.0652 13.814
13.0804 13.883
13.0956 13.763
13.1107 13.725
13.1259 13.586
13.1411 13.630
13.1563 13.803
13.1714 13.365
13.1866 13.260
13.2018 13.666
13.2170 13.619
13.2321 13.456
13.2473 13.341
13.2625 13.207
13.2777 13.072
13.2928 13.033
13.3080 13.093
13.3232 12.933
13.3384 12.829
13.3535 12.869
13.3687 13.056
13.3839 13.103
13.3991 13.086
13.4142 13.049
13.4294 12.985
13.4446 12.864
13.4598 12.642
13.4749 12.423
13.4901 12.590
13.5053 12.746
13.5205 12.541
13.5356 12.426
13.5508 12.150
13.5660 12.187
13.5812 12.432
13.5963 12.192
13.6115 12.332
13.6267 12.455
13.6419 12.384
13.6570 12.268
13.6722 11.881
13.6874 11.774
13.7026 12.140
13.7177 12.389
13.7329 12.707
13.7481 12.687
13.7633 12.329
13.7784 12.121
13.7936 12.149
13.8088 12.135
13.8239 12.274
13.8391 12.131
13.8543 12.310
13.8695 12.505
13.8846 12.356
13.8998 12.391
13.9150 12.322
13.9302 12.179
13.9453 11.886
13.9605 12.008
13.9757 11.816
13.9909 11.824
14.0060 11.868
14.0212 11.865
14.0364 11.617
14.0516 11.765
14.0667 11.442
14.0819 11.823
14.0971 11.797
14.1123 11.694
14.1274 11.787
14.1426 11.945
14.1578 12.195
14.1730 11.822
14.1881 11.909
14.2033 12.155
14.2185 11.953
14.2337 11.936
14.2488 11.949
14.2640 11.858
14.2792 12.197
14.2944 12.024
14.3095 11.834
14.3247 11.857
14.3399 12.031
14.3551 12.677
14.3702 12.821
14.3854 12.552
14.4006 13.323
14.4158 13.383
14.4309 12.921
14.4461 12.876
14.4613 12.693
14.4765 12.450
14.4916 12.491
14.5068 12.051
14.5220 11.569
14.5372 11.196
14.5523 11.117
14.5675 10.869
14.5827 10.967
14.5979 10.756
14.6130 10.585
14.6282 10.824
14.6434 10.858
14.6586 10.944
14.6737 10.525
14.6889 10.807
14.7041 10.590
14.7193 10.633
14.7344 10.440
14.7496 10.511
14.7648 10.836
14.7800 10.629
14.7951 10.598
14.8103 10.277
14.8255 10.129
14.8407 11.169
14.8558 10.460
14.8710 10.290
14.8862 10.304
14.9014 10.604
14.9165 10.796
14.9317 10.815
14.9469 10.446
14.9621 10.206
14.9772 10.157
14.9924 10.155
15.0076 10.298
15.0228 10.438
15.0379 10.287
15.0531 10.234
15.0683 10.496
15.0835 10.344
15.0986 10.012
15.1138 10.410
15.1290 10.526
15.1442 10.307
15.1593 10.339
15.1745 10.551
15.1897 10.461
15.2049 10.298
15.2200 10.180
15.2352 10.034
15.2504 10.327
15.2656 10.271
15.2807 10.093
15.2959 10.052
15.3111 10.057
15.3263 10.144
15.3414 10.455
15.3566 10.112
15.3718 10.064
15.3870 10.171
15.4021 10.411
15.4173 9.856
15.4325 10.066
15.4477 10.206
15.4628 10.217
15.4780 10.280
15.4932 9.837
15.5084 10.061
15.5235 10.177
15.5387 10.174
15.5539 9.856
15.5691 10.086
15.5842 10.204
15.5994 9.966
15.6146 9.746
15.6298 9.791
15.6449 9.911
15.6601 9.876
15.6753 9.689
15.6905 10.003
15.7056 9.689
15.7208 9.792
15.7360 9.928
15.7512 9.874
15.7663 9.745
15.7815 10.046
15.7967 9.795
15.8119 9.647
15.8270 9.592
15.8422 9.552
15.8574 9.410
15.8726 9.531
15.8877 9.572
15.9029 9.481
15.9181 9.552
15.9333 9.428
15.9484 9.588
15.9636 9.613
15.9788 9.638
15.9940 9.615
16.0091 9.471
16.0243 9.284
16.0395 9.563
16.0547 9.702
16.0698 9.707
16.0850 9.631
16.1002 9.658
16.1154 9.574
16.1305 9.361
16.1457 9.434
16.1609 9.599
16.1761 9.465
16.1912 9.591
16.2064 9.785
16.2216 9.908
16.2368 9.829
16.2519 9.551
16.2671 9.650
16.2823 9.974
16.2975 9.843
16.3126 9.792
16.3278 9.633
16.3430 9.727
16.3582 9.894
16.3733 10.059
16.3885 9.802
16.4037 9.704
16.4189 9.821
16.4340 9.855
16.4492 9.788
16.4644 9.559
16.4796 9.676
16.4947 9.671
16.5099 9.696
16.5251 9.672
16.5403 9.531
16.5554 9.607
16.5706 9.418
16.5858 9.462
16.6010 9.841
16.6161 9.748
16.6313 9.769
16.6465 9.823
16.6617 9.597
16.6768 9.672
16.6920 9.743
16.7072 9.843
16.7224 9.948
16.7375 9.858
16.7527 9.875
16.7679 9.933
16.7831 9.985
16.7982 9.905
16.8134 9.801
16.8286 10.054
16.8438 9.947
16.8589 9.709
16.8741 9.822
16.8893 9.801
16.9045 9.762
16.9196 9.744
16.9348 9.716
16.9500 9.656
16.9652 9.782
16.9803 9.934
16.9955 10.092
17.0107 9.885
17.0259 9.735
17.0410 9.904
17.0562 10.073
17.0714 10.343
17.0866 10.385
17.1017 10.428
17.1169 10.548
17.1321 10.940
17.1473 11.514
17.1624 11.851
17.1776 12.514
17.1928 13.170
17.2080 13.793
17.2231 14.936
17.2383 16.435
17.2535 17.782
17.2687 18.602
17.2838 18.732
17.2990 18.010
17.3142 16.815
17.3294 16.155
17.3445 16.117
17.3597 15.982
17.3749 15.932
17.3901 15.423
17.4052 14.370
17.4204 13.483
17.4356 12.622
17.4508 12.288
17.4659 12.015
17.4811 11.572
17.4963 11.669
17.5115 11.538
17.5266 11.191
17.5418 11.080
17.5570 10.912
17.5722 10.804
17.5873 10.921
17.6025 11.089
17.6177 11.195
17.6329 11.288
17.6480 11.214
17.6632 11.324
17.6784 11.588
17.6936 11.531
17.7087 11.438
17.7239 11.200
17.7391 10.915
17.7543 10.943
17.7694 11.089
17.7846 11.274
17.7998 11.034
17.8150 10.735
17.8301 10.567
17.8453 10.381
17.8605 10.257
17.8757 10.236
17.8908 10.298
17.9060 10.261
17.9212 10.136
17.9364 10.029
17.9515 9.912
17.9667 9.881
17.9819 10.108
17.9971 10.276
18.0122 10.182
18.0274 10.176
18.0426 10.392
18.0578 10.326
18.0729 10.120
18.0881 10.065
18.1033 10.030
18.1185 10.076
18.1336 10.303
18.1488 10.247
18.1640 10.040
18.1792 10.008
18.1943 10.060
18.2095 10.117
18.2247 10.096
18.2399 10.113
18.2550 9.919
18.2702 9.783
18.2854 9.698
18.3006 9.794
18.3157 9.909
18.3309 9.996
18.3461 9.799
18.3613 9.763
18.3764 9.572
18.3916 9.744
18.4068 9.671
18.4220 9.546
18.4371 9.545
18.4523 9.445
18.4675 9.576
18.4827 9.780
18.4978 9.777
18.5130 9.567
18.5282 9.748
18.5434 9.808
18.5585 9.787
18.5737 9.756
18.5889 9.607
18.6041 9.793
18.6192 9.901
18.6344 9.677
18.6496 9.704
18.6648 9.986
18.6799 9.850
18.6951 9.685
18.7103 9.802
18.7255 9.828
18.7406 9.830
18.7558 9.622
18.7710 9.570
18.7862 9.685
18.8013 9.689
18.8165 9.619
18.8317 9.869
18.8469 9.969
18.8620 9.871
18.8772 10.284
18.8924 10.078
18.9076 9.724
18.9227 9.856
18.9379 9.825
18.9531 9.948
18.9683 10.053
18.9834 9.979
18.9986 10.081
19.0138 10.199
19.0290 10.202
19.0441 10.075
19.0593 9.970
19.0745 10.187
19.0897 10.381
19.1048 10.245
19.1200 10.482
19.1352 10.518
19.1504 10.339
19.1655 10.433
19.1807 10.514
19.1959 10.439
19.2111 10.645
19.2262 10.709
19.2414 10.658
19.2566 10.858
19.2718 10.627
19.2869 10.620
19.3021 10.924
19.3173 11.152
19.3325 11.119
19.3476 10.895
19.3628 10.858
19.3780 10.964
19.3932 10.977
19.4083 11.198
19.4235 11.378
19.4387 11.271
19.4539 11.170
19.4690 11.307
19.4842 11.295
19.4994 11.272
19.5146 11.327
19.5297 11.466
19.5449 11.749
19.5601 11.776
19.5753 11.820
19.5904 11.703
19.6056 11.606
19.6208 11.671
19.6360 11.753
19.6511 11.737
19.6663 11.823
19.6815 11.870
19.6967 11.688
19.7118 11.643
19.7270 11.746
19.7422 11.863
19.7574 11.884
19.7725 11.956
19.7877 11.974
19.8029 11.977
19.8180 12.000
19.8332 12.218
19.8484 12.258
19.8636 12.311
19.8787 12.597
19.8939 12.943
19.9091 13.197
19.9243 13.488
19.9394 13.841
19.9546 13.935
19.9698 14.082
19.9850 14.485
20.0001 14.557
20.0153 14.224
20.0305 13.865
20.0457 13.618
20.0608 13.660
20.0760 13.691
20.0912 13.657
20.1064 13.722
20.1215 13.422
20.1367 13.061
20.1519 13.002
20.1671 12.983
20.1822 12.570
20.1974 12.423
20.2126 12.627
20.2278 12.611
20.2429 12.646
20.2581 12.460
20.2733 11.928
20.2885 11.895
20.3036 11.928
20.3188 11.900
20.3340 11.983
20.3492 11.878
20.3643 11.799
20.3795 11.978
20.3947 11.525
20.4099 11.587
20.4250 11.737
20.4402 11.960
20.4554 12.033
20.4706 11.990
20.4857 11.818
20.5009 11.532
20.5161 11.397
20.5313 11.262
20.5464 11.372
20.5616 11.315
20.5768 11.311
20.5920 11.247
20.6071 10.844
20.6223 10.933
20.6375 11.028
20.6527 11.052
20.6678 10.926
20.6830 10.983
20.6982 10.743
20.7134 10.354
20.7285 10.437
20.7437 10.607
20.7589 10.394
20.7741 10.312
20.7892 10.125
20.8044 10.299
20.8196 10.269
20.8348 10.062
20.8499 10.337
20.8651 10.423
20.8803 10.200
20.8955 10.143
20.9106 10.334
20.9258 10.139
20.9410 9.833
20.9562 10.125
20.9713 9.919
20.9865 9.980
21.0017 10.171
21.0169 10.180
21.0320 10.222
21.0472 10.006
21.0624 10.052
21.0776 9.881
21.0927 9.784
21.1079 9.884
21.1231 9.685
21.1383 9.893
21.1534 10.104
21.1686 9.923
21.1838 9.712
21.1990 9.660
21.2141 9.956
21.2293 9.968
21.2445 9.481
21.2597 9.581
21.2748 9.852
21.2900 9.621
21.3052 9.855
21.3204 9.496
21.3355 9.514
21.3507 9.658
21.3659 9.621
21.3811 9.461
21.3962 9.460
21.4114 9.444
21.4266 9.592
21.4418 9.504
21.4569 9.377
21.4721 9.355
21.4873 9.408
21.5025 9.406
21.5176 9.334
21.5328 9.306
21.5480 9.299
21.5632 9.191
21.5783 8.982
21.5935 9.220
21.6087 9.229
21.6239 9.272
21.6390 9.025
21.6542 9.027
21.6694 9.294
21.6846 9.337
21.6997 9.207
21.7149 9.108
21.7301 9.125
21.7453 9.078
21.7604 9.143
21.7756 9.201
21.7908 9.087
21.8060 8.854
21.8211 8.824
21.8363 9.077
21.8515 9.152
21.8667 9.241
21.8818 9.097
21.8970 9.026
21.9122 8.932
21.9274 9.021
21.9425 9.026
21.9577 8.824
21.9729 8.746
21.9881 8.797
22.0032 8.866
22.0184 8.725
22.0336 8.704
22.0488 8.731
22.0639 8.654
22.0791 8.765
22.0943 8.645
22.1095 8.444
22.1246 8.458
22.1398 8.433
22.1550 8.619
22.1702 8.624
22.1853 8.626
22.2005 8.499
22.2157 8.540
22.2309 8.554
22.2460 8.554
22.2612 8.693
22.2764 8.536
22.2916 8.695
22.3067 8.461
22.3219 8.375
22.3371 8.497
22.3523 8.546
22.3674 8.426
22.3826 8.443
22.3978 8.481
22.4130 8.492
22.4281 8.525
22.4433 8.383
22.4585 8.405
22.4737 8.637
22.4888 8.469
22.5040 8.542
22.5192 8.397
22.5344 8.519
22.5495 8.258
22.5647 8.563
22.5799 8.282
22.5951 8.326
22.6102 8.258
22.6254 8.179
22.6406 8.456
22.6558 8.420
22.6709 8.136
22.6861 8.128
22.7013 8.182
22.7165 7.831
22.7316 6.293
