'Id: "" Comment: "" Operator: "Lab Manager" Anode: "Mo" Scantype: "Still (Eiger2R_500K (1D mode))" TimePerStep: "300" X: "11.8" Y: "9.4" Z: "11.284" 
7.2532 18.779
7.2684 18.787
7.2836 19.166
7.2987 19.344
7.3139 18.942
7.3291 18.924
7.3443 19.358
7.3594 19.536
7.3746 19.196
7.3898 19.137
7.4050 19.657
7.4201 19.861
7.4353 19.794
7.4505 19.392
7.4657 19.719
7.4808 19.771
7.4960 19.794
7.5112 19.770
7.5264 19.815
7.5415 19.598
7.5567 19.847
7.5719 20.061
7.5871 20.379
7.6022 19.977
7.6174 20.413
7.6326 20.390
7.6478 20.380
7.6629 20.408
7.6781 20.279
7.6933 20.136
7.7085 20.113
7.7236 20.564
7.7388 20.506
7.7540 20.466
7.7692 20.557
7.7843 20.686
7.7995 20.854
7.8147 20.860
7.8299 20.831
7.8450 20.832
7.8602 21.196
7.8754 20.999
7.8905 21.076
7.9057 21.246
7.9209 21.271
7.9361 21.161
7.9512 20.717
7.9664 20.910
7.9816 21.203
7.9968 21.255
8.0119 21.267
8.0271 21.091
8.0423 20.758
8.0575 20.986
8.0726 21.198
8.0878 21.159
8.1030 21.242
8.1182 21.511
8.1333 21.475
8.1485 21.272
8.1637 21.764
8.1789 21.743
8.1940 21.220
8.2092 21.086
8.2244 21.747
8.2396 21.794
8.2547 22.219
8.2699 22.111
8.2851 22.261
8.3003 22.082
8.3154 22.073
8.3306 21.939
8.3458 21.893
8.3610 21.782
8.3761 21.597
8.3913 22.068
8.4065 22.149
8.4217 21.706
8.4368 21.954
8.4520 21.902
8.4672 21.647
8.4824 22.043
8.4975 21.939
8.5127 22.485
8.5279 22.658
8.5431 22.493
8.5582 22.455
8.5734 22.872
8.5886 22.286
8.6038 22.374
8.6189 22.351
8.6341 22.131
8.6493 22.617
8.6645 22.556
8.6796 22.706
8.6948 22.809
8.7100 22.819
8.7252 22.920
8.7403 22.862
8.7555 22.920
8.7707 22.876
8.7859 23.210
8.8010 23.210
8.8162 22.351
8.8314 22.240
8.8466 22.814
8.8617 22.865
8.8769 23.170
8.8921 22.714
8.9073 22.919
8.9224 23.102
8.9376 22.457
8.9528 22.713
8.9680 22.725
8.9831 22.475
8.9983 22.769
9.0135 22.642
9.0287 22.629
9.0438 22.768
9.0590 22.557
9.0742 22.832
9.0894 22.732
9.1045 22.986
9.1197 23.208
9.1349 22.485
9.1501 22.361
9.1652 22.795
9.1804 23.050
9.1956 22.859
9.2108 22.961
9.2259 23.139
9.2411 22.816
9.2563 23.089
9.2715 22.924
9.2866 22.760
9.3018 23.065
9.3170 23.398
9.3322 23.316
9.3473 23.131
9.3625 23.237
9.3777 23.231
9.3929 23.447
9.4080 23.468
9.4232 23.006
9.4384 22.945
9.4536 23.423
9.4687 23.390
9.4839 23.396
9.4991 23.440
9.5143 23.158
9.5294 23.294
9.5446 23.440
9.5598 23.385
9.5750 23.399
9.5901 23.385
9.6053 23.353
9.6205 23.182
9.6357 23.468
9.6508 23.868
9.6660 23.858
9.6812 23.691
9.6964 23.637
9.7115 23.806
9.7267 24.144
9.7419 24.379
9.7571 24.430
9.7722 24.122
9.7874 23.918
9.8026 23.773
9.8178 23.515
9.8329 23.544
9.8481 23.494
9.8633 23.331
9.8785 23.504
9.8936 23.628
9.9088 23.487
9.9240 23.246
9.9392 23.226
9.9543 23.406
9.9695 23.841
9.9847 23.896
9.9999 23.910
10.0150 24.267
10.0302 24.108
10.0454 23.826
10.0606 24.094
10.0757 24.393
10.0909 24.344
10.1061 24.061
10.1213 24.041
10.1364 24.178
10.1516 24.077
10.1668 23.919
10.1820 23.967
10.1971 24.207
10.2123 24.155
10.2275 24.158
10.2427 24.240
10.2578 23.928
10.2730 23.867
10.2882 24.016
10.3034 23.487
10.3185 23.378
10.3337 23.431
10.3489 23.362
10.3641 22.872
10.3792 22.763
10.3944 22.891
10.4096 23.172
10.4248 22.782
10.4399 22.948
10.4551 22.796
10.4703 22.847
10.4855 22.677
10.5006 22.248
10.5158 22.317
10.5310 22.924
10.5462 23.047
10.5613 22.962
10.5765 22.911
10.5917 22.631
10.6069 22.940
10.6220 23.122
10.6372 22.716
10.6524 22.700
10.6676 22.898
10.6827 22.926
10.6979 22.793
10.7131 22.921
10.7283 22.820
10.7434 22.713
10.7586 22.532
10.7738 22.389
10.7890 22.616
10.8041 22.585
10.8193 22.672
10.8345 22.562
10.8497 22.852
10.8648 22.484
10.8800 22.435
10.8952 22.315
10.9104 22.628
10.9255 22.630
10.9407 22.406
10.9559 22.203
10.9711 21.958
10.9862 22.064
11.0014 22.127
11.0166 22.159
11.0318 22.630
11.0469 22.586
11.0621 22.077
11.0773 21.958
11.0925 22.294
11.1076 21.959
11.1228 22.274
11.1380 22.151
11.1532 22.132
11.1683 21.902
11.1835 21.826
11.1987 21.760
11.2139 22.167
11.2290 22.407
11.2442 22.354
11.2594 22.254
11.2746 21.797
11.2897 22.083
11.3049 22.232
11.3201 22.125
11.3353 22.013
11.3504 21.707
11.3656 21.368
11.3808 21.609
11.3960 21.541
11.4111 21.670
11.4263 21.461
11.4415 21.396
11.4567 21.493
11.4718 21.355
11.4870 21.134
11.5022 21.313
11.5174 21.260
11.5325 21.135
11.5477 21.318
11.5629 21.455
11.5781 21.114
11.5932 20.959
11.6084 21.137
11.6236 21.000
11.6388 21.230
11.6539 20.958
11.6691 20.680
11.6843 20.351
11.6995 20.179
11.7146 20.380
11.7298 20.431
11.7450 20.563
11.7602 20.157
11.7753 20.046
11.7905 20.201
11.8057 20.254
11.8209 19.870
11.8360 19.784
11.8512 19.734
11.8664 19.849
11.8816 19.750
11.8967 19.568
11.9119 19.491
11.9271 19.607
11.9423 19.970
11.9574 19.707
11.9726 19.487
11.9878 19.445
12.0030 19.197
12.0181 19.154
12.0333 19.186
12.0485 19.161
12.0637 18.675
12.0788 19.057
12.0940 18.936
12.1092 18.632
12.1244 18.790
12.1395 18.699
12.1547 18.293
12.1699 18.339
12.1851 18.603
12.2002 18.569
12.2154 18.333
12.2306 18.106
12.2458 18.026
12.2609 17.933
12.2761 18.146
12.2913 17.859
12.3065 17.733
12.3216 17.569
12.3368 17.408
12.3520 17.524
12.3672 17.437
12.3823 17.647
12.3975 17.504
12.4127 17.284
12.4279 17.292
12.4430 17.407
12.4582 17.293
12.4734 17.112
12.4886 17.097
12.5037 16.858
12.5189 16.780
12.5341 16.681
12.5493 16.709
12.5644 16.440
12.5796 16.358
12.5948 16.375
12.6100 16.281
12.6251 16.031
12.6403 15.769
12.6555 16.040
12.6707 16.434
12.6858 16.224
12.7010 15.801
12.7162 15.542
12.7314 15.310
12.7465 15.423
12.7617 15.286
12.7769 15.144
12.7921 15.403
12.8072 15.167
12.8224 14.754
12.8376 14.854
12.8528 15.093
12.8679 15.090
12.8831 15.015
12.8983 15.025
12.9135 14.876
12.9286 14.617
12.9438 14.470
12.9590 14.532
12.9742 14.409
12.9893 14.191
13.0045 14.240
13.0197 14.041
13.0349 14.033
13.0500 14.140
13.0652 13.949
13.0804 13.897
13.0956 13.931
13.1107 14.019
13.1259 13.952
13.1411 13.868
13.1563 13.655
13.1714 13.446
13.1866 13.650
13.2018 13.838
13.2170 13.732
13.2321 13.688
13.2473 13.349
13.2625 12.947
13.2777 13.163
13.2928 13.344
13.3080 13.303
13.3232 13.064
13.3384 13.016
13.3535 13.045
13.3687 13.014
13.3839 12.989
13.3991 12.922
13.4142 13.057
13.4294 12.956
13.4446 12.616
13.4598 12.764
13.4749 12.796
13.4901 12.726
13.5053 12.576
13.5205 12.381
13.5356 12.430
13.5508 12.393
13.5660 12.243
13.5812 12.228
13.5963 12.110
13.6115 12.022
13.6267 12.031
13.6419 12.076
13.6570 12.165
13.6722 12.192
13.6874 12.171
13.7026 12.198
13.7177 11.994
13.7329 11.907
13.7481 12.035
13.7633 12.073
13.7784 12.255
13.7936 12.097
13.8088 11.925
13.8239 12.026
13.8391 11.982
13.8543 12.242
13.8695 12.495
13.8846 12.138
13.8998 12.059
13.9150 11.970
13.9302 12.109
13.9453 11.813
13.9605 11.580
13.9757 11.721
13.9909 11.803
14.0060 11.564
14.0212 11.408
14.0364 11.485
14.0516 11.316
14.0667 11.299
14.0819 11.331
14.0971 11.372
14.1123 11.056
14.1274 11.160
14.1426 11.382
14.1578 11.410
14.1730 11.628
14.1881 11.654
14.2033 11.606
14.2185 11.800
14.2337 11.794
14.2488 11.825
14.2640 12.067
14.2792 12.181
14.2944 12.084
14.3095 12.486
14.3247 12.476
14.3399 12.618
14.3551 13.000
14.3702 12.944
14.3854 13.531
14.4006 13.111
14.4158 13.310
14.4309 13.066
14.4461 13.323
14.4613 12.910
14.4765 12.839
14.4916 13.028
14.5068 12.599
14.5220 12.704
14.5372 12.832
14.5523 12.668
14.5675 12.757
14.5827 12.475
14.5979 12.212
14.6130 12.076
14.6282 11.817
14.6434 11.851
14.6586 11.672
14.6737 11.457
14.6889 11.198
14.7041 11.161
14.7193 10.981
14.7344 11.036
14.7496 11.263
14.7648 11.128
14.7800 10.848
14.7951 10.701
14.8103 10.629
14.8255 10.681
14.8407 10.943
14.8558 10.783
14.8710 10.797
14.8862 10.612
14.9014 11.031
14.9165 10.973
14.9317 11.168
14.9469 10.703
14.9621 10.497
14.9772 10.410
14.9924 10.514
15.0076 10.872
15.0228 10.527
15.0379 10.503
15.0531 10.863
15.0683 10.558
15.0835 10.242
15.0986 10.676
15.1138 10.607
15.1290 10.526
15.1442 10.559
15.1593 10.551
15.1745 10.424
15.1897 11.057
15.2049 10.400
15.2200 10.523
15.2352 10.475
15.2504 10.908
15.2656 10.348
15.2807 10.280
15.2959 10.385
15.3111 10.314
15.3263 10.423
15.3414 10.789
15.3566 10.374
15.3718 10.386
15.3870 10.284
15.4021 10.385
15.4173 10.638
15.4325 10.654
15.4477 10.210
15.4628 10.483
15.4780 10.519
15.4932 10.376
15.5084 10.725
15.5235 10.595
15.5387 10.373
15.5539 10.377
15.5691 10.364
15.5842 10.076
15.5994 10.007
15.6146 10.156
15.6298 10.315
15.6449 10.205
15.6601 10.273
15.6753 9.998
15.6905 9.770
15.7056 9.659
15.7208 9.738
15.7360 9.940
15.7512 9.843
15.7663 10.073
15.7815 9.853
15.7967 10.100
15.8119 9.926
15.8270 9.760
15.8422 9.837
15.8574 9.873
15.8726 9.685
15.8877 9.714
15.9029 9.321
15.9181 9.855
15.9333 10.071
15.9484 9.997
15.9636 9.873
15.9788 9.994
15.9940 9.865
16.0091 9.644
16.0243 9.782
16.0395 9.900
16.0547 9.672
16.0698 9.696
16.0850 9.922
16.1002 9.677
16.1154 9.729
16.1305 9.576
16.1457 9.519
16.1609 9.353
16.1761 9.737
16.1912 9.840
16.2064 9.987
16.2216 10.141
16.2368 10.282
16.2519 10.308
16.2671 9.895
16.2823 9.744
16.2975 10.109
16.3126 10.364
16.3278 10.398
16.3430 10.258
16.3582 10.161
16.3733 10.043
16.3885 10.122
16.4037 10.111
16.4189 10.292
16.4340 10.289
16.4492 9.858
16.4644 9.702
16.4796 9.858
16.4947 9.726
16.5099 9.718
16.5251 9.738
16.5403 9.758
16.5554 9.772
16.5706 9.619
16.5858 9.338
16.6010 9.268
16.6161 9.717
16.6313 9.947
16.6465 9.839
16.6617 9.733
16.6768 9.707
16.6920 9.816
16.7072 9.985
16.7224 10.220
16.7375 10.300
16.7527 10.124
16.7679 9.841
16.7831 9.949
16.7982 9.982
16.8134 10.289
16.8286 10.262
16.8438 9.814
16.8589 9.597
16.8741 9.487
16.8893 9.624
16.9045 9.738
16.9196 9.729
16.9348 9.602
16.9500 9.828
16.9652 9.890
16.9803 9.944
16.9955 10.141
17.0107 9.871
17.0259 10.067
17.0410 10.243
17.0562 10.033
17.0714 10.259
17.0866 10.456
17.1017 10.469
17.1169 10.621
17.1321 11.035
17.1473 11.458
17.1624 11.944
17.1776 12.520
17.1928 13.124
17.2080 13.866
17.2231 14.757
17.2383 15.875
17.2535 17.282
17.2687 18.158
17.2838 18.025
17.2990 17.527
17.3142 16.978
17.3294 16.462
17.3445 15.941
17.3597 15.818
17.3749 15.655
17.3901 15.127
17.4052 14.427
17.4204 13.457
17.4356 12.614
17.4508 11.794
17.4659 11.357
17.4811 11.548
17.4963 11.638
17.5115 11.430
17.5266 11.143
17.5418 11.230
17.5570 11.405
17.5722 11.362
17.5873 11.579
17.6025 11.664
17.6177 11.497
17.6329 11.214
17.6480 11.186
17.6632 11.256
17.6784 11.191
17.6936 11.183
17.7087 11.207
17.7239 11.149
17.7391 10.802
17.7543 10.756
17.7694 10.903
17.7846 11.056
17.7998 10.955
17.8150 10.958
17.8301 11.272
17.8453 11.138
17.8605 11.165
17.8757 11.478
17.8908 11.394
17.9060 11.252
17.9212 11.011
17.9364 10.891
17.9515 10.827
17.9667 10.650
17.9819 10.549
17.9971 10.447
18.0122 10.499
18.0274 10.485
18.0426 10.458
18.0578 10.353
18.0729 10.205
18.0881 10.089
18.1033 10.139
18.1185 10.346
18.1336 10.009
18.1488 9.884
18.1640 9.977
18.1792 9.915
18.1943 9.650
18.2095 9.607
18.2247 9.760
18.2399 9.784
18.2550 9.785
18.2702 9.804
18.2854 9.925
18.3006 10.111
18.3157 9.830
18.3309 9.929
18.3461 10.261
18.3613 10.054
18.3764 9.827
18.3916 9.920
18.4068 9.962
18.4220 9.933
18.4371 9.648
18.4523 9.702
18.4675 9.850
18.4827 9.896
18.4978 9.863
18.5130 9.898
18.5282 9.752
18.5434 9.706
18.5585 9.809
18.5737 9.771
18.5889 9.801
18.6041 10.000
18.6192 9.744
18.6344 9.605
18.6496 9.697
18.6648 9.753
18.6799 9.765
18.6951 9.648
18.7103 9.900
18.7255 9.996
18.7406 9.950
18.7558 9.932
18.7710 9.838
18.7862 9.638
18.8013 9.558
18.8165 9.687
18.8317 9.766
18.8469 10.018
18.8620 9.794
18.8772 9.947
18.8924 10.003
18.9076 9.839
18.9227 9.932
18.9379 9.864
18.9531 10.044
18.9683 10.054
18.9834 9.880
18.9986 9.979
19.0138 10.197
19.0290 10.183
19.0441 10.205
19.0593 10.116
19.0745 10.256
19.0897 10.350
19.1048 10.492
19.1200 10.409
19.1352 10.565
19.1504 10.672
19.1655 10.430
19.1807 10.499
19.1959 10.828
19.2111 10.606
19.2262 10.573
19.2414 10.642
19.2566 10.731
19.2718 10.738
19.2869 10.680
19.3021 10.696
19.3173 10.716
19.3325 10.875
19.3476 10.889
19.3628 11.032
19.3780 10.953
19.3932 11.096
19.4083 11.634
19.4235 11.517
19.4387 11.412
19.4539 11.232
19.4690 11.247
19.4842 11.492
19.4994 11.426
19.5146 11.382
19.5297 11.673
19.5449 11.628
19.5601 11.439
19.5753 11.495
19.5904 11.458
19.6056 11.580
19.6208 11.697
19.6360 11.734
19.6511 11.771
19.6663 11.575
19.6815 11.493
19.6967 11.516
19.7118 11.666
19.7270 11.714
19.7422 11.607
19.7574 11.676
19.7725 11.814
19.7877 11.875
19.8029 11.996
19.8180 12.070
19.8332 12.137
19.8484 12.196
19.8636 12.263
19.8787 12.501
19.8939 12.878
19.9091 13.001
19.9243 13.246
19.9394 13.602
19.9546 13.715
19.9698 14.103
19.9850 14.723
20.0001 14.531
20.0153 14.061
20.0305 13.816
20.0457 13.829
20.0608 13.658
20.0760 13.439
20.0912 13.590
20.1064 13.508
20.1215 13.438
20.1367 13.412
20.1519 13.127
20.1671 12.975
20.1822 13.162
20.1974 12.907
20.2126 12.770
20.2278 12.925
20.2429 12.897
20.2581 12.617
20.2733 12.354
20.2885 12.050
20.3036 11.900
20.3188 11.991
20.3340 11.847
20.3492 11.780
20.3643 11.712
20.3795 11.400
20.3947 11.400
20.4099 11.292
20.4250 11.122
20.4402 11.045
20.4554 11.395
20.4706 11.169
20.4857 11.052
20.5009 11.209
20.5161 11.043
20.5313 11.000
20.5464 10.850
20.5616 11.141
20.5768 11.164
20.5920 10.914
20.6071 10.839
20.6223 11.095
20.6375 11.036
20.6527 11.073
20.6678 10.817
20.6830 10.729
20.6982 10.969
20.7134 10.884
20.7285 10.793
20.7437 10.884
20.7589 10.715
20.7741 10.692
20.7892 10.854
20.8044 10.586
20.8196 10.430
20.8348 10.654
20.8499 10.598
20.8651 10.521
20.8803 10.358
20.8955 10.323
20.9106 10.058
20.9258 10.487
20.9410 10.519
20.9562 10.257
20.9713 10.227
20.9865 10.140
21.0017 10.000
21.0169 10.141
21.0320 10.255
21.0472 10.117
21.0624 9.991
21.0776 9.786
21.0927 9.900
21.1079 9.868
21.1231 9.784
21.1383 9.932
21.1534 9.699
21.1686 9.890
21.1838 9.767
21.1990 10.085
21.2141 9.581
21.2293 9.786
21.2445 9.921
21.2597 9.648
21.2748 9.423
21.2900 9.561
21.3052 9.508
21.3204 9.341
21.3355 9.660
21.3507 9.698
21.3659 9.541
21.3811 9.635
21.3962 9.263
21.4114 9.432
21.4266 9.396
21.4418 9.465
21.4569 9.242
21.4721 9.240
21.4873 9.259
21.5025 9.358
21.5176 9.694
21.5328 9.427
21.5480 9.228
21.5632 9.492
21.5783 9.225
21.5935 9.074
21.6087 9.402
21.6239 9.229
21.6390 9.277
21.6542 9.417
21.6694 9.153
21.6846 8.973
21.6997 9.334
21.7149 9.107
21.7301 8.998
21.7453 9.159
21.7604 9.276
21.7756 9.137
21.7908 9.081
21.8060 9.030
21.8211 9.105
21.8363 9.008
21.8515 8.974
21.8667 8.781
21.8818 8.961
21.8970 9.146
21.9122 9.208
21.9274 9.312
21.9425 9.406
21.9577 9.066
21.9729 8.927
21.9881 8.964
22.0032 8.738
22.0184 8.723
22.0336 8.807
22.0488 8.971
22.0639 8.958
22.0791 8.707
22.0943 8.737
22.1095 8.717
22.1246 8.649
22.1398 8.644
22.1550 8.697
22.1702 8.652
22.1853 8.722
22.2005 8.691
22.2157 8.672
22.2309 8.783
22.2460 8.627
22.2612 8.547
22.2764 8.563
22.2916 8.372
22.3067 8.494
22.3219 8.546
22.3371 8.567
22.3523 8.438
22.3674 8.556
22.3826 8.495
22.3978 8.517
22.4130 8.531
22.4281 8.559
22.4433 8.414
22.4585 8.450
22.4737 8.239
22.4888 8.585
22.5040 8.467
22.5192 8.464
22.5344 8.416
22.5495 8.502
22.5647 8.520
22.5799 8.410
22.5951 8.148
22.6102 8.545
22.6254 8.326
22.6406 8.347
22.6558 8.486
22.6709 8.158
22.6861 8.302
22.7013 8.250
22.7165 8.083
22.7316 6.542
