'Id: "" Comment: "" Operator: "Lab Manager" Anode: "Mo" Scantype: "Still (Eiger2R_500K (1D mode))" TimePerStep: "300" X: "11.8" Y: "9.4" Z: "11.284" 
7.2532 18.749
7.2684 18.716
7.2836 18.782
7.2987 18.937
7.3139 18.780
7.3291 18.997
7.3443 19.555
7.3594 19.640
7.3746 19.533
7.3898 19.234
7.4050 19.540
7.4201 19.716
7.4353 19.494
7.4505 19.772
7.4657 19.815
7.4808 19.709
7.4960 19.514
7.5112 19.760
7.5264 19.603
7.5415 19.673
7.5567 20.061
7.5719 20.023
7.5871 19.754
7.6022 19.896
7.6174 20.263
7.6326 20.252
7.6478 20.205
7.6629 20.362
7.6781 20.070
7.6933 20.085
7.7085 20.207
7.7236 20.405
7.7388 20.662
7.7540 20.659
7.7692 20.531
7.7843 20.769
7.7995 20.580
7.8147 20.441
7.8299 20.589
7.8450 20.565
7.8602 20.573
7.8754 20.569
7.8905 20.902
7.9057 20.845
7.9209 20.727
7.9361 20.879
7.9512 20.782
7.9664 20.943
7.9816 20.873
7.9968 20.977
8.0119 21.184
8.0271 21.127
8.0423 21.354
8.0575 21.501
8.0726 21.611
8.0878 21.327
8.1030 21.812
8.1182 21.898
8.1333 21.614
8.1485 21.617
8.1637 21.363
8.1789 21.621
8.1940 21.187
8.2092 21.546
8.2244 21.669
8.2396 21.285
8.2547 21.836
8.2699 21.860
8.2851 21.917
8.3003 21.535
8.3154 21.984
8.3306 21.978
8.3458 21.739
8.3610 21.838
8.3761 21.792
8.3913 22.076
8.4065 21.873
8.4217 21.938
8.4368 21.763
8.4520 22.039
8.4672 21.509
8.4824 21.966
8.4975 22.024
8.5127 22.286
8.5279 22.478
8.5431 21.746
8.5582 21.978
8.5734 22.146
8.5886 22.055
8.6038 22.433
8.6189 22.908
8.6341 22.585
8.6493 22.041
8.6645 22.231
8.6796 22.747
8.6948 22.304
8.7100 22.151
8.7252 22.651
8.7403 22.844
8.7555 21.969
8.7707 22.269
8.7859 23.022
8.8010 22.625
8.8162 21.956
8.8314 22.629
8.8466 22.760
8.8617 22.303
8.8769 22.029
8.8921 22.693
8.9073 22.958
8.9224 22.879
8.9376 22.689
8.9528 22.770
8.9680 22.709
8.9831 22.595
8.9983 22.910
9.0135 22.648
9.0287 22.366
9.0438 22.670
9.0590 22.879
9.0742 22.833
9.0894 22.958
9.1045 22.787
9.1197 22.857
9.1349 22.822
9.1501 23.044
9.1652 23.327
9.1804 23.123
9.1956 22.461
9.2108 22.846
9.2259 22.807
9.2411 22.974
9.2563 23.086
9.2715 23.204
9.2866 23.214
9.3018 22.979
9.3170 23.076
9.3322 23.223
9.3473 22.820
9.3625 22.796
9.3777 22.816
9.3929 23.411
9.4080 23.266
9.4232 23.218
9.4384 23.368
9.4536 23.241
9.4687 23.146
9.4839 23.066
9.4991 23.119
9.5143 23.244
9.5294 23.249
9.5446 23.200
9.5598 23.293
9.5750 23.569
9.5901 23.498
9.6053 23.145
9.6205 23.372
9.6357 23.448
9.6508 23.365
9.6660 23.705
9.6812 24.149
9.6964 24.294
9.7115 24.254
9.7267 24.150
9.7419 24.140
9.7571 24.089
9.7722 24.175
9.7874 23.936
9.8026 23.776
9.8178 24.056
9.8329 23.889
9.8481 23.444
9.8633 23.307
9.8785 23.302
9.8936 23.498
9.9088 23.547
9.9240 23.354
9.9392 23.303
9.9543 23.313
9.9695 23.355
9.9847 23.467
9.9999 23.020
10.0150 23.093
10.0302 23.665
10.0454 23.264
10.0606 23.101
10.0757 23.669
10.0909 23.722
10.1061 23.399
10.1213 23.514
10.1364 23.533
10.1516 23.352
10.1668 23.172
10.1820 23.344
10.1971 23.431
10.2123 23.381
10.2275 23.183
10.2427 22.970
10.2578 22.834
10.2730 23.111
10.2882 22.809
10.3034 22.965
10.3185 23.101
10.3337 23.109
10.3489 22.897
10.3641 22.787
10.3792 22.745
10.3944 22.833
10.4096 22.799
10.4248 22.610
10.4399 22.689
10.4551 22.784
10.4703 22.869
10.4855 22.633
10.5006 22.597
10.5158 22.990
10.5310 22.818
10.5462 22.726
10.5613 22.833
10.5765 22.561
10.5917 22.754
10.6069 22.886
10.6220 23.131
10.6372 22.870
10.6524 22.917
10.6676 22.614
10.6827 22.297
10.6979 22.555
10.7131 22.907
10.7283 22.810
10.7434 22.531
10.7586 22.527
10.7738 22.038
10.7890 22.186
10.8041 22.365
10.8193 22.241
10.8345 22.244
10.8497 22.231
10.8648 22.056
10.8800 22.044
10.8952 22.108
10.9104 22.696
10.9255 22.520
10.9407 22.412
10.9559 22.331
10.9711 21.967
10.9862 21.641
11.0014 21.843
11.0166 22.054
11.0318 22.299
11.0469 22.341
11.0621 22.291
11.0773 21.979
11.0925 21.946
11.1076 21.861
11.1228 21.965
11.1380 21.935
11.1532 21.615
11.1683 21.865
11.1835 21.947
11.1987 21.907
11.2139 22.007
11.2290 21.762
11.2442 21.685
11.2594 21.853
11.2746 21.500
11.2897 21.504
11.3049 21.950
11.3201 22.172
11.3353 21.931
11.3504 21.958
11.3656 21.674
11.3808 21.261
11.3960 21.486
11.4111 21.472
11.4263 21.390
11.4415 21.246
11.4567 21.011
11.4718 21.092
11.4870 21.360
11.5022 21.483
11.5174 21.472
11.5325 21.372
11.5477 20.960
11.5629 20.919
11.5781 21.174
11.5932 21.025
11.6084 20.317
11.6236 20.423
11.6388 20.524
11.6539 20.470
11.6691 20.569
11.6843 20.778
11.6995 20.486
11.7146 20.245
11.7298 20.507
11.7450 20.708
11.7602 20.765
11.7753 20.725
11.7905 20.129
11.8057 20.272
11.8209 20.581
11.8360 20.193
11.8512 19.867
11.8664 19.734
11.8816 19.736
11.8967 19.812
11.9119 19.749
11.9271 19.561
11.9423 19.467
11.9574 19.529
11.9726 19.585
11.9878 19.445
12.0030 19.323
12.0181 19.353
12.0333 19.087
12.0485 19.104
12.0637 19.087
12.0788 19.044
12.0940 18.756
12.1092 18.899
12.1244 18.948
12.1395 18.926
12.1547 18.292
12.1699 18.440
12.1851 18.547
12.2002 18.291
12.2154 18.131
12.2306 18.253
12.2458 18.186
12.2609 18.044
12.2761 17.926
12.2913 17.696
12.3065 17.738
12.3216 17.782
12.3368 17.659
12.3520 17.577
12.3672 17.643
12.3823 17.392
12.3975 17.228
12.4127 17.515
12.4279 17.060
12.4430 16.772
12.4582 16.787
12.4734 16.641
12.4886 16.464
12.5037 16.535
12.5189 16.559
12.5341 16.413
12.5493 16.278
12.5644 16.449
12.5796 16.508
12.5948 16.350
12.6100 16.257
12.6251 16.068
12.6403 16.036
12.6555 16.012
12.6707 15.826
12.6858 15.793
12.7010 15.658
12.7162 15.475
12.7314 15.463
12.7465 15.675
12.7617 15.368
12.7769 15.388
12.7921 15.310
12.8072 15.133
12.8224 15.248
12.8376 15.038
12.8528 14.901
12.8679 14.750
12.8831 14.898
12.8983 14.812
12.9135 14.682
12.9286 14.800
12.9438 14.622
12.9590 14.261
12.9742 14.351
12.9893 14.615
13.0045 14.462
13.0197 14.336
13.0349 14.483
13.0500 14.258
13.0652 14.220
13.0804 14.050
13.0956 13.912
13.1107 13.975
13.1259 13.884
13.1411 13.604
13.1563 13.586
13.1714 13.806
13.1866 13.623
13.2018 13.720
13.2170 13.856
13.2321 13.661
13.2473 13.511
13.2625 13.467
13.2777 13.399
13.2928 13.367
13.3080 13.322
13.3232 13.202
13.3384 13.096
13.3535 13.127
13.3687 13.170
13.3839 13.267
13.3991 13.043
13.4142 13.003
13.4294 12.936
13.4446 12.765
13.4598 12.771
13.4749 12.702
13.4901 12.682
13.5053 12.576
13.5205 12.476
13.5356 12.548
13.5508 12.755
13.5660 12.619
13.5812 12.260
13.5963 12.098
13.6115 12.300
13.6267 12.284
13.6419 12.266
13.6570 12.231
13.6722 12.155
13.6874 12.186
13.7026 12.234
13.7177 12.237
13.7329 12.168
13.7481 12.059
13.7633 12.275
13.7784 12.067
13.7936 12.084
13.8088 12.157
13.8239 12.531
13.8391 12.577
13.8543 12.591
13.8695 12.272
13.8846 12.090
13.8998 12.216
13.9150 12.109
13.9302 11.883
13.9453 11.923
13.9605 11.980
13.9757 11.941
13.9909 11.692
14.0060 11.680
14.0212 11.528
14.0364 11.553
14.0516 11.477
14.0667 11.645
14.0819 11.476
14.0971 11.690
14.1123 11.662
14.1274 11.675
14.1426 11.500
14.1578 11.380
14.1730 11.737
14.1881 11.436
14.2033 11.377
14.2185 11.155
14.2337 11.543
14.2488 11.604
14.2640 11.800
14.2792 11.952
14.2944 12.180
14.3095 12.071
14.3247 12.430
14.3399 12.711
14.3551 12.716
14.3702 13.218
14.3854 13.315
14.4006 13.602
14.4158 13.559
14.4309 13.299
14.4461 12.884
14.4613 12.934
14.4765 12.800
14.4916 12.683
14.5068 12.251
14.5220 11.756
14.5372 11.735
14.5523 11.784
14.5675 11.035
14.5827 11.250
14.5979 11.392
14.6130 10.868
14.6282 10.911
14.6434 10.871
14.6586 11.069
14.6737 11.031
14.6889 10.611
14.7041 10.787
14.7193 10.923
14.7344 10.975
14.7496 10.480
14.7648 10.843
14.7800 10.827
14.7951 10.832
14.8103 9.918
14.8255 10.774
14.8407 10.749
14.8558 10.652
14.8710 10.796
14.8862 10.730
14.9014 10.487
14.9165 10.791
14.9317 10.802
14.9469 10.511
14.9621 10.493
14.9772 10.340
14.9924 10.627
15.0076 10.726
15.0228 10.652
15.0379 10.206
15.0531 10.297
15.0683 10.311
15.0835 10.508
15.0986 10.599
15.1138 10.389
15.1290 10.790
15.1442 10.363
15.1593 10.516
15.1745 10.235
15.1897 10.101
15.2049 10.108
15.2200 10.272
15.2352 10.469
15.2504 10.117
15.2656 10.345
15.2807 10.246
15.2959 10.187
15.3111 10.477
15.3263 10.214
15.3414 10.205
15.3566 10.375
15.3718 10.166
15.3870 10.337
15.4021 10.436
15.4173 10.332
15.4325 10.465
15.4477 10.264
15.4628 10.215
15.4780 10.216
15.4932 10.129
15.5084 10.014
15.5235 9.990
15.5387 10.256
15.5539 10.075
15.5691 10.263
15.5842 10.087
15.5994 10.531
15.6146 10.244
15.6298 10.094
15.6449 10.075
15.6601 9.843
15.6753 9.797
15.6905 10.074
15.7056 10.112
15.7208 10.064
15.7360 9.913
15.7512 10.027
15.7663 9.704
15.7815 9.872
15.7967 10.020
15.8119 10.010
15.8270 9.975
15.8422 9.591
15.8574 9.609
15.8726 9.916
15.8877 9.885
15.9029 9.553
15.9181 9.558
15.9333 9.782
15.9484 9.797
15.9636 9.692
15.9788 9.729
15.9940 9.809
16.0091 9.997
16.0243 9.771
16.0395 9.665
16.0547 9.770
16.0698 9.956
16.0850 9.918
16.1002 9.926
16.1154 9.576
16.1305 9.430
16.1457 9.414
16.1609 9.621
16.1761 9.988
16.1912 9.782
16.2064 9.741
16.2216 9.455
16.2368 9.866
16.2519 9.787
16.2671 9.700
16.2823 9.811
16.2975 9.919
16.3126 9.828
16.3278 9.983
16.3430 9.977
16.3582 9.933
16.3733 10.353
16.3885 10.216
16.4037 10.083
16.4189 10.134
16.4340 9.857
16.4492 9.880
16.4644 9.891
16.4796 9.912
16.4947 9.803
16.5099 9.666
16.5251 9.651
16.5403 9.666
16.5554 9.766
16.5706 9.647
16.5858 9.717
16.6010 9.879
16.6161 9.961
16.6313 9.940
16.6465 9.794
16.6617 9.792
16.6768 9.780
16.6920 10.095
16.7072 10.324
16.7224 10.137
16.7375 9.969
16.7527 9.978
16.7679 9.976
16.7831 10.071
16.7982 10.248
16.8134 9.939
16.8286 9.623
16.8438 9.833
16.8589 10.030
16.8741 9.959
16.8893 9.898
16.9045 10.027
16.9196 9.866
16.9348 9.768
16.9500 9.949
16.9652 9.976
16.9803 9.973
16.9955 9.872
17.0107 9.722
17.0259 9.713
17.0410 9.842
17.0562 10.099
17.0714 10.408
17.0866 10.454
17.1017 10.455
17.1169 10.577
17.1321 11.013
17.1473 11.406
17.1624 11.727
17.1776 12.317
17.1928 13.253
17.2080 14.105
17.2231 15.274
17.2383 16.473
17.2535 17.411
17.2687 18.389
17.2838 18.672
17.2990 18.018
17.3142 16.794
17.3294 16.189
17.3445 16.097
17.3597 15.634
17.3749 15.621
17.3901 15.214
17.4052 14.077
17.4204 12.960
17.4356 12.203
17.4508 11.948
17.4659 11.605
17.4811 11.356
17.4963 11.193
17.5115 10.982
17.5266 10.820
17.5418 10.760
17.5570 10.504
17.5722 10.473
17.5873 10.724
17.6025 10.851
17.6177 10.824
17.6329 10.930
17.6480 11.430
17.6632 11.783
17.6784 11.855
17.6936 11.881
17.7087 11.661
17.7239 11.253
17.7391 11.244
17.7543 11.226
17.7694 11.283
17.7846 11.188
17.7998 11.071
17.8150 10.905
17.8301 10.763
17.8453 10.530
17.8605 10.376
17.8757 10.433
17.8908 10.488
17.9060 10.459
17.9212 10.351
17.9364 10.298
17.9515 10.097
17.9667 10.206
17.9819 10.254
17.9971 10.047
18.0122 10.301
18.0274 10.521
18.0426 10.309
18.0578 10.263
18.0729 10.225
18.0881 10.012
18.1033 10.061
18.1185 9.899
18.1336 9.928
18.1488 9.949
18.1640 10.076
18.1792 9.957
18.1943 9.893
18.2095 9.942
18.2247 9.964
18.2399 10.033
18.2550 10.083
18.2702 9.972
18.2854 10.159
18.3006 9.979
18.3157 9.915
18.3309 9.717
18.3461 9.618
18.3613 9.830
18.3764 9.876
18.3916 9.884
18.4068 9.896
18.4220 9.816
18.4371 9.868
18.4523 9.761
18.4675 9.667
18.4827 9.691
18.4978 9.574
18.5130 9.804
18.5282 9.948
18.5434 9.947
18.5585 9.981
18.5737 9.901
18.5889 9.996
18.6041 9.980
18.6192 9.890
18.6344 9.675
18.6496 9.729
18.6648 9.649
18.6799 9.631
18.6951 9.779
18.7103 9.992
18.7255 9.679
18.7406 9.609
18.7558 9.744
18.7710 9.742
18.7862 9.788
18.8013 9.867
18.8165 9.780
18.8317 10.044
18.8469 10.032
18.8620 10.030
18.8772 10.189
18.8924 10.008
18.9076 9.910
18.9227 9.886
18.9379 9.889
18.9531 9.938
18.9683 9.849
18.9834 10.168
18.9986 10.398
19.0138 10.179
19.0290 9.937
19.0441 10.158
19.0593 10.345
19.0745 10.345
19.0897 10.187
19.1048 10.188
19.1200 10.418
19.1352 10.423
19.1504 10.474
19.1655 10.655
19.1807 10.548
19.1959 10.591
19.2111 10.753
19.2262 10.728
19.2414 10.701
19.2566 10.732
19.2718 10.735
19.2869 10.770
19.3021 10.802
19.3173 10.855
19.3325 11.063
19.3476 11.088
19.3628 10.946
19.3780 10.985
19.3932 11.138
19.4083 11.247
19.4235 11.221
19.4387 11.304
19.4539 11.681
19.4690 11.549
19.4842 11.121
19.4994 11.089
19.5146 11.217
19.5297 11.501
19.5449 11.533
19.5601 11.440
19.5753 11.326
19.5904 11.544
19.6056 11.897
19.6208 11.810
19.6360 11.636
19.6511 11.834
19.6663 11.871
19.6815 11.600
19.6967 11.589
19.7118 11.666
19.7270 11.846
19.7422 11.949
19.7574 11.962
19.7725 11.928
19.7877 11.743
19.8029 11.760
19.8180 11.926
19.8332 12.029
19.8484 12.224
19.8636 12.175
19.8787 12.382
19.8939 12.742
19.9091 13.128
19.9243 13.447
19.9394 13.707
19.9546 13.883
19.9698 14.323
19.9850 14.558
20.0001 14.245
20.0153 14.078
20.0305 13.894
20.0457 13.889
20.0608 13.821
20.0760 14.001
20.0912 13.942
20.1064 13.558
20.1215 13.376
20.1367 13.161
20.1519 13.138
20.1671 12.853
20.1822 12.700
20.1974 12.504
20.2126 12.270
20.2278 12.191
20.2429 12.313
20.2581 12.264
20.2733 11.936
20.2885 12.089
20.3036 11.930
20.3188 11.774
20.3340 11.692
20.3492 11.976
20.3643 11.815
20.3795 11.622
20.3947 11.643
20.4099 11.530
20.4250 11.423
20.4402 11.793
20.4554 11.835
20.4706 11.869
20.4857 11.892
20.5009 11.821
20.5161 11.642
20.5313 11.484
20.5464 11.611
20.5616 11.385
20.5768 11.330
20.5920 11.037
20.6071 11.055
20.6223 10.908
20.6375 11.116
20.6527 10.943
20.6678 10.756
20.6830 10.520
20.6982 10.447
20.7134 10.670
20.7285 10.709
20.7437 10.327
20.7589 10.504
20.7741 10.207
20.7892 9.895
20.8044 10.032
20.8196 10.125
20.8348 10.183
20.8499 10.255
20.8651 10.272
20.8803 10.535
20.8955 10.211
20.9106 10.125
20.9258 10.179
20.9410 10.022
20.9562 10.042
20.9713 10.122
20.9865 10.065
21.0017 9.991
21.0169 10.201
21.0320 10.165
21.0472 10.081
21.0624 10.144
21.0776 9.790
21.0927 9.964
21.1079 9.857
21.1231 9.908
21.1383 10.268
21.1534 9.847
21.1686 9.852
21.1838 9.783
21.1990 9.574
21.2141 9.754
21.2293 9.716
21.2445 9.883
21.2597 9.595
21.2748 9.583
21.2900 9.677
21.3052 9.668
21.3204 9.461
21.3355 9.576
21.3507 9.584
21.3659 9.588
21.3811 9.504
21.3962 9.688
21.4114 9.731
21.4266 9.569
21.4418 9.557
21.4569 9.356
21.4721 9.567
21.4873 9.179
21.5025 9.396
21.5176 9.412
21.5328 9.315
21.5480 9.294
21.5632 9.082
21.5783 9.570
21.5935 9.235
21.6087 9.337
21.6239 9.040
21.6390 9.324
21.6542 9.394
21.6694 9.312
21.6846 8.963
21.6997 9.088
21.7149 9.169
21.7301 8.997
21.7453 9.103
21.7604 9.364
21.7756 9.070
21.7908 8.801
21.8060 8.981
21.8211 9.129
21.8363 9.232
21.8515 9.112
21.8667 9.198
21.8818 9.220
21.8970 9.139
21.9122 9.060
21.9274 9.187
21.9425 8.979
21.9577 8.930
21.9729 8.918
21.9881 8.861
22.0032 8.914
22.0184 8.859
22.0336 8.872
22.0488 9.082
22.0639 8.889
22.0791 8.547
22.0943 8.534
22.1095 8.657
22.1246 8.586
22.1398 8.687
22.1550 8.953
22.1702 8.948
22.1853 8.941
22.2005 8.707
22.2157 8.513
22.2309 8.685
22.2460 8.819
22.2612 8.596
22.2764 8.415
22.2916 8.548
22.3067 8.641
22.3219 8.547
22.3371 8.582
22.3523 8.608
22.3674 8.627
22.3826 8.425
22.3978 8.360
22.4130 8.322
22.4281 8.600
22.4433 8.731
22.4585 8.450
22.4737 8.336
22.4888 8.236
22.5040 8.800
22.5192 8.826
22.5344 8.572
22.5495 8.396
22.5647 8.706
22.5799 8.459
22.5951 8.924
22.6102 8.110
22.6254 8.564
22.6406 8.044
22.6558 8.746
22.6709 8.454
22.6861 8.386
22.7013 8.513
22.7165 8.232
22.7316 6.476
