'Id: "" Comment: "" Operator: "Lab Manager" Anode: "Mo" Scantype: "Still (Eiger2R_500K (1D mode))" TimePerStep: "300" X: "11.8" Y: "9.4" Z: "11.284" 
7.2532 19.064
7.2684 18.716
7.2836 18.890
7.2987 19.416
7.3139 19.297
7.3291 19.025
7.3443 19.110
7.3594 19.258
7.3746 19.341
7.3898 19.668
7.4050 19.161
7.4201 19.293
7.4353 19.031
7.4505 19.690
7.4657 19.557
7.4808 19.758
7.4960 19.915
7.5112 19.835
7.5264 19.711
7.5415 19.970
7.5567 19.916
7.5719 19.994
7.5871 20.095
7.6022 20.279
7.6174 20.212
7.6326 20.089
7.6478 20.239
7.6629 20.030
7.6781 20.055
7.6933 20.327
7.7085 20.418
7.7236 20.188
7.7388 20.309
7.7540 20.571
7.7692 20.445
7.7843 20.243
7.7995 20.546
7.8147 20.842
7.8299 20.686
7.8450 20.719
7.8602 20.905
7.8754 20.803
7.8905 21.075
7.9057 21.339
7.9209 20.878
7.9361 20.643
7.9512 20.880
7.9664 21.012
7.9816 20.653
7.9968 20.988
8.0119 21.165
8.0271 20.988
8.0423 21.165
8.0575 21.130
8.0726 21.182
8.0878 21.225
8.1030 21.125
8.1182 21.203
8.1333 21.447
8.1485 21.435
8.1637 21.076
8.1789 21.082
8.1940 21.190
8.2092 21.454
8.2244 21.500
8.2396 21.750
8.2547 21.868
8.2699 21.965
8.2851 21.423
8.3003 21.209
8.3154 21.657
8.3306 21.508
8.3458 21.899
8.3610 22.342
8.3761 21.713
8.3913 21.461
8.4065 22.102
8.4217 22.042
8.4368 21.542
8.4520 22.007
8.4672 22.179
8.4824 22.249
8.4975 22.182
8.5127 21.973
8.5279 21.706
8.5431 21.366
8.5582 22.070
8.5734 22.458
8.5886 22.512
8.6038 21.994
8.6189 22.292
8.6341 22.444
8.6493 22.202
8.6645 21.978
8.6796 22.494
8.6948 22.021
8.7100 22.153
8.7252 22.520
8.7403 22.205
8.7555 22.495
8.7707 22.239
8.7859 22.312
8.8010 22.527
8.8162 22.393
8.8314 22.599
8.8466 22.507
8.8617 22.395
8.8769 22.349
8.8921 22.472
8.9073 22.712
8.9224 22.810
8.9376 22.856
8.9528 22.598
8.9680 22.836
8.9831 22.874
8.9983 22.588
9.0135 23.229
9.0287 22.828
9.0438 22.415
9.0590 23.152
9.0742 23.094
9.0894 22.686
9.1045 22.502
9.1197 22.906
9.1349 22.743
9.1501 23.142
9.1652 22.987
9.1804 23.003
9.1956 23.160
9.2108 22.900
9.2259 22.941
9.2411 22.864
9.2563 22.798
9.2715 23.134
9.2866 22.979
9.3018 23.090
9.3170 23.101
9.3322 22.903
9.3473 23.107
9.3625 23.197
9.3777 23.268
9.3929 23.355
9.4080 23.185
9.4232 22.769
9.4384 23.019
9.4536 23.376
9.4687 23.065
9.4839 23.005
9.4991 23.043
9.5143 22.736
9.5294 22.547
9.5446 23.067
9.5598 23.485
9.5750 23.295
9.5901 23.285
9.6053 23.671
9.6205 23.920
9.6357 23.797
9.6508 23.763
9.6660 23.718
9.6812 23.474
9.6964 23.627
9.7115 23.759
9.7267 24.048
9.7419 24.516
9.7571 24.368
9.7722 23.948
9.7874 23.810
9.8026 23.733
9.8178 23.441
9.8329 23.263
9.8481 23.626
9.8633 23.748
9.8785 23.591
9.8936 23.292
9.9088 23.183
9.9240 23.128
9.9392 22.961
9.9543 23.148
9.9695 23.030
9.9847 23.149
9.9999 23.409
10.0150 23.210
10.0302 23.182
10.0454 23.202
10.0606 22.981
10.0757 22.948
10.0909 23.234
10.1061 23.215
10.1213 23.413
10.1364 23.937
10.1516 23.777
10.1668 23.538
10.1820 23.400
10.1971 23.473
10.2123 23.373
10.2275 23.276
10.2427 23.155
10.2578 22.949
10.2730 22.691
10.2882 22.820
10.3034 22.885
10.3185 22.755
10.3337 22.798
10.3489 23.133
10.3641 22.923
10.3792 22.573
10.3944 22.323
10.4096 22.653
10.4248 22.777
10.4399 22.691
10.4551 22.668
10.4703 22.701
10.4855 22.918
10.5006 22.889
10.5158 22.491
10.5310 22.857
10.5462 22.810
10.5613 22.750
10.5765 22.252
10.5917 22.012
10.6069 22.332
10.6220 22.387
10.6372 22.184
10.6524 22.199
10.6676 22.877
10.6827 22.946
10.6979 22.584
10.7131 22.334
10.7283 22.313
10.7434 22.422
10.7586 22.543
10.7738 22.351
10.7890 22.603
10.8041 22.739
10.8193 22.379
10.8345 22.223
10.8497 22.333
10.8648 22.369
10.8800 22.397
10.8952 22.146
10.9104 22.023
10.9255 22.176
10.9407 22.292
10.9559 22.207
10.9711 22.063
10.9862 21.895
11.0014 21.931
11.0166 22.187
11.0318 21.938
11.0469 21.902
11.0621 21.952
11.0773 21.826
11.0925 21.743
11.1076 21.837
11.1228 21.637
11.1380 21.477
11.1532 21.911
11.1683 21.897
11.1835 22.126
11.1987 21.953
11.2139 21.604
11.2290 21.890
11.2442 21.570
11.2594 21.755
11.2746 21.771
11.2897 21.705
11.3049 21.439
11.3201 21.033
11.3353 21.448
11.3504 21.717
11.3656 21.348
11.3808 21.621
11.3960 21.831
11.4111 21.402
11.4263 21.761
11.4415 21.149
11.4567 21.283
11.4718 21.600
11.4870 21.639
11.5022 21.488
11.5174 21.136
11.5325 21.184
11.5477 20.866
11.5629 20.931
11.5781 21.154
11.5932 20.850
11.6084 21.116
11.6236 20.520
11.6388 20.500
11.6539 20.655
11.6691 20.574
11.6843 20.468
11.6995 20.630
11.7146 20.416
11.7298 20.435
11.7450 20.347
11.7602 20.511
11.7753 20.270
11.7905 19.998
11.8057 20.162
11.8209 19.878
11.8360 19.804
11.8512 19.953
11.8664 20.071
11.8816 19.930
11.8967 20.061
11.9119 19.476
11.9271 18.944
11.9423 19.479
11.9574 19.355
11.9726 19.276
11.9878 19.586
12.0030 19.433
12.0181 19.155
12.0333 19.132
12.0485 19.163
12.0637 19.015
12.0788 18.918
12.0940 18.685
12.1092 18.471
12.1244 18.569
12.1395 18.845
12.1547 18.644
12.1699 18.276
12.1851 18.172
12.2002 18.120
12.2154 17.986
12.2306 18.144
12.2458 17.987
12.2609 18.204
12.2761 18.244
12.2913 17.967
12.3065 17.740
12.3216 17.841
12.3368 17.800
12.3520 17.166
12.3672 17.193
12.3823 17.214
12.3975 17.157
12.4127 17.294
12.4279 17.331
12.4430 17.116
12.4582 16.913
12.4734 16.657
12.4886 16.895
12.5037 16.915
12.5189 16.755
12.5341 16.783
12.5493 16.567
12.5644 16.546
12.5796 16.522
12.5948 16.133
12.6100 16.152
12.6251 16.198
12.6403 16.099
12.6555 15.881
12.6707 16.058
12.6858 15.886
12.7010 15.783
12.7162 15.822
12.7314 15.325
12.7465 15.094
12.7617 15.391
12.7769 15.296
12.7921 15.309
12.8072 15.304
12.8224 14.878
12.8376 14.691
12.8528 14.796
12.8679 14.753
12.8831 14.723
12.8983 14.721
12.9135 14.490
12.9286 14.443
12.9438 14.628
12.9590 14.596
12.9742 14.419
12.9893 14.292
13.0045 14.401
13.0197 14.330
13.0349 14.125
13.0500 13.968
13.0652 13.692
13.0804 13.719
13.0956 14.117
13.1107 14.000
13.1259 13.613
13.1411 13.585
13.1563 13.558
13.1714 13.591
13.1866 13.636
13.2018 13.571
13.2170 13.487
13.2321 13.389
13.2473 13.535
13.2625 13.547
13.2777 13.253
13.2928 13.070
13.3080 13.073
13.3232 12.987
13.3384 12.675
13.3535 12.837
13.3687 13.163
13.3839 13.193
13.3991 13.096
13.4142 12.897
13.4294 12.881
13.4446 12.978
13.4598 12.751
13.4749 12.659
13.4901 12.692
13.5053 12.525
13.5205 12.512
13.5356 12.440
13.5508 12.304
13.5660 12.191
13.5812 12.038
13.5963 11.917
13.6115 11.892
13.6267 12.243
13.6419 12.294
13.6570 12.197
13.6722 12.298
13.6874 12.234
13.7026 12.165
13.7177 12.337
13.7329 12.205
13.7481 12.314
13.7633 12.099
13.7784 12.130
13.7936 12.355
13.8088 12.160
13.8239 12.156
13.8391 12.090
13.8543 12.328
13.8695 12.287
13.8846 12.214
13.8998 12.181
13.9150 12.173
13.9302 12.062
13.9453 12.195
13.9605 12.009
13.9757 11.954
13.9909 11.829
14.0060 11.492
14.0212 11.644
14.0364 11.583
14.0516 11.464
14.0667 11.404
14.0819 11.556
14.0971 11.367
14.1123 11.566
14.1274 11.340
14.1426 11.569
14.1578 11.749
14.1730 11.525
14.1881 11.245
14.2033 11.551
14.2185 11.418
14.2337 11.578
14.2488 11.549
14.2640 11.368
14.2792 11.660
14.2944 12.029
14.3095 11.914
14.3247 11.732
14.3399 11.938
14.3551 12.777
14.3702 12.968
14.3854 13.382
14.4006 13.425
14.4158 13.602
14.4309 13.630
14.4461 13.497
14.4613 13.049
14.4765 12.818
14.4916 12.584
14.5068 12.335
14.5220 12.139
14.5372 11.877
14.5523 11.651
14.5675 11.327
14.5827 11.286
14.5979 10.932
14.6130 10.882
14.6282 10.655
14.6434 10.614
14.6586 10.975
14.6737 10.857
14.6889 10.595
14.7041 10.631
14.7193 10.804
14.7344 10.416
14.7496 10.706
14.7648 10.789
14.7800 11.063
14.7951 10.627
14.8103 10.688
14.8255 10.533
14.8407 10.331
14.8558 10.420
14.8710 10.534
14.8862 10.583
14.9014 10.562
14.9165 10.865
14.9317 10.560
14.9469 10.472
14.9621 10.165
14.9772 9.934
14.9924 10.284
15.0076 10.046
15.0228 10.131
15.0379 10.400
15.0531 10.763
15.0683 10.509
15.0835 10.456
15.0986 9.874
15.1138 10.604
15.1290 10.255
15.1442 10.380
15.1593 10.331
15.1745 10.367
15.1897 10.224
15.2049 10.138
15.2200 10.306
15.2352 10.184
15.2504 10.131
15.2656 10.325
15.2807 10.082
15.2959 10.207
15.3111 10.070
15.3263 10.159
15.3414 10.071
15.3566 10.081
15.3718 9.916
15.3870 10.147
15.4021 10.174
15.4173 10.287
15.4325 9.975
15.4477 10.196
15.4628 10.330
15.4780 10.331
15.4932 9.987
15.5084 10.019
15.5235 9.998
15.5387 9.937
15.5539 10.005
15.5691 9.878
15.5842 9.894
15.5994 9.776
15.6146 10.171
15.6298 10.050
15.6449 9.880
15.6601 9.711
15.6753 9.748
15.6905 9.776
15.7056 10.046
15.7208 9.658
15.7360 9.780
15.7512 9.617
15.7663 9.644
15.7815 9.796
15.7967 9.529
15.8119 9.738
15.8270 9.940
15.8422 9.818
15.8574 9.970
15.8726 9.509
15.8877 9.679
15.9029 9.701
15.9181 9.527
15.9333 9.837
15.9484 9.654
15.9636 9.592
15.9788 9.648
15.9940 9.887
16.0091 9.674
16.0243 9.791
16.0395 9.687
16.0547 9.527
16.0698 9.432
16.0850 9.643
16.1002 9.308
16.1154 9.479
16.1305 9.496
16.1457 9.742
16.1609 9.684
16.1761 9.697
16.1912 9.477
16.2064 9.893
16.2216 9.934
16.2368 9.706
16.2519 9.926
16.2671 9.822
16.2823 9.773
16.2975 9.739
16.3126 9.871
16.3278 10.017
16.3430 10.063
16.3582 9.953
16.3733 9.891
16.3885 9.719
16.4037 9.672
16.4189 9.805
16.4340 9.814
16.4492 9.728
16.4644 9.618
16.4796 9.704
16.4947 9.777
16.5099 9.613
16.5251 9.595
16.5403 9.674
16.5554 9.487
16.5706 9.590
16.5858 9.792
16.6010 9.691
16.6161 9.550
16.6313 9.710
16.6465 9.790
16.6617 9.802
16.6768 9.721
16.6920 9.844
16.7072 9.918
16.7224 10.145
16.7375 10.026
16.7527 9.686
16.7679 9.701
16.7831 9.861
16.7982 9.912
16.8134 9.896
16.8286 9.863
16.8438 9.870
16.8589 9.902
16.8741 9.764
16.8893 9.698
16.9045 9.811
16.9196 9.782
16.9348 9.628
16.9500 9.471
16.9652 9.760
16.9803 9.742
16.9955 9.528
17.0107 9.619
17.0259 9.839
17.0410 9.944
17.0562 9.876
17.0714 10.118
17.0866 10.374
17.1017 10.570
17.1169 10.679
17.1321 11.021
17.1473 11.262
17.1624 11.500
17.1776 12.340
17.1928 13.059
17.2080 13.852
17.2231 14.770
17.2383 16.040
17.2535 17.498
17.2687 18.302
17.2838 18.403
17.2990 17.790
17.3142 17.092
17.3294 16.470
17.3445 15.816
17.3597 15.858
17.3749 15.819
17.3901 15.116
17.4052 14.155
17.4204 13.218
17.4356 12.519
17.4508 11.859
17.4659 11.473
17.4811 11.536
17.4963 11.506
17.5115 11.049
17.5266 10.748
17.5418 10.836
17.5570 11.058
17.5722 11.072
17.5873 11.075
17.6025 11.147
17.6177 11.130
17.6329 11.165
17.6480 11.327
17.6632 11.613
17.6784 11.884
17.6936 12.087
17.7087 11.983
17.7239 11.915
17.7391 11.783
17.7543 11.607
17.7694 11.446
17.7846 11.279
17.7998 11.284
17.8150 11.181
17.8301 11.000
17.8453 10.758
17.8605 10.621
17.8757 10.589
17.8908 10.656
17.9060 10.695
17.9212 10.578
17.9364 10.326
17.9515 10.058
17.9667 10.196
17.9819 10.394
17.9971 10.336
18.0122 10.255
18.0274 10.246
18.0426 10.100
18.0578 9.969
18.0729 10.121
18.0881 10.090
18.1033 9.990
18.1185 10.170
18.1336 10.136
18.1488 9.991
18.1640 10.148
18.1792 10.028
18.1943 9.991
18.2095 10.130
18.2247 9.908
18.2399 9.849
18.2550 9.848
18.2702 9.842
18.2854 9.969
18.3006 9.995
18.3157 9.879
18.3309 9.919
18.3461 9.823
18.3613 9.749
18.3764 9.746
18.3916 9.809
18.4068 9.864
18.4220 9.995
18.4371 9.850
18.4523 9.770
18.4675 9.760
18.4827 9.806
18.4978 9.859
18.5130 9.774
18.5282 9.655
18.5434 9.829
18.5585 9.937
18.5737 9.915
18.5889 9.711
18.6041 9.564
18.6192 9.643
18.6344 9.615
18.6496 9.586
18.6648 9.608
18.6799 9.563
18.6951 9.628
18.7103 9.707
18.7255 9.751
18.7406 9.946
18.7558 10.109
18.7710 10.159
18.7862 10.141
18.8013 9.610
18.8165 9.464
18.8317 9.729
18.8469 9.915
18.8620 10.004
18.8772 9.934
18.8924 10.021
18.9076 9.930
18.9227 9.943
18.9379 9.947
18.9531 10.050
18.9683 10.023
18.9834 10.052
18.9986 10.265
19.0138 10.102
19.0290 10.066
19.0441 10.152
19.0593 10.156
19.0745 10.327
19.0897 10.322
19.1048 10.324
19.1200 10.316
19.1352 10.251
19.1504 10.377
19.1655 10.418
19.1807 10.422
19.1959 10.519
19.2111 10.794
19.2262 10.710
19.2414 10.680
19.2566 10.738
19.2718 10.885
19.2869 10.970
19.3021 10.843
19.3173 10.938
19.3325 11.181
19.3476 11.048
19.3628 10.975
19.3780 11.255
19.3932 11.364
19.4083 11.188
19.4235 11.029
19.4387 11.239
19.4539 11.234
19.4690 11.114
19.4842 11.485
19.4994 11.421
19.5146 11.339
19.5297 11.583
19.5449 11.703
19.5601 11.561
19.5753 11.578
19.5904 11.601
19.6056 11.409
19.6208 11.360
19.6360 11.529
19.6511 11.789
19.6663 11.656
19.6815 11.567
19.6967 11.700
19.7118 11.618
19.7270 11.540
19.7422 11.549
19.7574 11.783
19.7725 11.922
19.7877 11.850
19.8029 11.950
19.8180 12.081
19.8332 12.068
19.8484 12.106
19.8636 12.455
19.8787 12.596
19.8939 12.710
19.9091 13.091
19.9243 13.350
19.9394 13.742
19.9546 14.049
19.9698 14.157
19.9850 14.361
20.0001 14.278
20.0153 14.223
20.0305 13.890
20.0457 13.803
20.0608 13.905
20.0760 13.503
20.0912 13.495
20.1064 13.563
20.1215 13.171
20.1367 13.051
20.1519 12.872
20.1671 12.937
20.1822 12.856
20.1974 12.699
20.2126 12.710
20.2278 12.788
20.2429 12.600
20.2581 12.200
20.2733 12.021
20.2885 11.892
20.3036 11.989
20.3188 11.965
20.3340 12.147
20.3492 11.968
20.3643 11.968
20.3795 11.855
20.3947 11.539
20.4099 11.619
20.4250 11.828
20.4402 11.762
20.4554 12.085
20.4706 12.417
20.4857 12.139
20.5009 12.076
20.5161 12.079
20.5313 12.130
20.5464 11.522
20.5616 11.481
20.5768 11.860
20.5920 11.823
20.6071 11.613
20.6223 11.188
20.6375 10.929
20.6527 10.949
20.6678 10.989
20.6830 10.676
20.6982 10.638
20.7134 10.693
20.7285 10.491
20.7437 10.597
20.7589 10.300
20.7741 10.473
20.7892 10.123
20.8044 10.152
20.8196 10.035
20.8348 10.255
20.8499 10.317
20.8651 10.469
20.8803 10.414
20.8955 10.087
20.9106 10.214
20.9258 10.451
20.9410 10.090
20.9562 10.100
20.9713 10.323
20.9865 10.012
21.0017 9.846
21.0169 9.852
21.0320 10.016
21.0472 9.788
21.0624 10.202
21.0776 9.940
21.0927 10.268
21.1079 9.759
21.1231 9.863
21.1383 9.669
21.1534 9.868
21.1686 9.879
21.1838 9.673
21.1990 9.616
21.2141 9.503
21.2293 9.689
21.2445 9.524
21.2597 9.672
21.2748 9.825
21.2900 9.723
21.3052 9.549
21.3204 9.574
21.3355 9.529
21.3507 9.304
21.3659 9.772
21.3811 9.438
21.3962 9.616
21.4114 9.327
21.4266 9.266
21.4418 9.145
21.4569 9.788
21.4721 9.491
21.4873 9.360
21.5025 9.132
21.5176 9.373
21.5328 9.181
21.5480 9.465
21.5632 9.447
21.5783 9.060
21.5935 9.408
21.6087 9.261
21.6239 8.983
21.6390 9.340
21.6542 9.253
21.6694 9.238
21.6846 9.389
21.6997 9.260
21.7149 9.250
21.7301 9.108
21.7453 9.136
21.7604 9.159
21.7756 9.138
21.7908 9.270
21.8060 9.023
21.8211 9.126
21.8363 9.081
21.8515 9.095
21.8667 9.008
21.8818 8.996
21.8970 8.900
21.9122 9.049
21.9274 9.029
21.9425 9.019
21.9577 9.035
21.9729 9.077
21.9881 8.908
22.0032 8.831
22.0184 8.851
22.0336 8.680
22.0488 8.653
22.0639 8.698
22.0791 8.839
22.0943 8.833
22.1095 8.662
22.1246 8.586
22.1398 8.520
22.1550 8.397
22.1702 8.550
22.1853 8.734
22.2005 8.682
22.2157 8.522
22.2309 8.648
22.2460 8.497
22.2612 8.377
22.2764 8.499
22.2916 8.404
22.3067 8.369
22.3219 8.718
22.3371 8.656
22.3523 8.468
22.3674 8.559
22.3826 8.357
22.3978 8.483
22.4130 8.442
22.4281 8.253
22.4433 8.599
22.4585 8.570
22.4737 8.389
22.4888 8.277
22.5040 8.483
22.5192 8.353
22.5344 8.416
22.5495 8.071
22.5647 8.322
22.5799 8.572
22.5951 8.322
22.6102 8.754
22.6254 8.343
22.6406 8.415
22.6558 8.186
22.6709 8.529
22.6861 8.424
22.7013 8.374
22.7165 7.861
22.7316 6.412
