'Id: "" Comment: "" Operator: "Lab Manager" Anode: "Mo" Scantype: "Still (Eiger2R_500K (1D mode))" TimePerStep: "300" X: "11.8" Y: "9.4" Z: "11.284" 
7.2532 19.310
7.2684 18.686
7.2836 19.156
7.2987 19.323
7.3139 19.786
7.3291 19.397
7.3443 19.670
7.3594 19.357
7.3746 20.150
7.3898 19.854
7.4050 19.242
7.4201 19.977
7.4353 19.839
7.4505 19.636
7.4657 19.509
7.4808 19.451
7.4960 19.920
7.5112 19.795
7.5264 19.817
7.5415 19.893
7.5567 20.158
7.5719 19.691
7.5871 20.112
7.6022 20.474
7.6174 20.244
7.6326 20.120
7.6478 19.967
7.6629 20.118
7.6781 20.392
7.6933 20.180
7.7085 20.289
7.7236 20.567
7.7388 20.730
7.7540 20.798
7.7692 20.424
7.7843 20.616
7.7995 20.806
7.8147 20.695
7.8299 20.638
7.8450 20.726
7.8602 21.041
7.8754 21.018
7.8905 20.874
7.9057 20.863
7.9209 21.128
7.9361 21.292
7.9512 21.288
7.9664 21.314
7.9816 21.425
7.9968 21.152
8.0119 21.367
8.0271 20.963
8.0423 21.175
8.0575 21.728
8.0726 21.563
8.0878 21.387
8.1030 21.934
8.1182 21.593
8.1333 21.770
8.1485 21.738
8.1637 21.643
8.1789 21.933
8.1940 22.010
8.2092 22.103
8.2244 22.288
8.2396 22.035
8.2547 21.644
8.2699 21.949
8.2851 21.945
8.3003 22.297
8.3154 21.956
8.3306 21.856
8.3458 21.680
8.3610 21.877
8.3761 22.415
8.3913 21.913
8.4065 22.413
8.4217 22.147
8.4368 22.202
8.4520 22.501
8.4672 22.087
8.4824 22.286
8.4975 22.559
8.5127 22.706
8.5279 21.952
8.5431 22.295
8.5582 21.930
8.5734 22.844
8.5886 22.712
8.6038 22.070
8.6189 22.585
8.6341 22.282
8.6493 22.249
8.6645 22.415
8.6796 22.399
8.6948 22.579
8.7100 22.655
8.7252 22.117
8.7403 22.573
8.7555 22.033
8.7707 23.011
8.7859 22.972
8.8010 22.575
8.8162 22.546
8.8314 22.773
8.8466 22.844
8.8617 22.876
8.8769 22.466
8.8921 22.645
8.9073 22.810
8.9224 22.232
8.9376 22.585
8.9528 22.724
8.9680 22.718
8.9831 22.486
8.9983 22.555
9.0135 22.722
9.0287 22.867
9.0438 23.043
9.0590 22.703
9.0742 22.723
9.0894 22.904
9.1045 22.943
9.1197 22.759
9.1349 23.176
9.1501 23.086
9.1652 22.540
9.1804 22.722
9.1956 22.984
9.2108 22.989
9.2259 22.839
9.2411 22.902
9.2563 23.220
9.2715 23.190
9.2866 22.769
9.3018 23.142
9.3170 23.175
9.3322 23.283
9.3473 23.202
9.3625 23.454
9.3777 23.299
9.3929 23.348
9.4080 23.287
9.4232 23.002
9.4384 22.955
9.4536 22.957
9.4687 23.060
9.4839 23.178
9.4991 23.575
9.5143 23.386
9.5294 23.181
9.5446 23.124
9.5598 23.450
9.5750 23.505
9.5901 23.737
9.6053 23.776
9.6205 23.321
9.6357 23.369
9.6508 23.583
9.6660 23.861
9.6812 24.296
9.6964 24.053
9.7115 23.989
9.7267 24.407
9.7419 24.278
9.7571 24.119
9.7722 24.098
9.7874 24.084
9.8026 24.102
9.8178 24.023
9.8329 23.889
9.8481 23.990
9.8633 23.985
9.8785 23.876
9.8936 24.143
9.9088 24.168
9.9240 24.283
9.9392 24.430
9.9543 24.150
9.9695 24.016
9.9847 24.095
9.9999 23.943
10.0150 23.643
10.0302 23.515
10.0454 23.527
10.0606 23.463
10.0757 23.449
10.0909 23.451
10.1061 23.672
10.1213 23.459
10.1364 23.529
10.1516 23.787
10.1668 24.012
10.1820 23.999
10.1971 23.911
10.2123 24.149
10.2275 24.017
10.2427 23.937
10.2578 23.608
10.2730 23.757
10.2882 23.513
10.3034 23.398
10.3185 23.428
10.3337 23.422
10.3489 23.292
10.3641 23.301
10.3792 23.207
10.3944 23.423
10.4096 23.457
10.4248 23.328
10.4399 23.454
10.4551 23.427
10.4703 22.973
10.4855 22.982
10.5006 23.046
10.5158 23.325
10.5310 23.156
10.5462 22.749
10.5613 22.837
10.5765 23.013
10.5917 23.041
10.6069 22.681
10.6220 22.224
10.6372 22.455
10.6524 22.719
10.6676 22.760
10.6827 22.569
10.6979 22.819
10.7131 22.874
10.7283 22.489
10.7434 22.447
10.7586 22.420
10.7738 22.658
10.7890 22.684
10.8041 22.439
10.8193 22.349
10.8345 22.592
10.8497 22.387
10.8648 22.665
10.8800 22.363
10.8952 22.295
10.9104 22.487
10.9255 22.099
10.9407 22.255
10.9559 22.141
10.9711 21.883
10.9862 22.088
11.0014 22.251
11.0166 22.317
11.0318 22.222
11.0469 21.930
11.0621 21.960
11.0773 21.771
11.0925 21.627
11.1076 21.581
11.1228 21.832
11.1380 21.656
11.1532 21.641
11.1683 21.926
11.1835 21.977
11.1987 21.672
11.2139 21.892
11.2290 22.094
11.2442 22.070
11.2594 21.413
11.2746 21.783
11.2897 21.207
11.3049 21.407
11.3201 21.484
11.3353 21.476
11.3504 21.453
11.3656 21.440
11.3808 21.450
11.3960 21.544
11.4111 21.667
11.4263 21.365
11.4415 21.493
11.4567 21.440
11.4718 21.398
11.4870 21.784
11.5022 21.506
11.5174 21.514
11.5325 21.330
11.5477 21.300
11.5629 21.507
11.5781 20.976
11.5932 20.428
11.6084 20.663
11.6236 20.943
11.6388 21.000
11.6539 21.000
11.6691 21.144
11.6843 20.910
11.6995 20.675
11.7146 20.572
11.7298 20.561
11.7450 20.340
11.7602 20.183
11.7753 20.114
11.7905 20.076
11.8057 20.216
11.8209 19.876
11.8360 19.867
11.8512 19.984
11.8664 19.907
11.8816 19.933
11.8967 19.966
11.9119 19.768
11.9271 19.594
11.9423 19.505
11.9574 19.330
11.9726 19.553
11.9878 19.608
12.0030 19.378
12.0181 19.337
12.0333 19.362
12.0485 19.218
12.0637 18.919
12.0788 19.031
12.0940 18.654
12.1092 18.651
12.1244 18.882
12.1395 18.523
12.1547 18.368
12.1699 18.579
12.1851 18.289
12.2002 17.891
12.2154 18.121
12.2306 18.179
12.2458 18.151
12.2609 18.212
12.2761 17.768
12.2913 17.711
12.3065 17.841
12.3216 17.531
12.3368 17.464
12.3520 17.443
12.3672 17.515
12.3823 17.298
12.3975 17.220
12.4127 17.066
12.4279 17.296
12.4430 16.968
12.4582 16.739
12.4734 16.830
12.4886 16.923
12.5037 16.662
12.5189 16.619
12.5341 16.758
12.5493 16.801
12.5644 16.499
12.5796 16.389
12.5948 16.647
12.6100 16.240
12.6251 15.945
12.6403 15.802
12.6555 15.671
12.6707 15.897
12.6858 15.696
12.7010 15.560
12.7162 15.492
12.7314 15.379
12.7465 15.481
12.7617 15.246
12.7769 15.181
12.7921 15.212
12.8072 14.917
12.8224 14.846
12.8376 14.836
12.8528 14.816
12.8679 14.781
12.8831 14.578
12.8983 14.677
12.9135 14.696
12.9286 14.358
12.9438 14.362
12.9590 14.544
12.9742 14.437
12.9893 14.276
13.0045 14.176
13.0197 13.959
13.0349 14.100
13.0500 14.099
13.0652 14.182
13.0804 14.162
13.0956 13.981
13.1107 13.997
13.1259 13.757
13.1411 13.638
13.1563 13.588
13.1714 13.313
13.1866 13.504
13.2018 13.796
13.2170 13.442
13.2321 13.198
13.2473 13.165
13.2625 13.465
13.2777 13.572
13.2928 13.167
13.3080 13.101
13.3232 13.277
13.3384 13.220
13.3535 13.085
13.3687 13.125
13.3839 13.220
13.3991 13.106
13.4142 12.781
13.4294 12.868
13.4446 12.876
13.4598 12.709
13.4749 12.843
13.4901 12.848
13.5053 12.769
13.5205 12.558
13.5356 12.378
13.5508 12.458
13.5660 12.537
13.5812 12.384
13.5963 12.424
13.6115 12.248
13.6267 12.274
13.6419 12.202
13.6570 11.910
13.6722 12.044
13.6874 12.105
13.7026 11.929
13.7177 11.917
13.7329 11.947
13.7481 12.033
13.7633 11.871
13.7784 12.077
13.7936 12.449
13.8088 12.230
13.8239 12.464
13.8391 12.366
13.8543 12.021
13.8695 12.037
13.8846 11.954
13.8998 12.179
13.9150 11.887
13.9302 12.014
13.9453 11.818
13.9605 11.824
13.9757 11.888
13.9909 11.975
14.0060 11.577
14.0212 11.168
14.0364 11.356
14.0516 11.511
14.0667 11.229
14.0819 11.475
14.0971 11.477
14.1123 11.296
14.1274 11.217
14.1426 11.158
14.1578 11.124
14.1730 11.239
14.1881 11.375
14.2033 11.236
14.2185 11.594
14.2337 11.442
14.2488 11.267
14.2640 11.105
14.2792 11.496
14.2944 11.571
14.3095 11.613
14.3247 11.717
14.3399 12.105
14.3551 12.333
14.3702 12.486
14.3854 12.952
14.4006 13.294
14.4158 13.327
14.4309 13.679
14.4461 13.991
14.4613 14.406
14.4765 14.200
14.4916 13.940
14.5068 13.949
14.5220 13.801
14.5372 13.338
14.5523 13.034
14.5675 12.618
14.5827 12.369
14.5979 12.037
14.6130 11.900
14.6282 11.547
14.6434 11.747
14.6586 11.474
14.6737 11.151
14.6889 11.273
14.7041 11.119
14.7193 11.348
14.7344 11.426
14.7496 11.367
14.7648 11.480
14.7800 11.282
14.7951 11.126
14.8103 11.733
14.8255 11.289
14.8407 11.376
14.8558 11.212
14.8710 11.101
14.8862 11.142
14.9014 10.331
14.9165 11.075
14.9317 11.380
14.9469 10.900
14.9621 10.866
14.9772 10.762
14.9924 10.643
15.0076 10.771
15.0228 10.934
15.0379 10.650
15.0531 10.748
15.0683 10.761
15.0835 10.386
15.0986 10.568
15.1138 10.648
15.1290 10.681
15.1442 10.940
15.1593 10.477
15.1745 10.930
15.1897 10.817
15.2049 10.743
15.2200 10.478
15.2352 10.705
15.2504 10.583
15.2656 10.284
15.2807 10.863
15.2959 10.427
15.3111 10.460
15.3263 10.668
15.3414 10.323
15.3566 10.408
15.3718 10.364
15.3870 10.406
15.4021 10.943
15.4173 10.289
15.4325 10.328
15.4477 10.369
15.4628 10.594
15.4780 10.343
15.4932 10.658
15.5084 10.613
15.5235 10.390
15.5387 10.585
15.5539 10.747
15.5691 10.301
15.5842 10.268
15.5994 10.120
15.6146 10.253
15.6298 10.471
15.6449 10.187
15.6601 10.241
15.6753 9.969
15.6905 10.404
15.7056 10.170
15.7208 10.037
15.7360 10.084
15.7512 9.905
15.7663 9.861
15.7815 9.720
15.7967 10.080
15.8119 9.757
15.8270 9.569
15.8422 9.834
15.8574 9.889
15.8726 9.853
15.8877 9.710
15.9029 9.736
15.9181 9.727
15.9333 9.929
15.9484 10.190
15.9636 9.736
15.9788 9.815
15.9940 10.013
16.0091 9.715
16.0243 9.597
16.0395 9.690
16.0547 9.461
16.0698 9.564
16.0850 9.891
16.1002 9.680
16.1154 9.631
16.1305 9.468
16.1457 9.844
16.1609 9.735
16.1761 9.778
16.1912 9.684
16.2064 9.859
16.2216 9.994
16.2368 10.076
16.2519 10.040
16.2671 10.018
16.2823 10.104
16.2975 10.283
16.3126 10.029
16.3278 9.884
16.3430 10.256
16.3582 10.203
16.3733 10.221
16.3885 10.171
16.4037 10.405
16.4189 10.397
16.4340 9.914
16.4492 9.942
16.4644 10.041
16.4796 10.117
16.4947 10.113
16.5099 9.885
16.5251 9.991
16.5403 10.161
16.5554 9.889
16.5706 9.742
16.5858 9.856
16.6010 9.881
16.6161 9.942
16.6313 9.923
16.6465 9.991
16.6617 10.037
16.6768 9.962
16.6920 10.227
16.7072 10.412
16.7224 10.352
16.7375 10.242
16.7527 10.053
16.7679 9.810
16.7831 10.053
16.7982 10.200
16.8134 10.114
16.8286 10.152
16.8438 9.978
16.8589 9.768
16.8741 9.977
16.8893 9.841
16.9045 9.946
16.9196 10.063
16.9348 10.030
16.9500 9.819
16.9652 9.896
16.9803 10.125
16.9955 10.286
17.0107 10.081
17.0259 9.938
17.0410 10.265
17.0562 10.310
17.0714 10.347
17.0866 10.433
17.1017 10.538
17.1169 10.974
17.1321 11.197
17.1473 11.437
17.1624 11.920
17.1776 12.325
17.1928 13.030
17.2080 14.161
17.2231 15.023
17.2383 16.101
17.2535 17.419
17.2687 18.381
17.2838 18.594
17.2990 18.152
17.3142 17.350
17.3294 16.511
17.3445 16.242
17.3597 16.168
17.3749 16.095
17.3901 15.411
17.4052 14.352
17.4204 13.367
17.4356 12.497
17.4508 12.059
17.4659 11.603
17.4811 11.544
17.4963 11.498
17.5115 11.097
17.5266 10.649
17.5418 10.480
17.5570 10.621
17.5722 10.618
17.5873 10.584
17.6025 10.515
17.6177 10.654
17.6329 10.618
17.6480 10.300
17.6632 10.388
17.6784 10.674
17.6936 10.701
17.7087 10.818
17.7239 11.119
17.7391 11.441
17.7543 11.560
17.7694 11.695
17.7846 11.983
17.7998 12.205
17.8150 12.293
17.8301 12.423
17.8453 12.500
17.8605 12.459
17.8757 12.600
17.8908 12.522
17.9060 12.358
17.9212 12.163
17.9364 11.872
17.9515 11.471
17.9667 11.284
17.9819 11.377
17.9971 11.304
18.0122 11.225
18.0274 11.001
18.0426 10.720
18.0578 10.492
18.0729 10.313
18.0881 10.101
18.1033 10.139
18.1185 10.239
18.1336 10.226
18.1488 10.114
18.1640 10.107
18.1792 10.227
18.1943 10.024
18.2095 9.937
18.2247 9.911
18.2399 9.862
18.2550 10.005
18.2702 10.069
18.2854 9.952
18.3006 10.012
18.3157 9.949
18.3309 9.905
18.3461 9.961
18.3613 10.051
18.3764 9.979
18.3916 9.932
18.4068 9.917
18.4220 9.927
18.4371 9.984
18.4523 9.850
18.4675 9.823
18.4827 9.906
18.4978 9.887
18.5130 9.979
18.5282 9.980
18.5434 10.011
18.5585 10.006
18.5737 9.980
18.5889 9.848
18.6041 9.857
18.6192 9.838
18.6344 9.818
18.6496 9.953
18.6648 9.907
18.6799 9.900
18.6951 9.957
18.7103 9.993
18.7255 10.047
18.7406 9.950
18.7558 9.765
18.7710 9.944
18.7862 9.985
18.8013 9.947
18.8165 9.958
18.8317 10.194
18.8469 10.221
18.8620 10.049
18.8772 9.962
18.8924 9.862
18.9076 9.867
18.9227 9.959
18.9379 9.875
18.9531 9.881
18.9683 10.198
18.9834 10.233
18.9986 10.084
19.0138 10.164
19.0290 10.185
19.0441 10.140
19.0593 10.152
19.0745 10.368
19.0897 10.594
19.1048 10.582
19.1200 10.585
19.1352 10.495
19.1504 10.353
19.1655 10.363
19.1807 10.598
19.1959 10.587
19.2111 10.590
19.2262 10.674
19.2414 10.881
19.2566 11.191
19.2718 11.317
19.2869 11.322
19.3021 10.864
19.3173 10.867
19.3325 10.997
19.3476 11.041
19.3628 11.033
19.3780 11.152
19.3932 11.415
19.4083 11.553
19.4235 11.404
19.4387 11.298
19.4539 11.420
19.4690 11.636
19.4842 11.510
19.4994 11.361
19.5146 11.365
19.5297 11.424
19.5449 11.487
19.5601 11.662
19.5753 11.673
19.5904 11.404
19.6056 11.583
19.6208 11.771
19.6360 11.423
19.6511 11.262
19.6663 11.699
19.6815 11.636
19.6967 11.533
19.7118 11.695
19.7270 11.648
19.7422 11.658
19.7574 11.650
19.7725 12.041
19.7877 12.141
19.8029 12.032
19.8180 11.848
19.8332 11.906
19.8484 12.119
19.8636 12.134
19.8787 12.323
19.8939 12.550
19.9091 12.967
19.9243 13.254
19.9394 13.523
19.9546 14.204
19.9698 14.406
19.9850 14.368
20.0001 14.552
20.0153 14.543
20.0305 14.335
20.0457 14.204
20.0608 14.125
20.0760 13.841
20.0912 13.566
20.1064 13.558
20.1215 13.407
20.1367 13.175
20.1519 13.126
20.1671 12.689
20.1822 12.635
20.1974 12.583
20.2126 12.620
20.2278 12.613
20.2429 12.471
20.2581 12.332
20.2733 11.921
20.2885 11.694
20.3036 11.679
20.3188 11.522
20.3340 11.625
20.3492 11.589
20.3643 11.399
20.3795 11.213
20.3947 11.247
20.4099 11.208
20.4250 11.266
20.4402 11.408
20.4554 11.360
20.4706 11.262
20.4857 11.543
20.5009 11.528
20.5161 11.218
20.5313 11.224
20.5464 11.060
20.5616 11.185
20.5768 11.305
20.5920 11.146
20.6071 11.215
20.6223 11.124
20.6375 11.248
20.6527 11.020
20.6678 10.833
20.6830 10.748
20.6982 10.826
20.7134 10.988
20.7285 10.982
20.7437 10.778
20.7589 10.754
20.7741 10.762
20.7892 10.755
20.8044 10.469
20.8196 10.530
20.8348 10.490
20.8499 10.348
20.8651 10.048
20.8803 10.381
20.8955 10.541
20.9106 10.421
20.9258 10.551
20.9410 10.386
20.9562 10.787
20.9713 10.636
20.9865 10.422
21.0017 10.503
21.0169 10.519
21.0320 10.551
21.0472 10.233
21.0624 10.482
21.0776 10.472
21.0927 10.299
21.1079 10.201
21.1231 10.061
21.1383 10.137
21.1534 9.850
21.1686 9.762
21.1838 9.361
21.1990 10.296
21.2141 9.764
21.2293 9.681
21.2445 9.678
21.2597 9.515
21.2748 9.886
21.2900 9.651
21.3052 9.682
21.3204 9.778
21.3355 9.485
21.3507 9.663
21.3659 9.753
21.3811 9.595
21.3962 9.390
21.4114 9.517
21.4266 9.165
21.4418 8.965
21.4569 9.476
21.4721 9.400
21.4873 9.209
21.5025 9.292
21.5176 9.309
21.5328 9.325
21.5480 9.184
21.5632 9.405
21.5783 9.546
21.5935 9.667
21.6087 9.453
21.6239 9.247
21.6390 9.310
21.6542 9.317
21.6694 8.931
21.6846 9.167
21.6997 8.871
21.7149 8.843
21.7301 8.959
21.7453 9.109
21.7604 9.092
21.7756 9.065
21.7908 9.096
21.8060 8.945
21.8211 8.917
21.8363 9.110
21.8515 9.054
21.8667 9.024
21.8818 9.154
21.8970 9.118
21.9122 9.053
21.9274 9.019
21.9425 8.926
21.9577 8.882
21.9729 9.042
21.9881 8.983
22.0032 8.715
22.0184 8.720
22.0336 8.874
22.0488 8.934
22.0639 8.835
22.0791 8.800
22.0943 8.975
22.1095 8.823
22.1246 8.542
22.1398 8.511
22.1550 8.678
22.1702 8.774
22.1853 8.713
22.2005 8.713
22.2157 8.595
22.2309 8.550
22.2460 8.521
22.2612 8.520
22.2764 8.497
22.2916 8.743
22.3067 8.523
22.3219 8.328
22.3371 8.606
22.3523 8.506
22.3674 8.626
22.3826 8.694
22.3978 8.690
22.4130 8.541
22.4281 8.512
22.4433 8.553
22.4585 8.791
22.4737 8.354
22.4888 8.554
22.5040 8.784
22.5192 8.512
22.5344 8.534
22.5495 8.483
22.5647 8.408
22.5799 8.712
22.5951 8.204
22.6102 8.298
22.6254 8.454
22.6406 8.387
22.6558 8.714
22.6709 8.286
22.6861 8.438
22.7013 8.486
22.7165 7.550
22.7316 6.436
