'Id: "" Comment: "" Operator: "Lab Manager" Anode: "Mo" Scantype: "Still (Eiger2R_500K (1D mode))" TimePerStep: "300" X: "11.8" Y: "9.4" Z: "11.284" 
7.2532 19.155
7.2684 18.770
7.2836 18.979
7.2987 19.256
7.3139 19.369
7.3291 19.160
7.3443 19.201
7.3594 19.052
7.3746 19.435
7.3898 19.604
7.4050 19.569
7.4201 19.401
7.4353 19.192
7.4505 19.590
7.4657 20.015
7.4808 19.651
7.4960 19.601
7.5112 19.990
7.5264 19.777
7.5415 19.897
7.5567 19.724
7.5719 20.051
7.5871 20.070
7.6022 20.209
7.6174 20.256
7.6326 20.400
7.6478 20.344
7.6629 20.329
7.6781 20.323
7.6933 20.489
7.7085 20.401
7.7236 20.538
7.7388 20.531
7.7540 20.422
7.7692 20.594
7.7843 20.478
7.7995 20.435
7.8147 20.732
7.8299 20.608
7.8450 20.703
7.8602 21.065
7.8754 20.990
7.8905 21.022
7.9057 20.995
7.9209 20.950
7.9361 21.309
7.9512 21.029
7.9664 20.982
7.9816 20.840
7.9968 20.804
8.0119 21.045
8.0271 20.939
8.0423 21.044
8.0575 21.370
8.0726 21.358
8.0878 21.145
8.1030 21.303
8.1182 21.458
8.1333 21.315
8.1485 21.562
8.1637 21.446
8.1789 21.369
8.1940 21.514
8.2092 21.446
8.2244 21.943
8.2396 21.882
8.2547 21.498
8.2699 21.410
8.2851 21.537
8.3003 21.778
8.3154 21.918
8.3306 21.865
8.3458 21.668
8.3610 21.904
8.3761 21.952
8.3913 21.658
8.4065 21.654
8.4217 21.833
8.4368 21.841
8.4520 21.902
8.4672 22.226
8.4824 22.100
8.4975 21.789
8.5127 22.478
8.5279 22.258
8.5431 21.919
8.5582 22.263
8.5734 22.295
8.5886 22.424
8.6038 21.834
8.6189 22.288
8.6341 22.558
8.6493 22.116
8.6645 22.239
8.6796 22.121
8.6948 22.447
8.7100 22.296
8.7252 22.438
8.7403 22.830
8.7555 22.825
8.7707 22.781
8.7859 22.671
8.8010 22.114
8.8162 22.805
8.8314 22.641
8.8466 22.917
8.8617 22.651
8.8769 22.474
8.8921 22.638
8.9073 22.534
8.9224 22.358
8.9376 22.453
8.9528 22.873
8.9680 22.766
8.9831 22.836
8.9983 22.701
9.0135 23.058
9.0287 23.033
9.0438 23.157
9.0590 22.714
9.0742 22.674
9.0894 22.998
9.1045 22.864
9.1197 23.028
9.1349 22.649
9.1501 22.818
9.1652 23.048
9.1804 22.747
9.1956 23.000
9.2108 23.388
9.2259 23.339
9.2411 23.238
9.2563 22.754
9.2715 22.813
9.2866 22.936
9.3018 22.845
9.3170 23.067
9.3322 23.337
9.3473 23.448
9.3625 23.081
9.3777 23.086
9.3929 23.336
9.4080 23.151
9.4232 23.118
9.4384 23.317
9.4536 23.387
9.4687 23.490
9.4839 23.026
9.4991 23.081
9.5143 23.327
9.5294 23.434
9.5446 23.195
9.5598 23.211
9.5750 23.421
9.5901 23.631
9.6053 23.444
9.6205 23.298
9.6357 23.522
9.6508 23.508
9.6660 23.806
9.6812 24.187
9.6964 24.266
9.7115 24.040
9.7267 24.076
9.7419 24.165
9.7571 24.081
9.7722 24.034
9.7874 23.952
9.8026 23.647
9.8178 23.649
9.8329 23.482
9.8481 23.302
9.8633 23.419
9.8785 23.578
9.8936 23.866
9.9088 23.460
9.9240 23.442
9.9392 23.483
9.9543 23.483
9.9695 23.543
9.9847 23.393
9.9999 23.862
10.0150 24.286
10.0302 24.026
10.0454 23.670
10.0606 23.542
10.0757 23.219
10.0909 23.635
10.1061 23.745
10.1213 23.712
10.1364 23.989
10.1516 23.945
10.1668 23.683
10.1820 23.840
10.1971 23.843
10.2123 24.056
10.2275 24.365
10.2427 24.490
10.2578 24.285
10.2730 23.838
10.2882 23.839
10.3034 23.874
10.3185 23.056
10.3337 22.958
10.3489 23.128
10.3641 22.942
10.3792 22.908
10.3944 22.978
10.4096 22.574
10.4248 22.788
10.4399 22.992
10.4551 23.170
10.4703 23.108
10.4855 22.799
10.5006 22.416
10.5158 22.982
10.5310 22.950
10.5462 22.517
10.5613 22.243
10.5765 22.750
10.5917 22.765
10.6069 23.068
10.6220 23.068
10.6372 23.103
10.6524 22.838
10.6676 22.451
10.6827 22.843
10.6979 22.828
10.7131 22.496
10.7283 22.322
10.7434 22.497
10.7586 22.380
10.7738 22.505
10.7890 22.216
10.8041 22.007
10.8193 22.241
10.8345 22.147
10.8497 22.228
10.8648 22.343
10.8800 22.326
10.8952 22.229
10.9104 22.004
10.9255 21.859
10.9407 22.277
10.9559 22.296
10.9711 21.933
10.9862 22.287
11.0014 22.741
11.0166 22.518
11.0318 21.927
11.0469 21.895
11.0621 22.127
11.0773 22.093
11.0925 21.865
11.1076 21.883
11.1228 21.989
11.1380 22.066
11.1532 21.579
11.1683 22.081
11.1835 21.875
11.1987 22.035
11.2139 21.838
11.2290 21.448
11.2442 21.614
11.2594 21.964
11.2746 21.598
11.2897 21.478
11.3049 21.899
11.3201 21.684
11.3353 21.629
11.3504 21.698
11.3656 21.716
11.3808 21.471
11.3960 21.311
11.4111 21.135
11.4263 21.372
11.4415 21.137
11.4567 21.347
11.4718 21.419
11.4870 21.219
11.5022 21.045
11.5174 21.119
11.5325 21.111
11.5477 20.989
11.5629 20.777
11.5781 20.659
11.5932 20.654
11.6084 20.948
11.6236 20.368
11.6388 20.991
11.6539 20.971
11.6691 20.742
11.6843 20.467
11.6995 20.758
11.7146 20.566
11.7298 20.044
11.7450 20.551
11.7602 20.416
11.7753 20.261
11.7905 20.233
11.8057 20.217
11.8209 20.304
11.8360 20.056
11.8512 19.609
11.8664 19.677
11.8816 19.797
11.8967 20.025
11.9119 19.850
11.9271 19.559
11.9423 19.479
11.9574 19.605
11.9726 19.615
11.9878 19.579
12.0030 19.501
12.0181 19.279
12.0333 19.255
12.0485 18.881
12.0637 18.975
12.0788 19.058
12.0940 18.657
12.1092 18.597
12.1244 18.346
12.1395 18.242
12.1547 18.393
12.1699 18.484
12.1851 18.421
12.2002 18.161
12.2154 18.098
12.2306 18.055
12.2458 18.119
12.2609 17.854
12.2761 17.902
12.2913 18.019
12.3065 17.672
12.3216 17.599
12.3368 17.567
12.3520 17.317
12.3672 17.254
12.3823 17.608
12.3975 17.485
12.4127 17.352
12.4279 17.454
12.4430 17.243
12.4582 17.104
12.4734 17.090
12.4886 17.256
12.5037 17.169
12.5189 17.070
12.5341 16.810
12.5493 16.620
12.5644 16.567
12.5796 16.492
12.5948 16.494
12.6100 16.297
12.6251 16.162
12.6403 15.927
12.6555 15.672
12.6707 15.610
12.6858 15.622
12.7010 15.730
12.7162 15.696
12.7314 15.738
12.7465 15.485
12.7617 15.345
12.7769 15.361
12.7921 15.174
12.8072 15.120
12.8224 15.124
12.8376 15.176
12.8528 14.924
12.8679 14.756
12.8831 14.925
12.8983 14.748
12.9135 14.503
12.9286 14.551
12.9438 14.327
12.9590 14.129
12.9742 14.255
12.9893 14.291
13.0045 14.244
13.0197 14.476
13.0349 14.521
13.0500 14.089
13.0652 13.841
13.0804 14.043
13.0956 14.089
13.1107 13.892
13.1259 13.759
13.1411 13.487
13.1563 13.541
13.1714 13.472
13.1866 13.379
13.2018 13.476
13.2170 13.356
13.2321 13.344
13.2473 13.331
13.2625 13.436
13.2777 13.513
13.2928 13.315
13.3080 12.974
13.3232 12.909
13.3384 13.182
13.3535 13.411
13.3687 13.310
13.3839 13.194
13.3991 12.918
13.4142 12.738
13.4294 12.765
13.4446 12.650
13.4598 12.742
13.4749 12.731
13.4901 12.678
13.5053 12.484
13.5205 12.278
13.5356 12.499
13.5508 12.716
13.5660 12.387
13.5812 12.317
13.5963 12.198
13.6115 12.105
13.6267 12.305
13.6419 12.005
13.6570 11.943
13.6722 12.041
13.6874 12.064
13.7026 12.079
13.7177 12.197
13.7329 11.904
13.7481 12.067
13.7633 12.139
13.7784 12.165
13.7936 12.161
13.8088 12.107
13.8239 12.109
13.8391 12.242
13.8543 12.371
13.8695 12.472
13.8846 12.294
13.8998 12.090
13.9150 12.342
13.9302 12.088
13.9453 11.856
13.9605 11.515
13.9757 11.495
13.9909 11.676
14.0060 11.387
14.0212 11.481
14.0364 11.474
14.0516 11.264
14.0667 11.331
14.0819 11.436
14.0971 11.505
14.1123 11.364
14.1274 11.376
14.1426 11.654
14.1578 11.764
14.1730 11.607
14.1881 11.620
14.2033 11.900
14.2185 11.494
14.2337 11.511
14.2488 11.955
14.2640 11.773
14.2792 11.768
14.2944 12.300
14.3095 12.131
14.3247 12.566
14.3399 12.542
14.3551 12.435
14.3702 12.978
14.3854 13.071
14.4006 13.026
14.4158 12.967
14.4309 12.957
14.4461 12.726
14.4613 12.921
14.4765 13.038
14.4916 12.760
14.5068 12.559
14.5220 12.401
14.5372 12.374
14.5523 12.245
14.5675 12.097
14.5827 12.061
14.5979 11.892
14.6130 11.643
14.6282 11.545
14.6434 11.268
14.6586 11.256
14.6737 11.397
14.6889 10.943
14.7041 11.250
14.7193 11.122
14.7344 10.762
14.7496 10.732
14.7648 10.910
14.7800 10.942
14.7951 10.890
14.8103 10.652
14.8255 10.755
14.8407 10.493
14.8558 10.454
14.8710 10.600
14.8862 10.615
14.9014 10.635
14.9165 10.938
14.9317 10.950
14.9469 10.360
14.9621 10.467
14.9772 10.556
14.9924 10.200
15.0076 10.667
15.0228 10.573
15.0379 10.646
15.0531 10.769
15.0683 10.593
15.0835 10.268
15.0986 10.496
15.1138 10.382
15.1290 10.706
15.1442 10.778
15.1593 10.403
15.1745 10.363
15.1897 10.593
15.2049 10.632
15.2200 10.547
15.2352 10.467
15.2504 10.555
15.2656 10.223
15.2807 10.165
15.2959 10.196
15.3111 10.489
15.3263 10.205
15.3414 10.116
15.3566 10.387
15.3718 10.435
15.3870 10.355
15.4021 10.515
15.4173 10.609
15.4325 10.399
15.4477 10.566
15.4628 10.527
15.4780 10.633
15.4932 10.105
15.5084 10.465
15.5235 10.360
15.5387 10.354
15.5539 10.217
15.5691 9.954
15.5842 10.327
15.5994 10.173
15.6146 10.179
15.6298 9.869
15.6449 10.249
15.6601 10.079
15.6753 9.687
15.6905 9.890
15.7056 9.832
15.7208 10.025
15.7360 9.844
15.7512 9.791
15.7663 9.597
15.7815 9.833
15.7967 9.813
15.8119 9.773
15.8270 9.953
15.8422 9.951
15.8574 9.817
15.8726 9.478
15.8877 9.509
15.9029 9.612
15.9181 9.414
15.9333 9.589
15.9484 9.770
15.9636 9.853
15.9788 9.905
15.9940 9.852
16.0091 9.862
16.0243 9.699
16.0395 9.916
16.0547 9.812
16.0698 9.812
16.0850 9.823
16.1002 9.621
16.1154 9.653
16.1305 9.637
16.1457 9.394
16.1609 9.530
16.1761 9.690
16.1912 9.704
16.2064 9.569
16.2216 9.640
16.2368 9.864
16.2519 9.858
16.2671 9.940
16.2823 9.885
16.2975 10.036
16.3126 10.193
16.3278 10.028
16.3430 9.990
16.3582 10.191
16.3733 10.095
16.3885 10.308
16.4037 10.215
16.4189 10.144
16.4340 9.922
16.4492 9.959
16.4644 9.972
16.4796 9.665
16.4947 9.797
16.5099 9.778
16.5251 9.714
16.5403 9.899
16.5554 9.803
16.5706 9.613
16.5858 9.554
16.6010 9.573
16.6161 9.803
16.6313 9.884
16.6465 9.848
16.6617 9.804
16.6768 9.998
16.6920 10.006
16.7072 10.044
16.7224 10.010
16.7375 9.960
16.7527 9.968
16.7679 9.928
16.7831 10.032
16.7982 9.849
16.8134 9.664
16.8286 10.012
16.8438 10.007
16.8589 10.050
16.8741 10.099
16.8893 9.774
16.9045 9.544
16.9196 9.558
16.9348 9.754
16.9500 9.769
16.9652 9.835
16.9803 9.840
16.9955 9.860
17.0107 9.924
17.0259 9.851
17.0410 9.916
17.0562 10.155
17.0714 10.348
17.0866 10.359
17.1017 10.253
17.1169 10.637
17.1321 11.042
17.1473 11.345
17.1624 11.786
17.1776 12.449
17.1928 13.270
17.2080 13.889
17.2231 14.976
17.2383 16.276
17.2535 17.472
17.2687 18.320
17.2838 18.485
17.2990 17.986
17.3142 17.074
17.3294 16.372
17.3445 16.058
17.3597 16.079
17.3749 15.963
17.3901 15.313
17.4052 14.292
17.4204 13.266
17.4356 12.540
17.4508 11.950
17.4659 11.793
17.4811 11.875
17.4963 11.682
17.5115 11.487
17.5266 11.361
17.5418 11.369
17.5570 11.242
17.5722 11.184
17.5873 11.367
17.6025 11.662
17.6177 11.681
17.6329 11.223
17.6480 11.172
17.6632 11.260
17.6784 11.207
17.6936 11.081
17.7087 10.829
17.7239 10.949
17.7391 10.812
17.7543 10.538
17.7694 10.677
17.7846 10.900
17.7998 10.852
17.8150 10.776
17.8301 10.818
17.8453 10.712
17.8605 10.761
17.8757 11.055
17.8908 11.050
17.9060 10.957
17.9212 10.736
17.9364 10.519
17.9515 10.509
17.9667 10.607
17.9819 10.522
17.9971 10.569
18.0122 10.470
18.0274 10.554
18.0426 10.534
18.0578 10.224
18.0729 10.006
18.0881 9.975
18.1033 10.042
18.1185 9.891
18.1336 9.911
18.1488 10.025
18.1640 10.186
18.1792 10.326
18.1943 10.330
18.2095 10.045
18.2247 10.119
18.2399 9.890
18.2550 9.852
18.2702 9.701
18.2854 9.687
18.3006 9.830
18.3157 9.915
18.3309 9.723
18.3461 9.584
18.3613 9.717
18.3764 9.912
18.3916 9.858
18.4068 9.933
18.4220 9.964
18.4371 9.831
18.4523 9.833
18.4675 9.716
18.4827 9.759
18.4978 9.748
18.5130 9.869
18.5282 10.159
18.5434 9.941
18.5585 9.794
18.5737 9.750
18.5889 9.589
18.6041 9.768
18.6192 9.866
18.6344 9.745
18.6496 9.879
18.6648 9.970
18.6799 9.845
18.6951 9.798
18.7103 9.939
18.7255 9.902
18.7406 9.736
18.7558 9.782
18.7710 9.719
18.7862 9.900
18.8013 10.000
18.8165 9.827
18.8317 9.794
18.8469 9.800
18.8620 9.769
18.8772 9.936
18.8924 10.032
18.9076 10.055
18.9227 9.853
18.9379 9.905
18.9531 9.967
18.9683 10.040
18.9834 10.162
18.9986 10.218
19.0138 10.279
19.0290 10.263
19.0441 10.229
19.0593 10.280
19.0745 10.401
19.0897 10.345
19.1048 10.352
19.1200 10.416
19.1352 10.443
19.1504 10.647
19.1655 10.584
19.1807 10.476
19.1959 10.547
19.2111 10.446
19.2262 10.569
19.2414 10.689
19.2566 10.735
19.2718 10.726
19.2869 10.837
19.3021 10.762
19.3173 10.852
19.3325 11.082
19.3476 11.204
19.3628 10.955
19.3780 10.971
19.3932 11.124
19.4083 11.098
19.4235 11.072
19.4387 11.263
19.4539 11.351
19.4690 11.428
19.4842 11.583
19.4994 11.506
19.5146 11.250
19.5297 11.232
19.5449 11.534
19.5601 11.503
19.5753 11.405
19.5904 11.571
19.6056 11.644
19.6208 11.563
19.6360 11.551
19.6511 11.542
19.6663 11.356
19.6815 11.407
19.6967 11.535
19.7118 11.609
19.7270 11.699
19.7422 11.844
19.7574 11.802
19.7725 11.649
19.7877 11.554
19.8029 11.886
19.8180 11.957
19.8332 11.847
19.8484 12.138
19.8636 12.085
19.8787 12.089
19.8939 12.455
19.9091 12.698
19.9243 13.039
19.9394 13.607
19.9546 14.078
19.9698 14.361
19.9850 14.619
20.0001 14.612
20.0153 14.093
20.0305 13.699
20.0457 13.549
20.0608 13.636
20.0760 13.599
20.0912 13.670
20.1064 13.601
20.1215 13.361
20.1367 13.298
20.1519 13.105
20.1671 13.085
20.1822 13.211
20.1974 13.092
20.2126 12.819
20.2278 12.704
20.2429 12.437
20.2581 12.174
20.2733 12.311
20.2885 12.136
20.3036 11.894
20.3188 11.829
20.3340 11.704
20.3492 11.724
20.3643 11.722
20.3795 11.539
20.3947 11.288
20.4099 11.055
20.4250 11.109
20.4402 11.159
20.4554 11.104
20.4706 10.876
20.4857 10.784
20.5009 10.857
20.5161 10.909
20.5313 10.914
20.5464 10.968
20.5616 10.806
20.5768 10.606
20.5920 10.691
20.6071 11.074
20.6223 11.204
20.6375 10.709
20.6527 10.728
20.6678 10.628
20.6830 10.653
20.6982 10.510
20.7134 10.413
20.7285 10.784
20.7437 10.945
20.7589 10.683
20.7741 10.464
20.7892 10.450
20.8044 10.604
20.8196 10.162
20.8348 10.346
20.8499 10.677
20.8651 10.345
20.8803 10.215
20.8955 10.192
20.9106 10.274
20.9258 10.191
20.9410 10.089
20.9562 10.043
20.9713 9.841
20.9865 9.956
21.0017 9.956
21.0169 10.081
21.0320 10.097
21.0472 10.077
21.0624 9.929
21.0776 9.863
21.0927 10.156
21.1079 9.861
21.1231 9.960
21.1383 9.668
21.1534 9.619
21.1686 9.861
21.1838 9.606
21.1990 9.565
21.2141 9.263
21.2293 9.725
21.2445 9.624
21.2597 9.501
21.2748 9.333
21.2900 9.558
21.3052 9.635
21.3204 9.601
21.3355 9.530
21.3507 9.553
21.3659 9.434
21.3811 9.647
21.3962 9.520
21.4114 9.364
21.4266 9.646
21.4418 9.775
21.4569 9.284
21.4721 9.572
21.4873 9.222
21.5025 9.153
21.5176 9.247
21.5328 9.368
21.5480 9.399
21.5632 9.170
21.5783 9.198
21.5935 9.355
21.6087 9.215
21.6239 9.018
21.6390 9.195
21.6542 9.011
21.6694 9.018
21.6846 9.100
21.6997 8.981
21.7149 9.187
21.7301 8.985
21.7453 8.827
21.7604 9.133
21.7756 9.081
21.7908 8.829
21.8060 8.953
21.8211 8.968
21.8363 8.998
21.8515 9.051
21.8667 8.946
21.8818 9.062
21.8970 9.127
21.9122 8.805
21.9274 8.925
21.9425 8.932
21.9577 8.649
21.9729 8.801
21.9881 9.015
22.0032 8.936
22.0184 8.899
22.0336 8.789
22.0488 8.767
22.0639 8.892
22.0791 8.859
22.0943 8.764
22.1095 8.786
22.1246 8.675
22.1398 8.604
22.1550 8.715
22.1702 8.810
22.1853 8.674
22.2005 8.448
22.2157 8.566
22.2309 8.809
22.2460 8.779
22.2612 8.558
22.2764 8.559
22.2916 8.518
22.3067 8.372
22.3219 8.492
22.3371 8.614
22.3523 8.677
22.3674 8.722
22.3826 8.482
22.3978 8.409
22.4130 8.707
22.4281 8.486
22.4433 8.464
22.4585 8.429
22.4737 8.539
22.4888 8.494
22.5040 8.778
22.5192 8.662
22.5344 8.637
22.5495 8.356
22.5647 8.353
22.5799 8.270
22.5951 8.493
22.6102 8.558
22.6254 8.703
22.6406 8.707
22.6558 8.204
22.6709 8.411
22.6861 8.492
22.7013 8.211
22.7165 7.973
22.7316 6.498
