'Id: "" Comment: "" Operator: "Lab Manager" Anode: "Mo" Scantype: "Still (Eiger2R_500K (1D mode))" TimePerStep: "300" X: "11.8" Y: "9.4" Z: "11.284" 
7.2532 18.922
7.2684 18.442
7.2836 18.861
7.2987 19.135
7.3139 19.184
7.3291 19.209
7.3443 19.902
7.3594 19.169
7.3746 19.950
7.3898 19.568
7.4050 19.297
7.4201 19.690
7.4353 19.814
7.4505 19.984
7.4657 19.668
7.4808 20.186
7.4960 19.865
7.5112 19.629
7.5264 19.500
7.5415 19.858
7.5567 19.950
7.5719 19.996
7.5871 20.003
7.6022 20.254
7.6174 20.087
7.6326 20.030
7.6478 20.279
7.6629 20.105
7.6781 19.967
7.6933 20.066
7.7085 20.245
7.7236 20.158
7.7388 20.302
7.7540 20.689
7.7692 20.364
7.7843 20.064
7.7995 20.121
7.8147 20.561
7.8299 20.790
7.8450 20.651
7.8602 20.741
7.8754 20.821
7.8905 20.940
7.9057 21.023
7.9209 20.969
7.9361 20.649
7.9512 20.705
7.9664 20.804
7.9816 20.825
7.9968 20.950
8.0119 21.291
8.0271 21.050
8.0423 21.038
8.0575 21.144
8.0726 21.150
8.0878 21.427
8.1030 21.461
8.1182 21.279
8.1333 21.109
8.1485 21.041
8.1637 21.441
8.1789 21.040
8.1940 21.720
8.2092 21.591
8.2244 21.718
8.2396 22.112
8.2547 21.660
8.2699 21.541
8.2851 21.620
8.3003 21.934
8.3154 21.685
8.3306 22.032
8.3458 21.911
8.3610 21.980
8.3761 21.863
8.3913 21.736
8.4065 22.639
8.4217 22.131
8.4368 22.236
8.4520 22.118
8.4672 21.840
8.4824 21.789
8.4975 22.227
8.5127 22.323
8.5279 22.230
8.5431 21.588
8.5582 21.961
8.5734 22.033
8.5886 22.352
8.6038 22.207
8.6189 21.692
8.6341 21.975
8.6493 22.116
8.6645 22.488
8.6796 22.351
8.6948 22.389
8.7100 21.928
8.7252 22.681
8.7403 22.317
8.7555 22.686
8.7707 21.873
8.7859 21.950
8.8010 22.355
8.8162 22.430
8.8314 22.623
8.8466 22.809
8.8617 22.852
8.8769 23.154
8.8921 22.774
8.9073 22.777
8.9224 23.053
8.9376 23.038
8.9528 22.847
8.9680 22.322
8.9831 22.623
8.9983 23.090
9.0135 22.886
9.0287 22.912
9.0438 22.890
9.0590 22.675
9.0742 23.063
9.0894 23.145
9.1045 22.904
9.1197 22.880
9.1349 22.561
9.1501 23.090
9.1652 23.178
9.1804 23.009
9.1956 22.889
9.2108 23.343
9.2259 22.885
9.2411 23.242
9.2563 23.339
9.2715 23.149
9.2866 22.985
9.3018 23.305
9.3170 23.236
9.3322 22.901
9.3473 23.248
9.3625 23.036
9.3777 23.258
9.3929 23.463
9.4080 23.329
9.4232 23.170
9.4384 22.703
9.4536 23.040
9.4687 23.210
9.4839 23.083
9.4991 23.425
9.5143 22.960
9.5294 22.829
9.5446 23.288
9.5598 23.424
9.5750 23.455
9.5901 23.340
9.6053 23.139
9.6205 23.311
9.6357 23.539
9.6508 23.679
9.6660 23.744
9.6812 23.780
9.6964 23.748
9.7115 24.009
9.7267 23.979
9.7419 23.916
9.7571 23.967
9.7722 23.821
9.7874 23.783
9.8026 23.772
9.8178 23.899
9.8329 23.979
9.8481 24.031
9.8633 24.198
9.8785 24.033
9.8936 24.049
9.9088 24.183
9.9240 24.283
9.9392 24.193
9.9543 23.791
9.9695 23.694
9.9847 23.407
9.9999 23.236
10.0150 23.431
10.0302 23.368
10.0454 23.352
10.0606 23.220
10.0757 23.018
10.0909 23.288
10.1061 23.329
10.1213 23.255
10.1364 23.566
10.1516 23.277
10.1668 23.072
10.1820 23.341
10.1971 23.078
10.2123 23.193
10.2275 23.156
10.2427 23.241
10.2578 22.957
10.2730 22.922
10.2882 22.998
10.3034 23.115
10.3185 23.041
10.3337 23.077
10.3489 22.948
10.3641 23.071
10.3792 23.348
10.3944 23.380
10.4096 23.366
10.4248 23.080
10.4399 22.841
10.4551 23.034
10.4703 23.128
10.4855 22.929
10.5006 22.869
10.5158 22.480
10.5310 22.371
10.5462 22.285
10.5613 22.374
10.5765 22.652
10.5917 22.841
10.6069 22.801
10.6220 22.829
10.6372 22.515
10.6524 22.481
10.6676 22.500
10.6827 22.459
10.6979 22.462
10.7131 22.543
10.7283 22.549
10.7434 22.186
10.7586 22.313
10.7738 22.442
10.7890 22.351
10.8041 22.475
10.8193 22.300
10.8345 22.440
10.8497 22.015
10.8648 22.173
10.8800 22.515
10.8952 22.332
10.9104 22.066
10.9255 22.430
10.9407 22.150
10.9559 22.144
10.9711 22.269
10.9862 22.422
11.0014 22.242
11.0166 22.470
11.0318 22.372
11.0469 21.888
11.0621 21.730
11.0773 22.080
11.0925 22.297
11.1076 22.069
11.1228 22.018
11.1380 21.868
11.1532 21.673
11.1683 21.692
11.1835 21.483
11.1987 21.864
11.2139 21.636
11.2290 21.413
11.2442 21.502
11.2594 21.518
11.2746 21.594
11.2897 21.891
11.3049 21.974
11.3201 21.631
11.3353 21.536
11.3504 21.556
11.3656 21.595
11.3808 21.337
11.3960 21.359
11.4111 21.819
11.4263 21.449
11.4415 20.978
11.4567 21.382
11.4718 21.400
11.4870 21.204
11.5022 21.294
11.5174 21.471
11.5325 21.453
11.5477 20.950
11.5629 21.305
11.5781 21.079
11.5932 20.857
11.6084 21.275
11.6236 21.028
11.6388 20.596
11.6539 20.724
11.6691 20.692
11.6843 20.746
11.6995 20.724
11.7146 20.681
11.7298 20.856
11.7450 20.675
11.7602 20.387
11.7753 20.240
11.7905 20.265
11.8057 20.170
11.8209 20.183
11.8360 20.188
11.8512 19.838
11.8664 19.810
11.8816 19.892
11.8967 19.827
11.9119 19.644
11.9271 19.688
11.9423 19.520
11.9574 19.372
11.9726 19.472
11.9878 19.226
12.0030 19.176
12.0181 19.231
12.0333 19.379
12.0485 19.117
12.0637 18.809
12.0788 19.020
12.0940 18.945
12.1092 18.673
12.1244 18.749
12.1395 18.442
12.1547 18.346
12.1699 18.502
12.1851 18.204
12.2002 18.069
12.2154 18.271
12.2306 18.315
12.2458 18.213
12.2609 18.117
12.2761 17.868
12.2913 17.928
12.3065 17.877
12.3216 17.514
12.3368 17.463
12.3520 17.666
12.3672 17.405
12.3823 17.487
12.3975 17.446
12.4127 17.272
12.4279 16.982
12.4430 17.210
12.4582 17.251
12.4734 16.893
12.4886 16.710
12.5037 16.806
12.5189 16.500
12.5341 16.505
12.5493 16.326
12.5644 16.279
12.5796 16.275
12.5948 16.216
12.6100 16.418
12.6251 16.270
12.6403 15.756
12.6555 15.831
12.6707 16.009
12.6858 15.689
12.7010 15.581
12.7162 15.381
12.7314 15.439
12.7465 15.714
12.7617 15.439
12.7769 15.080
12.7921 15.294
12.8072 15.282
12.8224 15.218
12.8376 14.965
12.8528 14.622
12.8679 14.767
12.8831 14.721
12.8983 14.588
12.9135 14.783
12.9286 14.971
12.9438 14.864
12.9590 14.746
12.9742 14.585
12.9893 14.474
13.0045 14.437
13.0197 14.381
13.0349 14.395
13.0500 14.406
13.0652 14.173
13.0804 13.938
13.0956 14.087
13.1107 13.886
13.1259 13.633
13.1411 13.699
13.1563 13.739
13.1714 13.781
13.1866 13.608
13.2018 13.472
13.2170 13.679
13.2321 13.729
13.2473 13.424
13.2625 13.317
13.2777 13.445
13.2928 13.443
13.3080 13.461
13.3232 13.485
13.3384 13.361
13.3535 13.342
13.3687 13.346
13.3839 13.463
13.3991 13.286
13.4142 12.976
13.4294 13.019
13.4446 13.064
13.4598 12.913
13.4749 12.784
13.4901 12.886
13.5053 12.762
13.5205 12.725
13.5356 12.589
13.5508 12.375
13.5660 12.474
13.5812 12.568
13.5963 12.612
13.6115 12.465
13.6267 12.274
13.6419 12.343
13.6570 12.266
13.6722 12.331
13.6874 12.424
13.7026 12.435
13.7177 12.577
13.7329 12.263
13.7481 12.021
13.7633 12.086
13.7784 12.029
13.7936 11.955
13.8088 12.178
13.8239 12.098
13.8391 12.549
13.8543 12.461
13.8695 12.305
13.8846 12.358
13.8998 12.281
13.9150 11.866
13.9302 11.909
13.9453 11.863
13.9605 11.957
13.9757 11.685
13.9909 11.690
14.0060 11.561
14.0212 11.759
14.0364 11.643
14.0516 11.563
14.0667 11.562
14.0819 11.483
14.0971 11.410
14.1123 11.411
14.1274 11.449
14.1426 11.429
14.1578 11.311
14.1730 11.186
14.1881 11.519
14.2033 11.518
14.2185 11.340
14.2337 11.409
14.2488 11.549
14.2640 11.469
14.2792 11.405
14.2944 11.570
14.3095 11.750
14.3247 11.683
14.3399 11.644
14.3551 11.837
14.3702 11.954
14.3854 12.339
14.4006 12.580
14.4158 12.647
14.4309 12.870
14.4461 12.470
14.4613 12.545
14.4765 12.198
14.4916 12.282
14.5068 11.921
14.5220 12.016
14.5372 11.945
14.5523 11.413
14.5675 11.338
14.5827 11.447
14.5979 11.171
14.6130 11.090
14.6282 11.247
14.6434 10.980
14.6586 11.038
14.6737 11.124
14.6889 10.992
14.7041 11.211
14.7193 11.103
14.7344 10.962
14.7496 11.297
14.7648 11.046
14.7800 11.234
14.7951 11.086
14.8103 11.148
14.8255 10.765
14.8407 11.163
14.8558 10.882
14.8710 11.033
14.8862 10.831
14.9014 10.763
14.9165 11.048
14.9317 11.208
14.9469 11.007
14.9621 10.777
14.9772 10.530
14.9924 10.659
15.0076 10.417
15.0228 10.838
15.0379 10.294
15.0531 10.595
15.0683 10.616
15.0835 10.348
15.0986 10.473
15.1138 10.737
15.1290 10.597
15.1442 10.357
15.1593 10.510
15.1745 10.335
15.1897 10.185
15.2049 10.579
15.2200 10.220
15.2352 10.275
15.2504 10.464
15.2656 10.536
15.2807 10.424
15.2959 10.146
15.3111 10.665
15.3263 10.292
15.3414 10.328
15.3566 10.454
15.3718 9.982
15.3870 10.261
15.4021 10.309
15.4173 10.240
15.4325 10.240
15.4477 10.363
15.4628 10.439
15.4780 10.137
15.4932 10.578
15.5084 10.509
15.5235 10.344
15.5387 10.238
15.5539 10.276
15.5691 10.316
15.5842 10.214
15.5994 10.465
15.6146 10.438
15.6298 10.378
15.6449 10.142
15.6601 10.084
15.6753 10.241
15.6905 10.266
15.7056 10.042
15.7208 9.878
15.7360 9.786
15.7512 9.574
15.7663 9.847
15.7815 9.768
15.7967 10.156
15.8119 9.921
15.8270 10.059
15.8422 9.881
15.8574 9.916
15.8726 9.735
15.8877 9.947
15.9029 9.707
15.9181 9.687
15.9333 9.606
15.9484 9.949
15.9636 9.889
15.9788 9.803
15.9940 9.988
16.0091 9.677
16.0243 9.901
16.0395 10.133
16.0547 9.990
16.0698 9.900
16.0850 9.764
16.1002 9.791
16.1154 9.952
16.1305 9.777
16.1457 9.389
16.1609 9.447
16.1761 9.745
16.1912 9.833
16.2064 9.936
16.2216 9.995
16.2368 9.981
16.2519 9.814
16.2671 9.726
16.2823 9.970
16.2975 10.033
16.3126 9.878
16.3278 10.075
16.3430 10.011
16.3582 10.188
16.3733 10.134
16.3885 10.100
16.4037 9.958
16.4189 10.153
16.4340 9.843
16.4492 9.414
16.4644 9.435
16.4796 9.706
16.4947 9.878
16.5099 9.796
16.5251 9.702
16.5403 10.042
16.5554 10.170
16.5706 9.960
16.5858 9.798
16.6010 9.937
16.6161 9.871
16.6313 9.699
16.6465 9.847
16.6617 9.907
16.6768 9.859
16.6920 9.961
16.7072 10.152
16.7224 10.018
16.7375 10.259
16.7527 10.382
16.7679 10.176
16.7831 9.891
16.7982 9.991
16.8134 9.952
16.8286 9.982
16.8438 10.054
16.8589 10.033
16.8741 9.982
16.8893 9.898
16.9045 9.947
16.9196 9.894
16.9348 9.917
16.9500 10.045
16.9652 10.053
16.9803 10.116
16.9955 10.101
17.0107 10.100
17.0259 10.171
17.0410 10.237
17.0562 10.341
17.0714 10.417
17.0866 10.526
17.1017 10.800
17.1169 11.129
17.1321 11.341
17.1473 11.557
17.1624 11.703
17.1776 12.340
17.1928 13.324
17.2080 14.099
17.2231 15.116
17.2383 16.316
17.2535 17.372
17.2687 18.369
17.2838 18.742
17.2990 18.133
17.3142 17.075
17.3294 16.448
17.3445 16.380
17.3597 16.264
17.3749 16.120
17.3901 15.199
17.4052 13.985
17.4204 13.089
17.4356 12.318
17.4508 12.016
17.4659 11.591
17.4811 11.149
17.4963 11.184
17.5115 11.222
17.5266 10.846
17.5418 10.459
17.5570 10.447
17.5722 10.603
17.5873 10.469
17.6025 10.328
17.6177 10.260
17.6329 10.160
17.6480 10.137
17.6632 10.251
17.6784 10.081
17.6936 9.991
17.7087 10.254
17.7239 10.136
17.7391 10.297
17.7543 10.513
17.7694 10.503
17.7846 10.621
17.7998 10.689
17.8150 10.632
17.8301 10.954
17.8453 10.953
17.8605 10.809
17.8757 10.913
17.8908 11.130
17.9060 11.234
17.9212 11.239
17.9364 10.900
17.9515 10.740
17.9667 10.846
17.9819 10.618
17.9971 10.365
18.0122 10.455
18.0274 10.694
18.0426 10.708
18.0578 10.446
18.0729 10.421
18.0881 10.383
18.1033 10.263
18.1185 10.268
18.1336 10.262
18.1488 10.093
18.1640 10.027
18.1792 9.890
18.1943 9.973
18.2095 10.048
18.2247 9.964
18.2399 9.983
18.2550 10.136
18.2702 10.124
18.2854 10.030
18.3006 10.047
18.3157 9.882
18.3309 10.026
18.3461 9.951
18.3613 9.816
18.3764 9.965
18.3916 9.949
18.4068 9.993
18.4220 9.916
18.4371 9.734
18.4523 9.742
18.4675 9.837
18.4827 9.762
18.4978 9.900
18.5130 9.933
18.5282 9.847
18.5434 9.774
18.5585 10.011
18.5737 9.984
18.5889 9.797
18.6041 9.971
18.6192 10.082
18.6344 10.021
18.6496 9.804
18.6648 9.825
18.6799 9.819
18.6951 9.841
18.7103 9.969
18.7255 9.790
18.7406 9.744
18.7558 9.717
18.7710 9.797
18.7862 9.878
18.8013 9.651
18.8165 9.447
18.8317 9.842
18.8469 9.973
18.8620 9.957
18.8772 9.981
18.8924 10.147
18.9076 9.890
18.9227 9.953
18.9379 10.088
18.9531 10.211
18.9683 9.984
18.9834 9.840
18.9986 10.156
19.0138 10.384
19.0290 10.220
19.0441 10.120
19.0593 10.183
19.0745 10.163
19.0897 10.284
19.1048 10.339
19.1200 10.361
19.1352 10.611
19.1504 10.628
19.1655 10.736
19.1807 10.817
19.1959 10.675
19.2111 10.850
19.2262 10.978
19.2414 10.930
19.2566 10.749
19.2718 10.785
19.2869 11.090
19.3021 11.031
19.3173 10.969
19.3325 11.100
19.3476 11.100
19.3628 11.171
19.3780 11.177
19.3932 11.101
19.4083 11.085
19.4235 11.180
19.4387 11.290
19.4539 11.368
19.4690 11.382
19.4842 11.134
19.4994 11.239
19.5146 11.626
19.5297 11.745
19.5449 11.697
19.5601 11.713
19.5753 11.723
19.5904 11.672
19.6056 11.758
19.6208 11.808
19.6360 11.871
19.6511 11.829
19.6663 11.632
19.6815 11.599
19.6967 11.803
19.7118 11.862
19.7270 11.902
19.7422 11.809
19.7574 11.742
19.7725 11.800
19.7877 11.817
19.8029 11.836
19.8180 12.028
19.8332 12.027
19.8484 12.214
19.8636 12.624
19.8787 12.779
19.8939 13.065
19.9091 13.503
19.9243 13.834
19.9394 14.095
19.9546 14.176
19.9698 14.093
19.9850 14.500
20.0001 14.506
20.0153 14.240
20.0305 14.090
20.0457 14.013
20.0608 13.876
20.0760 13.884
20.0912 13.933
20.1064 13.767
20.1215 13.646
20.1367 13.610
20.1519 13.183
20.1671 12.987
20.1822 12.653
20.1974 12.693
20.2126 12.695
20.2278 12.735
20.2429 12.558
20.2581 12.216
20.2733 11.709
20.2885 11.599
20.3036 11.735
20.3188 11.673
20.3340 11.763
20.3492 11.371
20.3643 11.323
20.3795 11.374
20.3947 10.955
20.4099 10.830
20.4250 10.867
20.4402 10.686
20.4554 10.781
20.4706 10.739
20.4857 10.699
20.5009 10.649
20.5161 10.722
20.5313 10.880
20.5464 10.725
20.5616 10.602
20.5768 10.648
20.5920 10.422
20.6071 10.597
20.6223 10.493
20.6375 10.449
20.6527 10.433
20.6678 10.357
20.6830 10.616
20.6982 10.673
20.7134 10.402
20.7285 10.552
20.7437 10.568
20.7589 10.367
20.7741 10.393
20.7892 10.450
20.8044 10.190
20.8196 10.157
20.8348 10.620
20.8499 10.360
20.8651 10.403
20.8803 10.368
20.8955 10.540
20.9106 10.528
20.9258 10.533
20.9410 10.672
20.9562 10.502
20.9713 10.588
20.9865 10.493
21.0017 10.378
21.0169 10.343
21.0320 10.468
21.0472 10.292
21.0624 10.222
21.0776 10.144
21.0927 9.962
21.1079 10.403
21.1231 9.974
21.1383 10.028
21.1534 9.861
21.1686 10.039
21.1838 9.715
21.1990 9.730
21.2141 9.717
21.2293 10.025
21.2445 9.607
21.2597 9.543
21.2748 9.602
21.2900 9.726
21.3052 9.644
21.3204 9.502
21.3355 9.711
21.3507 9.362
21.3659 9.591
21.3811 9.467
21.3962 9.317
21.4114 9.524
21.4266 9.618
21.4418 9.691
21.4569 9.434
21.4721 9.420
21.4873 9.664
21.5025 9.272
21.5176 9.567
21.5328 9.325
21.5480 8.968
21.5632 9.529
21.5783 9.408
21.5935 9.148
21.6087 9.160
21.6239 9.091
21.6390 9.071
21.6542 9.060
21.6694 9.245
21.6846 9.181
21.6997 9.274
21.7149 9.193
21.7301 9.059
21.7453 9.130
21.7604 9.273
21.7756 9.021
21.7908 9.157
21.8060 9.177
21.8211 9.037
21.8363 9.074
21.8515 9.180
21.8667 9.113
21.8818 8.920
21.8970 8.989
21.9122 9.074
21.9274 8.858
21.9425 8.900
21.9577 8.932
21.9729 8.787
21.9881 8.704
22.0032 8.717
22.0184 8.812
22.0336 8.784
22.0488 8.753
22.0639 8.828
22.0791 8.864
22.0943 8.620
22.1095 8.578
22.1246 8.685
22.1398 8.637
22.1550 8.738
22.1702 8.776
22.1853 8.637
22.2005 8.573
22.2157 8.626
22.2309 8.463
22.2460 8.443
22.2612 8.620
22.2764 8.477
22.2916 8.539
22.3067 8.486
22.3219 8.479
22.3371 8.717
22.3523 8.588
22.3674 8.338
22.3826 8.350
22.3978 8.433
22.4130 8.570
22.4281 8.424
22.4433 8.431
22.4585 8.343
22.4737 8.496
22.4888 8.357
22.5040 8.461
22.5192 8.582
22.5344 8.607
22.5495 8.437
22.5647 8.659
22.5799 8.428
22.5951 8.533
22.6102 8.334
22.6254 8.527
22.6406 8.597
22.6558 8.554
22.6709 8.780
22.6861 8.570
22.7013 8.152
22.7165 7.930
22.7316 6.394
