'Id: "" Comment: "" Operator: "Lab Manager" Anode: "Mo" Scantype: "Still (Eiger2R_500K (1D mode))" TimePerStep: "300" X: "11.8" Y: "9.4" Z: "11.284" 
7.2532 18.535
7.2684 18.323
7.2836 18.597
7.2987 18.936
7.3139 19.206
7.3291 18.826
7.3443 19.155
7.3594 19.333
7.3746 19.260
7.3898 19.731
7.4050 19.534
7.4201 18.995
7.4353 19.247
7.4505 19.506
7.4657 19.683
7.4808 19.566
7.4960 19.568
7.5112 19.737
7.5264 19.462
7.5415 19.994
7.5567 19.798
7.5719 19.976
7.5871 20.208
7.6022 20.051
7.6174 19.757
7.6326 19.777
7.6478 20.032
7.6629 20.061
7.6781 20.219
7.6933 20.577
7.7085 20.466
7.7236 20.333
7.7388 20.411
7.7540 20.212
7.7692 20.210
7.7843 20.423
7.7995 20.630
7.8147 20.991
7.8299 20.668
7.8450 20.360
7.8602 20.336
7.8754 20.734
7.8905 20.931
7.9057 21.061
7.9209 21.025
7.9361 21.185
7.9512 20.976
7.9664 20.934
7.9816 20.662
7.9968 20.665
8.0119 20.971
8.0271 21.343
8.0423 21.410
8.0575 21.487
8.0726 21.027
8.0878 21.071
8.1030 21.397
8.1182 21.505
8.1333 21.236
8.1485 21.388
8.1637 21.628
8.1789 21.717
8.1940 21.663
8.2092 21.861
8.2244 21.315
8.2396 21.314
8.2547 21.755
8.2699 21.800
8.2851 21.723
8.3003 21.994
8.3154 21.766
8.3306 21.657
8.3458 21.587
8.3610 21.322
8.3761 21.685
8.3913 21.789
8.4065 22.144
8.4217 22.013
8.4368 22.007
8.4520 22.095
8.4672 22.323
8.4824 21.860
8.4975 21.856
8.5127 22.102
8.5279 22.201
8.5431 22.544
8.5582 22.448
8.5734 22.525
8.5886 22.310
8.6038 22.368
8.6189 22.410
8.6341 22.197
8.6493 22.331
8.6645 22.458
8.6796 22.534
8.6948 22.703
8.7100 22.254
8.7252 22.746
8.7403 22.594
8.7555 22.573
8.7707 22.449
8.7859 22.386
8.8010 22.148
8.8162 22.518
8.8314 22.658
8.8466 22.296
8.8617 23.020
8.8769 22.666
8.8921 23.132
8.9073 22.134
8.9224 22.204
8.9376 22.279
8.9528 22.591
8.9680 23.094
8.9831 22.772
8.9983 22.637
9.0135 22.860
9.0287 22.907
9.0438 23.236
9.0590 22.906
9.0742 22.577
9.0894 22.835
9.1045 22.879
9.1197 23.121
9.1349 22.739
9.1501 22.943
9.1652 22.947
9.1804 22.743
9.1956 23.427
9.2108 23.198
9.2259 22.770
9.2411 22.968
9.2563 23.101
9.2715 23.015
9.2866 22.959
9.3018 22.852
9.3170 22.611
9.3322 23.001
9.3473 23.412
9.3625 23.149
9.3777 22.831
9.3929 23.169
9.4080 23.286
9.4232 23.454
9.4384 23.590
9.4536 23.246
9.4687 23.343
9.4839 23.586
9.4991 23.616
9.5143 23.305
9.5294 23.517
9.5446 23.856
9.5598 23.468
9.5750 23.266
9.5901 23.435
9.6053 23.434
9.6205 23.643
9.6357 23.684
9.6508 23.642
9.6660 23.960
9.6812 24.042
9.6964 23.877
9.7115 23.823
9.7267 23.822
9.7419 23.977
9.7571 24.018
9.7722 23.932
9.7874 23.703
9.8026 23.676
9.8178 23.592
9.8329 23.308
9.8481 23.084
9.8633 23.205
9.8785 23.281
9.8936 23.585
9.9088 23.650
9.9240 23.364
9.9392 23.397
9.9543 23.403
9.9695 23.442
9.9847 23.167
9.9999 23.098
10.0150 23.521
10.0302 23.609
10.0454 23.464
10.0606 23.198
10.0757 23.300
10.0909 23.365
10.1061 23.575
10.1213 23.708
10.1364 23.133
10.1516 23.117
10.1668 23.480
10.1820 23.394
10.1971 23.267
10.2123 23.353
10.2275 23.292
10.2427 23.371
10.2578 23.406
10.2730 23.272
10.2882 23.283
10.3034 23.737
10.3185 23.467
10.3337 23.403
10.3489 23.253
10.3641 22.796
10.3792 23.113
10.3944 23.032
10.4096 22.922
10.4248 22.740
10.4399 22.837
10.4551 22.867
10.4703 22.550
10.4855 22.842
10.5006 23.027
10.5158 22.843
10.5310 22.667
10.5462 22.470
10.5613 22.505
10.5765 22.632
10.5917 22.726
10.6069 22.807
10.6220 22.749
10.6372 22.658
10.6524 22.673
10.6676 22.893
10.6827 22.871
10.6979 22.751
10.7131 23.077
10.7283 23.005
10.7434 22.526
10.7586 22.579
10.7738 22.620
10.7890 22.498
10.8041 22.797
10.8193 22.325
10.8345 22.081
10.8497 22.361
10.8648 22.283
10.8800 22.356
10.8952 22.161
10.9104 22.355
10.9255 22.303
10.9407 22.249
10.9559 22.368
10.9711 22.180
10.9862 22.531
11.0014 22.539
11.0166 22.388
11.0318 22.181
11.0469 22.075
11.0621 22.089
11.0773 22.099
11.0925 22.128
11.1076 22.127
11.1228 22.124
11.1380 22.487
11.1532 22.061
11.1683 22.003
11.1835 22.015
11.1987 21.855
11.2139 22.250
11.2290 22.240
11.2442 21.799
11.2594 21.589
11.2746 22.048
11.2897 21.726
11.3049 21.641
11.3201 21.631
11.3353 21.624
11.3504 21.398
11.3656 21.149
11.3808 21.066
11.3960 21.558
11.4111 21.348
11.4263 21.198
11.4415 21.566
11.4567 21.652
11.4718 21.082
11.4870 21.241
11.5022 21.225
11.5174 21.103
11.5325 21.039
11.5477 21.138
11.5629 21.493
11.5781 21.589
11.5932 20.972
11.6084 20.896
11.6236 21.153
11.6388 21.426
11.6539 20.968
11.6691 20.586
11.6843 20.482
11.6995 20.312
11.7146 20.370
11.7298 20.752
11.7450 20.503
11.7602 20.327
11.7753 20.468
11.7905 20.172
11.8057 20.156
11.8209 20.337
11.8360 20.288
11.8512 20.051
11.8664 20.250
11.8816 19.668
11.8967 19.536
11.9119 19.911
11.9271 19.602
11.9423 19.592
11.9574 19.589
11.9726 19.560
11.9878 19.083
12.0030 19.113
12.0181 19.049
12.0333 19.255
12.0485 19.114
12.0637 19.066
12.0788 19.111
12.0940 19.031
12.1092 18.859
12.1244 18.652
12.1395 18.968
12.1547 18.734
12.1699 18.811
12.1851 18.484
12.2002 18.309
12.2154 18.368
12.2306 17.947
12.2458 17.855
12.2609 18.056
12.2761 18.128
12.2913 17.872
12.3065 17.769
12.3216 17.521
12.3368 17.648
12.3520 17.637
12.3672 17.218
12.3823 17.469
12.3975 17.503
12.4127 17.543
12.4279 17.274
12.4430 17.304
12.4582 17.453
12.4734 17.340
12.4886 16.975
12.5037 16.592
12.5189 16.607
12.5341 16.719
12.5493 16.476
12.5644 16.387
12.5796 16.279
12.5948 16.192
12.6100 16.139
12.6251 16.303
12.6403 16.210
12.6555 15.912
12.6707 16.100
12.6858 15.953
12.7010 15.743
12.7162 15.584
12.7314 15.376
12.7465 15.384
12.7617 15.453
12.7769 15.405
12.7921 15.406
12.8072 15.299
12.8224 15.005
12.8376 14.732
12.8528 14.738
12.8679 15.142
12.8831 15.093
12.8983 14.800
12.9135 14.784
12.9286 14.748
12.9438 14.535
12.9590 14.638
12.9742 14.676
12.9893 14.511
13.0045 14.233
13.0197 14.153
13.0349 14.361
13.0500 14.147
13.0652 13.854
13.0804 14.026
13.0956 14.136
13.1107 13.928
13.1259 13.961
13.1411 14.068
13.1563 14.017
13.1714 13.707
13.1866 13.535
13.2018 13.610
13.2170 13.465
13.2321 13.404
13.2473 13.267
13.2625 13.327
13.2777 13.468
13.2928 13.322
13.3080 13.516
13.3232 13.393
13.3384 13.049
13.3535 13.363
13.3687 13.365
13.3839 12.973
13.3991 12.943
13.4142 13.030
13.4294 13.094
13.4446 13.106
13.4598 13.092
13.4749 12.954
13.4901 12.565
13.5053 12.628
13.5205 12.627
13.5356 12.496
13.5508 12.457
13.5660 12.403
13.5812 12.490
13.5963 12.434
13.6115 12.319
13.6267 12.244
13.6419 12.129
13.6570 12.194
13.6722 12.194
13.6874 12.160
13.7026 12.098
13.7177 12.554
13.7329 12.488
13.7481 12.269
13.7633 12.263
13.7784 12.227
13.7936 12.232
13.8088 12.235
13.8239 12.257
13.8391 12.038
13.8543 12.227
13.8695 12.384
13.8846 12.449
13.8998 12.337
13.9150 12.021
13.9302 12.168
13.9453 12.272
13.9605 12.052
13.9757 12.083
13.9909 11.828
14.0060 11.726
14.0212 11.890
14.0364 11.636
14.0516 11.537
14.0667 11.888
14.0819 11.722
14.0971 11.397
14.1123 11.524
14.1274 11.344
14.1426 11.369
14.1578 11.587
14.1730 11.591
14.1881 11.688
14.2033 11.501
14.2185 11.442
14.2337 11.699
14.2488 11.558
14.2640 11.583
14.2792 11.442
14.2944 11.882
14.3095 12.102
14.3247 12.051
14.3399 12.065
14.3551 12.189
14.3702 12.378
14.3854 12.491
14.4006 12.487
14.4158 12.385
14.4309 12.472
14.4461 12.190
14.4613 11.973
14.4765 11.919
14.4916 11.958
14.5068 11.654
14.5220 11.290
14.5372 11.199
14.5523 11.282
14.5675 11.301
14.5827 11.144
14.5979 11.010
14.6130 11.370
14.6282 11.000
14.6434 11.118
14.6586 11.152
14.6737 11.300
14.6889 11.320
14.7041 11.043
14.7193 10.635
14.7344 10.791
14.7496 11.149
14.7648 11.010
14.7800 10.942
14.7951 11.002
14.8103 10.890
14.8255 10.744
14.8407 10.955
14.8558 10.938
14.8710 10.550
14.8862 10.543
14.9014 10.854
14.9165 11.054
14.9317 11.133
14.9469 10.778
14.9621 10.739
14.9772 10.419
14.9924 10.415
15.0076 10.603
15.0228 10.483
15.0379 10.620
15.0531 10.367
15.0683 10.582
15.0835 10.255
15.0986 10.339
15.1138 10.441
15.1290 10.750
15.1442 10.064
15.1593 10.004
15.1745 10.622
15.1897 10.386
15.2049 10.155
15.2200 10.296
15.2352 10.513
15.2504 10.631
15.2656 10.423
15.2807 9.945
15.2959 10.300
15.3111 10.152
15.3263 10.070
15.3414 10.469
15.3566 10.431
15.3718 10.483
15.3870 10.359
15.4021 10.352
15.4173 10.176
15.4325 10.408
15.4477 10.320
15.4628 10.518
15.4780 10.691
15.4932 10.296
15.5084 10.558
15.5235 10.423
15.5387 10.213
15.5539 10.149
15.5691 10.213
15.5842 10.487
15.5994 10.034
15.6146 10.147
15.6298 9.959
15.6449 10.150
15.6601 10.074
15.6753 9.976
15.6905 9.951
15.7056 10.029
15.7208 9.920
15.7360 9.930
15.7512 10.171
15.7663 10.042
15.7815 9.694
15.7967 9.765
15.8119 9.680
15.8270 10.045
15.8422 10.168
15.8574 9.865
15.8726 9.921
15.8877 9.854
15.9029 9.841
15.9181 9.403
15.9333 9.638
15.9484 9.913
15.9636 9.929
15.9788 9.847
15.9940 9.784
16.0091 9.790
16.0243 9.882
16.0395 9.836
16.0547 9.774
16.0698 10.217
16.0850 9.968
16.1002 9.892
16.1154 9.754
16.1305 9.697
16.1457 9.801
16.1609 9.757
16.1761 9.746
16.1912 9.711
16.2064 9.975
16.2216 10.085
16.2368 9.836
16.2519 9.961
16.2671 9.921
16.2823 10.046
16.2975 10.076
16.3126 9.944
16.3278 9.919
16.3430 9.772
16.3582 9.888
16.3733 10.250
16.3885 10.218
16.4037 10.043
16.4189 10.077
16.4340 9.930
16.4492 9.957
16.4644 9.899
16.4796 9.941
16.4947 9.848
16.5099 9.935
16.5251 10.029
16.5403 9.862
16.5554 9.753
16.5706 9.795
16.5858 9.731
16.6010 9.625
16.6161 9.776
16.6313 9.894
16.6465 9.866
16.6617 10.005
16.6768 9.988
16.6920 10.181
16.7072 10.173
16.7224 9.979
16.7375 10.211
16.7527 10.226
16.7679 9.932
16.7831 9.982
16.7982 10.129
16.8134 10.250
16.8286 10.230
16.8438 9.900
16.8589 9.727
16.8741 9.868
16.8893 9.809
16.9045 9.875
16.9196 9.800
16.9348 9.703
16.9500 9.831
16.9652 10.074
16.9803 10.139
16.9955 10.078
17.0107 10.033
17.0259 10.030
17.0410 10.276
17.0562 10.290
17.0714 10.204
17.0866 10.295
17.1017 10.392
17.1169 10.677
17.1321 11.230
17.1473 11.647
17.1624 11.920
17.1776 12.332
17.1928 13.253
17.2080 14.338
17.2231 15.080
17.2383 16.292
17.2535 17.855
17.2687 18.779
17.2838 18.930
17.2990 18.330
17.3142 17.253
17.3294 16.575
17.3445 16.239
17.3597 15.923
17.3749 15.787
17.3901 15.347
17.4052 14.405
17.4204 13.442
17.4356 12.582
17.4508 11.980
17.4659 11.722
17.4811 11.522
17.4963 11.481
17.5115 11.193
17.5266 10.982
17.5418 10.963
17.5570 10.724
17.5722 10.791
17.5873 10.774
17.6025 10.860
17.6177 10.916
17.6329 10.789
17.6480 10.727
17.6632 10.539
17.6784 10.534
17.6936 10.555
17.7087 10.506
17.7239 10.399
17.7391 10.440
17.7543 10.361
17.7694 10.274
17.7846 10.264
17.7998 10.112
17.8150 9.934
17.8301 10.334
17.8453 10.646
17.8605 10.285
17.8757 10.310
17.8908 10.697
17.9060 10.702
17.9212 10.347
17.9364 10.262
17.9515 10.356
17.9667 10.552
17.9819 10.850
17.9971 10.654
18.0122 10.300
18.0274 10.201
18.0426 10.345
18.0578 10.255
18.0729 9.975
18.0881 9.967
18.1033 10.067
18.1185 10.137
18.1336 10.111
18.1488 10.072
18.1640 10.147
18.1792 10.184
18.1943 9.950
18.2095 9.912
18.2247 9.888
18.2399 9.550
18.2550 9.769
18.2702 10.000
18.2854 10.107
18.3006 10.013
18.3157 9.862
18.3309 9.820
18.3461 9.779
18.3613 10.078
18.3764 10.239
18.3916 10.126
18.4068 9.730
18.4220 9.658
18.4371 9.970
18.4523 10.142
18.4675 9.917
18.4827 9.879
18.4978 10.014
18.5130 9.913
18.5282 10.041
18.5434 9.929
18.5585 9.582
18.5737 9.802
18.5889 9.747
18.6041 9.479
18.6192 9.898
18.6344 10.119
18.6496 9.882
18.6648 9.856
18.6799 9.991
18.6951 9.807
18.7103 9.697
18.7255 9.707
18.7406 9.672
18.7558 9.656
18.7710 9.625
18.7862 9.858
18.8013 9.829
18.8165 9.692
18.8317 9.732
18.8469 9.942
18.8620 9.907
18.8772 10.091
18.8924 10.241
18.9076 10.039
18.9227 9.870
18.9379 10.005
18.9531 10.188
18.9683 10.017
18.9834 10.075
18.9986 10.142
19.0138 10.192
19.0290 10.231
19.0441 10.152
19.0593 10.298
19.0745 10.294
19.0897 10.368
19.1048 10.402
19.1200 10.265
19.1352 10.428
19.1504 10.474
19.1655 10.549
19.1807 10.678
19.1959 10.909
19.2111 10.980
19.2262 10.755
19.2414 10.635
19.2566 10.772
19.2718 10.738
19.2869 10.581
19.3021 10.768
19.3173 11.160
19.3325 11.165
19.3476 11.090
19.3628 11.081
19.3780 10.960
19.3932 11.076
19.4083 11.107
19.4235 11.142
19.4387 11.466
19.4539 11.515
19.4690 11.337
19.4842 11.434
19.4994 11.426
19.5146 11.301
19.5297 11.530
19.5449 11.460
19.5601 11.469
19.5753 11.632
19.5904 11.752
19.6056 11.901
19.6208 11.629
19.6360 11.458
19.6511 11.637
19.6663 11.673
19.6815 11.483
19.6967 11.669
19.7118 11.839
19.7270 11.921
19.7422 11.903
19.7574 11.752
19.7725 11.888
19.7877 12.082
19.8029 11.971
19.8180 11.780
19.8332 12.011
19.8484 12.329
19.8636 12.309
19.8787 12.628
19.8939 13.051
19.9091 13.258
19.9243 13.687
19.9394 13.955
19.9546 14.094
19.9698 14.310
19.9850 14.494
20.0001 14.257
20.0153 14.200
20.0305 13.876
20.0457 13.723
20.0608 13.922
20.0760 13.869
20.0912 13.769
20.1064 13.570
20.1215 13.419
20.1367 13.108
20.1519 12.978
20.1671 12.979
20.1822 13.026
20.1974 12.807
20.2126 12.653
20.2278 12.353
20.2429 12.361
20.2581 12.342
20.2733 12.075
20.2885 11.896
20.3036 11.758
20.3188 11.643
20.3340 11.797
20.3492 11.745
20.3643 11.695
20.3795 11.545
20.3947 11.250
20.4099 11.101
20.4250 11.081
20.4402 10.908
20.4554 10.839
20.4706 10.856
20.4857 10.614
20.5009 10.593
20.5161 10.531
20.5313 10.665
20.5464 10.626
20.5616 10.499
20.5768 10.574
20.5920 10.518
20.6071 10.363
20.6223 10.545
20.6375 10.549
20.6527 10.553
20.6678 10.500
20.6830 10.384
20.6982 10.528
20.7134 10.430
20.7285 10.665
20.7437 10.519
20.7589 10.379
20.7741 10.271
20.7892 10.369
20.8044 10.452
20.8196 10.433
20.8348 10.218
20.8499 10.321
20.8651 10.533
20.8803 10.289
20.8955 9.911
20.9106 10.344
20.9258 10.035
20.9410 9.772
20.9562 10.291
20.9713 10.017
20.9865 9.998
21.0017 10.079
21.0169 10.039
21.0320 9.884
21.0472 9.824
21.0624 9.620
21.0776 10.031
21.0927 9.601
21.1079 10.144
21.1231 10.336
21.1383 10.087
21.1534 10.020
21.1686 9.721
21.1838 10.079
21.1990 9.812
21.2141 9.458
21.2293 9.619
21.2445 9.812
21.2597 9.841
21.2748 9.561
21.2900 9.885
21.3052 9.466
21.3204 9.815
21.3355 9.761
21.3507 9.581
21.3659 9.637
21.3811 9.581
21.3962 9.693
21.4114 9.433
21.4266 9.480
21.4418 9.262
21.4569 9.202
21.4721 9.385
21.4873 9.523
21.5025 9.386
21.5176 9.517
21.5328 9.301
21.5480 9.126
21.5632 9.165
21.5783 9.264
21.5935 9.388
21.6087 9.271
21.6239 9.184
21.6390 9.357
21.6542 8.962
21.6694 9.033
21.6846 9.002
21.6997 9.245
21.7149 9.243
21.7301 8.855
21.7453 9.145
21.7604 9.182
21.7756 9.207
21.7908 9.391
21.8060 9.150
21.8211 9.048
21.8363 9.141
21.8515 9.097
21.8667 9.091
21.8818 9.020
21.8970 9.048
21.9122 9.059
21.9274 8.875
21.9425 8.811
21.9577 8.895
21.9729 9.019
21.9881 8.961
22.0032 8.815
22.0184 8.948
22.0336 9.005
22.0488 8.584
22.0639 8.695
22.0791 8.892
22.0943 8.711
22.1095 8.830
22.1246 8.921
22.1398 8.891
22.1550 8.501
22.1702 8.354
22.1853 8.700
22.2005 8.609
22.2157 8.432
22.2309 8.717
22.2460 8.792
22.2612 8.556
22.2764 8.572
22.2916 8.602
22.3067 8.577
22.3219 8.332
22.3371 8.354
22.3523 8.512
22.3674 8.626
22.3826 8.541
22.3978 8.454
22.4130 8.472
22.4281 8.681
22.4433 8.416
22.4585 8.393
22.4737 8.749
22.4888 8.406
22.5040 8.558
22.5192 8.306
22.5344 8.486
22.5495 8.292
22.5647 8.723
22.5799 8.527
22.5951 8.777
22.6102 8.718
22.6254 8.642
22.6406 8.535
22.6558 8.801
22.6709 8.884
22.6861 8.392
22.7013 8.330
22.7165 8.044
22.7316 6.466
