'Id: "" Comment: "" Operator: "Lab Manager" Anode: "Mo" Scantype: "Still (Eiger2R_500K (1D mode))" TimePerStep: "300" X: "11.8" Y: "9.4" Z: "11.284" 
7.2532 18.470
7.2684 18.474
7.2836 18.448
7.2987 19.071
7.3139 18.962
7.3291 18.585
7.3443 18.881
7.3594 18.733
7.3746 19.076
7.3898 19.255
7.4050 19.099
7.4201 19.143
7.4353 19.459
7.4505 19.369
7.4657 19.421
7.4808 19.311
7.4960 19.082
7.5112 19.055
7.5264 19.569
7.5415 19.486
7.5567 19.755
7.5719 19.770
7.5871 19.517
7.6022 19.502
7.6174 19.894
7.6326 19.886
7.6478 19.978
7.6629 19.837
7.6781 19.857
7.6933 20.062
7.7085 20.145
7.7236 20.574
7.7388 20.729
7.7540 20.661
7.7692 20.452
7.7843 20.069
7.7995 20.360
7.8147 20.691
7.8299 20.364
7.8450 20.596
7.8602 20.790
7.8754 20.557
7.8905 20.560
7.9057 20.781
7.9209 20.939
7.9361 20.703
7.9512 20.731
7.9664 21.112
7.9816 20.928
7.9968 20.709
8.0119 20.959
8.0271 21.155
8.0423 20.892
8.0575 20.925
8.0726 21.269
8.0878 21.388
8.1030 21.251
8.1182 21.535
8.1333 21.480
8.1485 21.244
8.1637 21.139
8.1789 21.165
8.1940 21.310
8.2092 21.551
8.2244 21.430
8.2396 21.623
8.2547 21.349
8.2699 21.240
8.2851 21.528
8.3003 21.386
8.3154 21.648
8.3306 21.511
8.3458 21.059
8.3610 21.630
8.3761 21.814
8.3913 21.850
8.4065 22.079
8.4217 21.955
8.4368 21.666
8.4520 21.492
8.4672 21.800
8.4824 21.779
8.4975 22.055
8.5127 21.999
8.5279 22.152
8.5431 22.169
8.5582 21.745
8.5734 21.540
8.5886 22.200
8.6038 22.118
8.6189 22.122
8.6341 22.216
8.6493 22.104
8.6645 22.189
8.6796 22.190
8.6948 21.639
8.7100 21.479
8.7252 21.669
8.7403 22.478
8.7555 22.720
8.7707 22.443
8.7859 22.167
8.8010 22.509
8.8162 22.595
8.8314 22.495
8.8466 22.237
8.8617 22.104
8.8769 22.373
8.8921 22.190
8.9073 22.255
8.9224 22.358
8.9376 22.254
8.9528 22.447
8.9680 22.556
8.9831 22.671
8.9983 23.095
9.0135 22.316
9.0287 22.648
9.0438 22.745
9.0590 22.586
9.0742 22.819
9.0894 22.728
9.1045 22.641
9.1197 22.743
9.1349 22.713
9.1501 22.654
9.1652 22.820
9.1804 23.058
9.1956 22.849
9.2108 22.555
9.2259 22.721
9.2411 22.935
9.2563 22.941
9.2715 22.985
9.2866 22.946
9.3018 22.594
9.3170 22.512
9.3322 22.751
9.3473 22.777
9.3625 22.916
9.3777 23.170
9.3929 22.659
9.4080 22.874
9.4232 23.379
9.4384 23.260
9.4536 23.146
9.4687 23.029
9.4839 22.892
9.4991 23.082
9.5143 23.022
9.5294 22.987
9.5446 23.019
9.5598 23.028
9.5750 22.933
9.5901 23.131
9.6053 23.138
9.6205 22.802
9.6357 22.980
9.6508 23.489
9.6660 23.673
9.6812 23.654
9.6964 23.716
9.7115 23.711
9.7267 23.790
9.7419 23.988
9.7571 23.718
9.7722 23.459
9.7874 23.621
9.8026 23.698
9.8178 23.417
9.8329 23.338
9.8481 23.453
9.8633 23.368
9.8785 23.408
9.8936 23.207
9.9088 23.032
9.9240 23.016
9.9392 23.063
9.9543 23.201
9.9695 23.331
9.9847 23.182
9.9999 22.940
10.0150 23.188
10.0302 23.414
10.0454 23.579
10.0606 23.288
10.0757 23.003
10.0909 23.238
10.1061 23.562
10.1213 22.992
10.1364 23.247
10.1516 23.702
10.1668 23.348
10.1820 23.504
10.1971 23.335
10.2123 23.085
10.2275 22.928
10.2427 22.806
10.2578 22.972
10.2730 23.029
10.2882 23.071
10.3034 22.715
10.3185 22.644
10.3337 22.812
10.3489 22.590
10.3641 22.798
10.3792 22.900
10.3944 22.937
10.4096 22.812
10.4248 23.151
10.4399 23.427
10.4551 22.789
10.4703 22.545
10.4855 22.540
10.5006 22.375
10.5158 22.502
10.5310 22.725
10.5462 22.591
10.5613 22.355
10.5765 22.320
10.5917 22.408
10.6069 22.539
10.6220 22.674
10.6372 22.896
10.6524 22.544
10.6676 22.145
10.6827 22.167
10.6979 22.405
10.7131 22.194
10.7283 22.240
10.7434 22.418
10.7586 22.224
10.7738 22.400
10.7890 22.405
10.8041 22.368
10.8193 22.181
10.8345 22.089
10.8497 22.002
10.8648 22.172
10.8800 22.073
10.8952 22.276
10.9104 22.240
10.9255 22.228
10.9407 21.922
10.9559 21.532
10.9711 21.534
10.9862 21.719
11.0014 22.120
11.0166 22.266
11.0318 22.452
11.0469 21.913
11.0621 21.658
11.0773 21.456
11.0925 21.579
11.1076 21.936
11.1228 21.978
11.1380 21.755
11.1532 21.711
11.1683 22.000
11.1835 21.936
11.1987 21.797
11.2139 21.574
11.2290 21.574
11.2442 21.398
11.2594 21.514
11.2746 21.614
11.2897 21.630
11.3049 21.513
11.3201 21.040
11.3353 21.306
11.3504 21.472
11.3656 21.378
11.3808 21.506
11.3960 21.744
11.4111 21.793
11.4263 21.145
11.4415 20.759
11.4567 20.998
11.4718 21.305
11.4870 21.431
11.5022 21.195
11.5174 20.810
11.5325 20.996
11.5477 20.840
11.5629 20.648
11.5781 20.850
11.5932 20.877
11.6084 20.746
11.6236 20.672
11.6388 21.000
11.6539 20.561
11.6691 20.573
11.6843 20.392
11.6995 20.270
11.7146 20.339
11.7298 20.394
11.7450 20.238
11.7602 19.992
11.7753 20.145
11.7905 20.259
11.8057 20.434
11.8209 19.986
11.8360 20.201
11.8512 20.353
11.8664 19.873
11.8816 19.552
11.8967 19.558
11.9119 19.762
11.9271 19.714
11.9423 19.358
11.9574 19.306
11.9726 19.345
11.9878 19.284
12.0030 19.304
12.0181 19.363
12.0333 19.355
12.0485 19.137
12.0637 18.880
12.0788 18.930
12.0940 18.819
12.1092 18.864
12.1244 18.788
12.1395 18.572
12.1547 18.595
12.1699 18.257
12.1851 18.043
12.2002 18.124
12.2154 18.178
12.2306 17.977
12.2458 17.854
12.2609 17.783
12.2761 17.829
12.2913 17.769
12.3065 17.630
12.3216 17.851
12.3368 17.801
12.3520 17.655
12.3672 17.546
12.3823 17.510
12.3975 17.268
12.4127 17.133
12.4279 17.268
12.4430 17.037
12.4582 16.489
12.4734 16.829
12.4886 16.769
12.5037 16.521
12.5189 16.582
12.5341 16.354
12.5493 16.254
12.5644 16.195
12.5796 16.410
12.5948 16.459
12.6100 16.212
12.6251 16.014
12.6403 15.839
12.6555 15.791
12.6707 15.956
12.6858 15.665
12.7010 15.400
12.7162 15.695
12.7314 15.568
12.7465 15.383
12.7617 15.380
12.7769 15.218
12.7921 15.072
12.8072 15.077
12.8224 15.203
12.8376 15.059
12.8528 14.841
12.8679 14.973
12.8831 14.922
12.8983 14.731
12.9135 14.901
12.9286 14.727
12.9438 14.394
12.9590 14.255
12.9742 14.152
12.9893 14.187
13.0045 14.272
13.0197 14.268
13.0349 14.119
13.0500 14.086
13.0652 13.973
13.0804 13.935
13.0956 14.031
13.1107 13.873
13.1259 13.786
13.1411 13.782
13.1563 13.721
13.1714 13.585
13.1866 13.452
13.2018 13.408
13.2170 13.394
13.2321 13.251
13.2473 13.321
13.2625 13.393
13.2777 13.053
13.2928 13.003
13.3080 13.135
13.3232 13.133
13.3384 13.121
13.3535 13.155
13.3687 13.190
13.3839 13.197
13.3991 12.975
13.4142 13.004
13.4294 13.145
13.4446 12.970
13.4598 12.829
13.4749 12.648
13.4901 12.643
13.5053 12.498
13.5205 12.392
13.5356 12.535
13.5508 12.608
13.5660 12.510
13.5812 12.473
13.5963 12.563
13.6115 12.551
13.6267 12.505
13.6419 12.205
13.6570 12.077
13.6722 12.276
13.6874 12.070
13.7026 11.758
13.7177 11.921
13.7329 12.013
13.7481 12.005
13.7633 12.243
13.7784 12.380
13.7936 12.073
13.8088 12.013
13.8239 12.202
13.8391 12.166
13.8543 12.118
13.8695 12.123
13.8846 12.238
13.8998 12.149
13.9150 12.137
13.9302 12.003
13.9453 12.169
13.9605 12.041
13.9757 11.909
13.9909 12.047
14.0060 11.664
14.0212 11.708
14.0364 11.442
14.0516 11.241
14.0667 11.379
14.0819 11.670
14.0971 11.506
14.1123 11.458
14.1274 11.700
14.1426 11.551
14.1578 11.678
14.1730 11.509
14.1881 11.635
14.2033 11.711
14.2185 11.488
14.2337 11.933
14.2488 11.754
14.2640 11.817
14.2792 11.889
14.2944 11.983
14.3095 11.916
14.3247 12.078
14.3399 12.562
14.3551 12.422
14.3702 12.460
14.3854 12.835
14.4006 12.932
14.4158 12.774
14.4309 12.751
14.4461 12.717
14.4613 12.162
14.4765 12.279
14.4916 12.244
14.5068 11.902
14.5220 11.920
14.5372 11.747
14.5523 11.381
14.5675 11.137
14.5827 11.003
14.5979 10.760
14.6130 10.778
14.6282 10.875
14.6434 10.803
14.6586 10.662
14.6737 10.697
14.6889 10.681
14.7041 10.473
14.7193 10.489
14.7344 10.544
14.7496 10.437
14.7648 10.228
14.7800 10.570
14.7951 10.636
14.8103 10.420
14.8255 10.164
14.8407 10.627
14.8558 10.634
14.8710 10.369
14.8862 10.640
14.9014 10.267
14.9165 10.554
14.9317 10.576
14.9469 10.412
14.9621 10.614
14.9772 9.949
14.9924 10.150
15.0076 10.316
15.0228 10.511
15.0379 10.431
15.0531 9.965
15.0683 10.265
15.0835 10.053
15.0986 10.101
15.1138 10.126
15.1290 10.200
15.1442 10.067
15.1593 10.226
15.1745 10.297
15.1897 10.171
15.2049 10.064
15.2200 10.217
15.2352 10.027
15.2504 9.868
15.2656 9.662
15.2807 10.200
15.2959 10.462
15.3111 10.237
15.3263 9.899
15.3414 10.163
15.3566 10.064
15.3718 10.044
15.3870 9.916
15.4021 10.020
15.4173 10.171
15.4325 10.138
15.4477 10.174
15.4628 10.086
15.4780 10.176
15.4932 9.832
15.5084 10.112
15.5235 9.870
15.5387 9.856
15.5539 9.859
15.5691 9.969
15.5842 9.922
15.5994 9.988
15.6146 9.790
15.6298 10.167
15.6449 10.206
15.6601 9.790
15.6753 9.836
15.6905 9.793
15.7056 9.976
15.7208 9.981
15.7360 9.619
15.7512 9.563
15.7663 10.004
15.7815 9.789
15.7967 9.660
15.8119 9.577
15.8270 9.614
15.8422 9.539
15.8574 9.570
15.8726 9.839
15.8877 9.559
15.9029 9.415
15.9181 9.665
15.9333 9.699
15.9484 9.779
15.9636 9.642
15.9788 9.574
15.9940 9.856
16.0091 9.577
16.0243 9.467
16.0395 9.525
16.0547 9.564
16.0698 9.464
16.0850 9.682
16.1002 9.691
16.1154 9.593
16.1305 9.751
16.1457 9.574
16.1609 9.443
16.1761 9.633
16.1912 9.509
16.2064 9.617
16.2216 9.489
16.2368 9.766
16.2519 9.734
16.2671 9.879
16.2823 9.583
16.2975 9.342
16.3126 9.604
16.3278 9.762
16.3430 9.858
16.3582 9.817
16.3733 9.681
16.3885 9.563
16.4037 9.718
16.4189 9.581
16.4340 9.591
16.4492 9.608
16.4644 9.584
16.4796 9.536
16.4947 9.597
16.5099 9.703
16.5251 9.746
16.5403 9.500
16.5554 9.359
16.5706 9.444
16.5858 9.542
16.6010 9.620
16.6161 9.607
16.6313 9.687
16.6465 9.682
16.6617 9.593
16.6768 9.703
16.6920 9.844
16.7072 9.905
16.7224 9.935
16.7375 10.085
16.7527 9.978
16.7679 9.727
16.7831 9.565
16.7982 9.900
16.8134 10.029
16.8286 9.868
16.8438 9.676
16.8589 9.621
16.8741 9.686
16.8893 9.643
16.9045 9.682
16.9196 9.666
16.9348 9.924
16.9500 9.965
16.9652 9.717
16.9803 9.573
16.9955 9.762
17.0107 10.027
17.0259 10.137
17.0410 9.908
17.0562 9.851
17.0714 10.058
17.0866 10.298
17.1017 10.426
17.1169 10.517
17.1321 10.773
17.1473 11.047
17.1624 11.491
17.1776 12.120
17.1928 12.932
17.2080 13.679
17.2231 14.925
17.2383 16.307
17.2535 17.459
17.2687 18.414
17.2838 18.455
17.2990 17.654
17.3142 16.641
17.3294 16.082
17.3445 15.760
17.3597 15.546
17.3749 15.613
17.3901 15.162
17.4052 14.050
17.4204 12.934
17.4356 12.246
17.4508 11.972
17.4659 11.733
17.4811 11.580
17.4963 11.329
17.5115 11.107
17.5266 11.150
17.5418 11.091
17.5570 10.851
17.5722 10.983
17.5873 11.329
17.6025 11.289
17.6177 11.336
17.6329 11.453
17.6480 11.404
17.6632 11.283
17.6784 11.458
17.6936 11.511
17.7087 11.259
17.7239 11.333
17.7391 11.366
17.7543 11.314
17.7694 11.314
17.7846 11.279
17.7998 10.824
17.8150 10.630
17.8301 10.657
17.8453 10.444
17.8605 10.524
17.8757 10.609
17.8908 10.384
17.9060 10.272
17.9212 10.385
17.9364 9.985
17.9515 9.746
17.9667 9.974
17.9819 10.133
17.9971 10.177
18.0122 10.036
18.0274 10.031
18.0426 10.114
18.0578 10.013
18.0729 10.114
18.0881 10.241
18.1033 10.214
18.1185 10.275
18.1336 10.044
18.1488 9.873
18.1640 10.023
18.1792 9.838
18.1943 9.593
18.2095 9.674
18.2247 9.973
18.2399 9.762
18.2550 9.646
18.2702 9.662
18.2854 9.746
18.3006 9.751
18.3157 9.603
18.3309 9.901
18.3461 9.856
18.3613 9.684
18.3764 9.581
18.3916 9.561
18.4068 9.591
18.4220 9.671
18.4371 9.737
18.4523 9.676
18.4675 9.658
18.4827 9.947
18.4978 9.910
18.5130 9.841
18.5282 9.747
18.5434 9.708
18.5585 9.804
18.5737 9.620
18.5889 9.665
18.6041 9.849
18.6192 9.867
18.6344 9.669
18.6496 9.579
18.6648 9.700
18.6799 9.855
18.6951 9.730
18.7103 9.704
18.7255 9.702
18.7406 9.786
18.7558 9.879
18.7710 9.895
18.7862 9.736
18.8013 9.473
18.8165 9.706
18.8317 9.914
18.8469 9.790
18.8620 9.916
18.8772 10.168
18.8924 10.173
18.9076 10.131
18.9227 10.149
18.9379 10.102
18.9531 9.994
18.9683 10.067
18.9834 10.141
18.9986 10.068
19.0138 10.055
19.0290 10.193
19.0441 10.353
19.0593 10.381
19.0745 10.386
19.0897 10.348
19.1048 10.332
19.1200 10.130
19.1352 10.281
19.1504 10.441
19.1655 10.538
19.1807 10.421
19.1959 10.661
19.2111 10.913
19.2262 10.719
19.2414 10.816
19.2566 10.808
19.2718 10.774
19.2869 10.867
19.3021 10.965
19.3173 10.963
19.3325 10.887
19.3476 11.055
19.3628 11.213
19.3780 11.124
19.3932 11.140
19.4083 11.302
19.4235 11.338
19.4387 11.242
19.4539 11.168
19.4690 11.207
19.4842 11.478
19.4994 11.627
19.5146 11.636
19.5297 11.681
19.5449 11.689
19.5601 11.821
19.5753 11.680
19.5904 11.455
19.6056 11.881
19.6208 11.874
19.6360 11.804
19.6511 11.948
19.6663 11.823
19.6815 11.859
19.6967 11.862
19.7118 11.901
19.7270 11.736
19.7422 11.531
19.7574 11.708
19.7725 12.055
19.7877 12.292
19.8029 12.232
19.8180 12.157
19.8332 12.006
19.8484 12.112
19.8636 12.370
19.8787 12.659
19.8939 12.971
19.9091 13.137
19.9243 13.554
19.9394 14.028
19.9546 14.366
19.9698 14.704
19.9850 14.883
20.0001 14.738
20.0153 14.465
20.0305 14.182
20.0457 13.792
20.0608 13.744
20.0760 13.961
20.0912 13.769
20.1064 13.753
20.1215 13.702
20.1367 13.489
20.1519 13.333
20.1671 13.084
20.1822 12.979
20.1974 13.133
20.2126 12.977
20.2278 12.906
20.2429 12.788
20.2581 12.556
20.2733 12.433
20.2885 12.181
20.3036 12.123
20.3188 12.058
20.3340 11.999
20.3492 12.039
20.3643 12.155
20.3795 11.990
20.3947 11.838
20.4099 11.951
20.4250 11.882
20.4402 11.701
20.4554 11.660
20.4706 11.547
20.4857 11.458
20.5009 11.538
20.5161 11.483
20.5313 11.608
20.5464 11.479
20.5616 11.335
20.5768 11.069
20.5920 11.169
20.6071 11.192
20.6223 11.050
20.6375 10.986
20.6527 11.034
20.6678 10.995
20.6830 10.802
20.6982 10.484
20.7134 10.785
20.7285 10.629
20.7437 10.380
20.7589 10.404
20.7741 10.627
20.7892 10.342
20.8044 10.578
20.8196 10.611
20.8348 10.417
20.8499 10.110
20.8651 10.130
20.8803 10.374
20.8955 10.256
20.9106 10.259
20.9258 10.291
20.9410 10.336
20.9562 10.332
20.9713 10.142
20.9865 10.110
21.0017 10.117
21.0169 9.940
21.0320 10.148
21.0472 10.180
21.0624 10.222
21.0776 9.997
21.0927 10.136
21.1079 10.019
21.1231 9.716
21.1383 9.776
21.1534 9.781
21.1686 9.875
21.1838 9.746
21.1990 10.021
21.2141 9.786
21.2293 10.077
21.2445 9.569
21.2597 9.906
21.2748 9.695
21.2900 9.715
21.3052 9.925
21.3204 9.664
21.3355 9.608
21.3507 9.865
21.3659 9.958
21.3811 9.664
21.3962 9.461
21.4114 9.315
21.4266 9.568
21.4418 9.450
21.4569 9.447
21.4721 9.487
21.4873 9.283
21.5025 9.367
21.5176 9.407
21.5328 9.688
21.5480 9.540
21.5632 9.753
21.5783 9.534
21.5935 9.508
21.6087 9.276
21.6239 9.150
21.6390 9.239
21.6542 9.227
21.6694 9.310
21.6846 8.866
21.6997 9.063
21.7149 9.131
21.7301 8.993
21.7453 8.977
21.7604 9.174
21.7756 9.259
21.7908 9.113
21.8060 9.086
21.8211 9.101
21.8363 9.103
21.8515 9.178
21.8667 8.939
21.8818 8.997
21.8970 9.200
21.9122 9.065
21.9274 9.101
21.9425 9.131
21.9577 9.144
21.9729 8.938
21.9881 8.771
22.0032 8.896
22.0184 8.924
22.0336 8.851
22.0488 8.851
22.0639 8.778
22.0791 8.821
22.0943 8.796
22.1095 8.544
22.1246 8.586
22.1398 8.641
22.1550 8.413
22.1702 8.579
22.1853 8.561
22.2005 8.537
22.2157 8.603
22.2309 8.499
22.2460 8.544
22.2612 8.494
22.2764 8.546
22.2916 8.631
22.3067 8.543
22.3219 8.513
22.3371 8.640
22.3523 8.588
22.3674 8.583
22.3826 8.428
22.3978 8.477
22.4130 8.456
22.4281 8.582
22.4433 8.500
22.4585 8.589
22.4737 8.472
22.4888 8.491
22.5040 8.318
22.5192 8.293
22.5344 8.551
22.5495 8.312
22.5647 8.349
22.5799 8.488
22.5951 8.396
22.6102 8.068
22.6254 8.417
22.6406 8.327
22.6558 8.581
22.6709 8.240
22.6861 8.436
22.7013 8.312
22.7165 8.144
22.7316 6.486
