'Id: "" Comment: "" Operator: "Lab Manager" Anode: "Mo" Scantype: "Still (Eiger2R_500K (1D mode))" TimePerStep: "300" X: "11.8" Y: "9.4" Z: "11.284" 
7.2532 18.915
7.2684 18.674
7.2836 18.974
7.2987 19.457
7.3139 19.032
7.3291 19.131
7.3443 19.089
7.3594 19.006
7.3746 19.224
7.3898 19.201
7.4050 19.558
7.4201 19.264
7.4353 19.487
7.4505 19.602
7.4657 19.689
7.4808 19.847
7.4960 19.584
7.5112 19.396
7.5264 19.798
7.5415 19.921
7.5567 20.458
7.5719 19.985
7.5871 19.503
7.6022 19.673
7.6174 20.269
7.6326 20.063
7.6478 20.058
7.6629 20.367
7.6781 20.182
7.6933 20.265
7.7085 20.032
7.7236 20.202
7.7388 20.621
7.7540 20.706
7.7692 20.515
7.7843 20.321
7.7995 20.290
7.8147 20.416
7.8299 20.599
7.8450 20.625
7.8602 20.545
7.8754 20.706
7.8905 20.619
7.9057 20.527
7.9209 20.876
7.9361 20.962
7.9512 20.867
7.9664 20.957
7.9816 21.056
7.9968 21.325
8.0119 21.259
8.0271 20.854
8.0423 21.095
8.0575 21.194
8.0726 21.222
8.0878 20.933
8.1030 21.297
8.1182 21.194
8.1333 21.374
8.1485 21.310
8.1637 21.303
8.1789 21.355
8.1940 21.450
8.2092 21.424
8.2244 21.804
8.2396 22.081
8.2547 21.780
8.2699 21.856
8.2851 21.466
8.3003 21.537
8.3154 21.603
8.3306 21.210
8.3458 21.632
8.3610 21.728
8.3761 22.092
8.3913 21.748
8.4065 21.783
8.4217 21.472
8.4368 21.860
8.4520 22.265
8.4672 22.186
8.4824 22.003
8.4975 21.628
8.5127 22.061
8.5279 21.842
8.5431 21.841
8.5582 22.244
8.5734 22.220
8.5886 21.686
8.6038 21.921
8.6189 22.568
8.6341 22.151
8.6493 21.954
8.6645 22.212
8.6796 22.236
8.6948 21.976
8.7100 22.100
8.7252 22.280
8.7403 22.498
8.7555 22.431
8.7707 22.202
8.7859 22.302
8.8010 22.596
8.8162 22.399
8.8314 22.543
8.8466 22.424
8.8617 22.749
8.8769 22.447
8.8921 22.430
8.9073 22.606
8.9224 22.554
8.9376 22.632
8.9528 22.890
8.9680 22.666
8.9831 22.730
8.9983 22.740
9.0135 22.636
9.0287 22.590
9.0438 22.709
9.0590 23.279
9.0742 22.863
9.0894 22.644
9.1045 23.083
9.1197 22.654
9.1349 22.682
9.1501 22.600
9.1652 22.516
9.1804 22.812
9.1956 23.023
9.2108 22.696
9.2259 22.893
9.2411 22.926
9.2563 23.341
9.2715 23.074
9.2866 22.832
9.3018 23.087
9.3170 23.175
9.3322 22.771
9.3473 23.123
9.3625 23.327
9.3777 23.192
9.3929 23.132
9.4080 23.001
9.4232 22.899
9.4384 23.325
9.4536 23.276
9.4687 23.470
9.4839 23.332
9.4991 23.498
9.5143 23.367
9.5294 23.151
9.5446 23.125
9.5598 23.304
9.5750 23.425
9.5901 23.109
9.6053 23.261
9.6205 23.339
9.6357 23.546
9.6508 23.616
9.6660 23.634
9.6812 23.513
9.6964 23.466
9.7115 23.821
9.7267 23.882
9.7419 23.862
9.7571 23.972
9.7722 24.137
9.7874 24.007
9.8026 23.493
9.8178 23.101
9.8329 23.309
9.8481 23.513
9.8633 23.496
9.8785 23.239
9.8936 23.137
9.9088 23.134
9.9240 23.223
9.9392 23.372
9.9543 23.363
9.9695 23.572
9.9847 23.538
9.9999 23.183
10.0150 23.183
10.0302 23.369
10.0454 23.357
10.0606 22.943
10.0757 22.831
10.0909 23.210
10.1061 23.576
10.1213 23.526
10.1364 23.660
10.1516 23.640
10.1668 23.414
10.1820 23.146
10.1971 23.409
10.2123 23.684
10.2275 23.342
10.2427 23.219
10.2578 23.169
10.2730 23.030
10.2882 23.204
10.3034 23.435
10.3185 23.180
10.3337 23.155
10.3489 22.991
10.3641 22.919
10.3792 22.898
10.3944 22.823
10.4096 22.626
10.4248 22.819
10.4399 22.495
10.4551 22.700
10.4703 22.815
10.4855 22.467
10.5006 22.511
10.5158 22.787
10.5310 22.638
10.5462 22.529
10.5613 22.686
10.5765 22.942
10.5917 22.586
10.6069 22.390
10.6220 22.299
10.6372 22.521
10.6524 22.466
10.6676 22.695
10.6827 22.738
10.6979 22.476
10.7131 22.591
10.7283 22.284
10.7434 22.470
10.7586 22.655
10.7738 22.330
10.7890 22.436
10.8041 22.169
10.8193 21.867
10.8345 22.110
10.8497 21.936
10.8648 22.022
10.8800 22.253
10.8952 22.310
10.9104 22.298
10.9255 22.148
10.9407 22.301
10.9559 22.065
10.9711 22.198
10.9862 22.043
11.0014 21.932
11.0166 22.257
11.0318 21.987
11.0469 22.074
11.0621 21.856
11.0773 21.835
11.0925 21.748
11.1076 21.604
11.1228 21.862
11.1380 22.125
11.1532 21.864
11.1683 22.004
11.1835 21.802
11.1987 21.712
11.2139 21.759
11.2290 21.878
11.2442 21.875
11.2594 21.532
11.2746 21.449
11.2897 21.625
11.3049 21.503
11.3201 21.740
11.3353 21.605
11.3504 21.444
11.3656 21.636
11.3808 21.783
11.3960 21.388
11.4111 21.541
11.4263 21.340
11.4415 21.313
11.4567 21.373
11.4718 21.293
11.4870 21.286
11.5022 21.184
11.5174 21.046
11.5325 21.002
11.5477 21.156
11.5629 21.144
11.5781 21.210
11.5932 20.909
11.6084 20.860
11.6236 20.714
11.6388 20.711
11.6539 20.593
11.6691 20.444
11.6843 20.411
11.6995 20.312
11.7146 20.441
11.7298 20.533
11.7450 20.739
11.7602 20.453
11.7753 20.422
11.7905 20.513
11.8057 20.069
11.8209 20.129
11.8360 20.185
11.8512 19.828
11.8664 19.951
11.8816 20.138
11.8967 19.581
11.9119 19.582
11.9271 19.432
11.9423 19.742
11.9574 19.619
11.9726 19.413
11.9878 19.420
12.0030 19.347
12.0181 19.417
12.0333 19.239
12.0485 19.487
12.0637 19.249
12.0788 18.856
12.0940 18.954
12.1092 18.889
12.1244 18.670
12.1395 18.516
12.1547 18.708
12.1699 18.651
12.1851 18.219
12.2002 17.917
12.2154 18.009
12.2306 18.400
12.2458 18.223
12.2609 17.962
12.2761 17.855
12.2913 17.859
12.3065 18.067
12.3216 17.838
12.3368 17.591
12.3520 17.484
12.3672 17.451
12.3823 17.442
12.3975 17.263
12.4127 17.335
12.4279 17.227
12.4430 17.173
12.4582 17.070
12.4734 16.949
12.4886 16.887
12.5037 16.722
12.5189 16.460
12.5341 16.268
12.5493 16.375
12.5644 16.234
12.5796 15.969
12.5948 15.923
12.6100 16.178
12.6251 16.312
12.6403 16.296
12.6555 15.928
12.6707 16.054
12.6858 16.037
12.7010 15.717
12.7162 15.538
12.7314 15.419
12.7465 15.502
12.7617 15.493
12.7769 15.325
12.7921 15.001
12.8072 14.989
12.8224 15.035
12.8376 14.906
12.8528 14.784
12.8679 14.776
12.8831 14.995
12.8983 14.879
12.9135 14.958
12.9286 15.034
12.9438 14.722
12.9590 14.594
12.9742 14.606
12.9893 14.527
13.0045 14.476
13.0197 14.380
13.0349 14.159
13.0500 14.079
13.0652 14.072
13.0804 13.979
13.0956 13.783
13.1107 13.705
13.1259 13.643
13.1411 13.691
13.1563 13.697
13.1714 13.727
13.1866 13.749
13.2018 13.608
13.2170 13.706
13.2321 13.669
13.2473 13.491
13.2625 13.406
13.2777 13.343
13.2928 13.300
13.3080 13.311
13.3232 13.431
13.3384 13.381
13.3535 13.057
13.3687 12.958
13.3839 13.079
13.3991 13.176
13.4142 13.176
13.4294 13.136
13.4446 12.998
13.4598 12.888
13.4749 12.975
13.4901 12.896
13.5053 12.556
13.5205 12.654
13.5356 12.448
13.5508 12.281
13.5660 12.615
13.5812 12.620
13.5963 12.375
13.6115 12.384
13.6267 12.346
13.6419 12.272
13.6570 12.120
13.6722 12.197
13.6874 12.003
13.7026 12.108
13.7177 12.286
13.7329 11.784
13.7481 11.803
13.7633 12.273
13.7784 12.240
13.7936 12.415
13.8088 12.387
13.8239 12.201
13.8391 12.281
13.8543 12.449
13.8695 12.390
13.8846 12.138
13.8998 12.417
13.9150 12.176
13.9302 12.225
13.9453 11.986
13.9605 11.892
13.9757 11.934
13.9909 11.782
14.0060 11.781
14.0212 11.761
14.0364 11.676
14.0516 11.753
14.0667 11.563
14.0819 11.457
14.0971 11.314
14.1123 11.025
14.1274 11.177
14.1426 11.764
14.1578 11.746
14.1730 11.428
14.1881 11.496
14.2033 11.636
14.2185 11.689
14.2337 12.036
14.2488 11.726
14.2640 11.994
14.2792 11.814
14.2944 12.091
14.3095 12.323
14.3247 12.583
14.3399 12.725
14.3551 13.035
14.3702 13.250
14.3854 13.313
14.4006 13.497
14.4158 13.640
14.4309 13.505
14.4461 13.050
14.4613 12.903
14.4765 12.789
14.4916 12.460
14.5068 11.997
14.5220 11.734
14.5372 11.481
14.5523 11.286
14.5675 11.347
14.5827 10.970
14.5979 10.826
14.6130 11.130
14.6282 10.985
14.6434 11.241
14.6586 10.875
14.6737 10.857
14.6889 10.617
14.7041 10.918
14.7193 10.855
14.7344 10.671
14.7496 10.320
14.7648 10.332
14.7800 10.703
14.7951 10.822
14.8103 10.569
14.8255 10.832
14.8407 10.509
14.8558 10.532
14.8710 10.429
14.8862 10.430
14.9014 10.678
14.9165 10.720
14.9317 10.513
14.9469 10.367
14.9621 10.615
14.9772 9.904
14.9924 10.351
15.0076 10.663
15.0228 10.374
15.0379 10.149
15.0531 10.337
15.0683 10.162
15.0835 10.586
15.0986 10.253
15.1138 10.356
15.1290 10.333
15.1442 10.275
15.1593 10.450
15.1745 10.060
15.1897 9.951
15.2049 10.621
15.2200 10.422
15.2352 10.073
15.2504 10.402
15.2656 10.184
15.2807 10.149
15.2959 10.075
15.3111 10.106
15.3263 10.453
15.3414 10.442
15.3566 10.197
15.3718 10.178
15.3870 10.292
15.4021 10.255
15.4173 9.861
15.4325 10.588
15.4477 9.955
15.4628 9.769
15.4780 10.080
15.4932 10.345
15.5084 10.270
15.5235 10.061
15.5387 10.142
15.5539 9.779
15.5691 10.115
15.5842 10.376
15.5994 10.162
15.6146 10.087
15.6298 9.651
15.6449 9.893
15.6601 10.356
15.6753 10.128
15.6905 9.843
15.7056 9.583
15.7208 9.954
15.7360 9.662
15.7512 10.089
15.7663 10.012
15.7815 9.656
15.7967 9.683
15.8119 9.703
15.8270 9.838
15.8422 9.842
15.8574 9.666
15.8726 9.591
15.8877 9.556
15.9029 9.617
15.9181 9.543
15.9333 9.590
15.9484 9.691
15.9636 9.672
15.9788 9.627
15.9940 9.689
16.0091 9.750
16.0243 9.693
16.0395 9.744
16.0547 9.595
16.0698 9.525
16.0850 9.383
16.1002 9.793
16.1154 9.827
16.1305 9.793
16.1457 9.633
16.1609 9.735
16.1761 9.685
16.1912 9.491
16.2064 9.524
16.2216 9.615
16.2368 9.959
16.2519 9.728
16.2671 10.033
16.2823 10.005
16.2975 9.802
16.3126 9.860
16.3278 9.713
16.3430 9.815
16.3582 9.816
16.3733 10.009
16.3885 10.120
16.4037 9.979
16.4189 9.749
16.4340 9.616
16.4492 9.673
16.4644 9.971
16.4796 9.900
16.4947 9.821
16.5099 9.735
16.5251 9.614
16.5403 9.584
16.5554 9.720
16.5706 9.784
16.5858 9.883
16.6010 9.755
16.6161 9.590
16.6313 9.686
16.6465 9.704
16.6617 10.004
16.6768 9.931
16.6920 9.788
16.7072 9.743
16.7224 9.872
16.7375 10.000
16.7527 9.873
16.7679 9.741
16.7831 9.743
16.7982 9.748
16.8134 9.756
16.8286 9.937
16.8438 10.071
16.8589 9.953
16.8741 9.825
16.8893 9.839
16.9045 9.834
16.9196 9.698
16.9348 9.522
16.9500 9.796
16.9652 9.947
16.9803 9.755
16.9955 9.630
17.0107 9.671
17.0259 9.747
17.0410 9.819
17.0562 10.053
17.0714 10.226
17.0866 10.386
17.1017 10.495
17.1169 10.740
17.1321 11.034
17.1473 11.159
17.1624 11.410
17.1776 12.082
17.1928 13.040
17.2080 14.029
17.2231 15.137
17.2383 16.103
17.2535 17.397
17.2687 18.439
17.2838 18.597
17.2990 17.948
17.3142 16.928
17.3294 16.360
17.3445 16.022
17.3597 15.781
17.3749 15.746
17.3901 15.273
17.4052 14.318
17.4204 13.359
17.4356 12.354
17.4508 11.918
17.4659 11.833
17.4811 11.508
17.4963 11.152
17.5115 11.234
17.5266 11.267
17.5418 11.071
17.5570 11.342
17.5722 11.017
17.5873 10.772
17.6025 11.211
17.6177 11.193
17.6329 11.225
17.6480 11.368
17.6632 11.527
17.6784 11.809
17.6936 11.863
17.7087 11.855
17.7239 11.746
17.7391 11.250
17.7543 10.944
17.7694 11.039
17.7846 11.022
17.7998 10.952
17.8150 10.714
17.8301 10.679
17.8453 10.682
17.8605 10.406
17.8757 10.333
17.8908 10.148
17.9060 10.295
17.9212 10.312
17.9364 10.051
17.9515 10.009
17.9667 10.045
17.9819 10.135
17.9971 10.175
18.0122 10.282
18.0274 10.231
18.0426 10.094
18.0578 10.048
18.0729 10.239
18.0881 10.252
18.1033 9.917
18.1185 9.872
18.1336 9.903
18.1488 10.168
18.1640 10.137
18.1792 10.022
18.1943 10.048
18.2095 9.963
18.2247 10.003
18.2399 9.981
18.2550 9.857
18.2702 9.720
18.2854 9.889
18.3006 10.121
18.3157 10.018
18.3309 9.891
18.3461 9.734
18.3613 9.811
18.3764 9.846
18.3916 9.809
18.4068 9.585
18.4220 9.827
18.4371 9.872
18.4523 9.762
18.4675 9.677
18.4827 9.804
18.4978 9.826
18.5130 9.788
18.5282 9.731
18.5434 9.752
18.5585 9.796
18.5737 9.886
18.5889 9.703
18.6041 9.768
18.6192 9.861
18.6344 9.852
18.6496 9.711
18.6648 9.637
18.6799 9.748
18.6951 9.924
18.7103 9.943
18.7255 9.752
18.7406 9.650
18.7558 9.784
18.7710 9.944
18.7862 9.845
18.8013 9.844
18.8165 9.775
18.8317 9.920
18.8469 10.030
18.8620 10.025
18.8772 10.020
18.8924 10.023
18.9076 9.965
18.9227 9.944
18.9379 9.989
18.9531 10.112
18.9683 10.034
18.9834 9.983
18.9986 9.898
19.0138 9.894
19.0290 10.109
19.0441 10.205
19.0593 9.973
19.0745 10.017
19.0897 10.407
19.1048 10.269
19.1200 10.315
19.1352 10.496
19.1504 10.583
19.1655 10.641
19.1807 10.536
19.1959 10.675
19.2111 10.768
19.2262 10.588
19.2414 10.872
19.2566 10.919
19.2718 10.729
19.2869 10.752
19.3021 10.793
19.3173 10.921
19.3325 10.948
19.3476 11.157
19.3628 11.373
19.3780 11.263
19.3932 11.248
19.4083 11.058
19.4235 11.068
19.4387 11.311
19.4539 11.435
19.4690 11.448
19.4842 11.363
19.4994 11.422
19.5146 11.534
19.5297 11.440
19.5449 11.599
19.5601 11.692
19.5753 11.481
19.5904 11.537
19.6056 11.700
19.6208 11.774
19.6360 11.728
19.6511 11.721
19.6663 11.617
19.6815 11.565
19.6967 11.681
19.7118 11.696
19.7270 11.887
19.7422 11.946
19.7574 11.910
19.7725 11.775
19.7877 11.578
19.8029 11.690
19.8180 11.994
19.8332 12.178
19.8484 12.462
19.8636 12.618
19.8787 12.520
19.8939 12.682
19.9091 12.895
19.9243 13.264
19.9394 13.746
19.9546 14.059
19.9698 14.309
19.9850 14.280
20.0001 14.232
20.0153 13.997
20.0305 13.676
20.0457 13.678
20.0608 13.686
20.0760 13.567
20.0912 13.567
20.1064 13.489
20.1215 13.132
20.1367 13.390
20.1519 13.342
20.1671 13.121
20.1822 12.800
20.1974 12.672
20.2126 12.748
20.2278 12.714
20.2429 12.636
20.2581 12.446
20.2733 12.206
20.2885 12.228
20.3036 12.206
20.3188 12.066
20.3340 12.071
20.3492 11.897
20.3643 11.875
20.3795 11.914
20.3947 11.985
20.4099 11.975
20.4250 11.915
20.4402 12.089
20.4554 11.963
20.4706 12.011
20.4857 12.003
20.5009 11.705
20.5161 11.494
20.5313 11.390
20.5464 11.338
20.5616 11.088
20.5768 11.366
20.5920 11.425
20.6071 11.230
20.6223 10.985
20.6375 11.143
20.6527 11.010
20.6678 10.817
20.6830 10.626
20.6982 10.645
20.7134 10.695
20.7285 10.370
20.7437 10.426
20.7589 10.261
20.7741 10.286
20.7892 10.224
20.8044 10.183
20.8196 10.141
20.8348 10.325
20.8499 10.237
20.8651 10.438
20.8803 10.051
20.8955 10.275
20.9106 10.023
20.9258 10.282
20.9410 10.375
20.9562 10.457
20.9713 10.102
20.9865 10.119
21.0017 9.898
21.0169 10.176
21.0320 10.133
21.0472 9.980
21.0624 10.173
21.0776 10.264
21.0927 10.165
21.1079 9.776
21.1231 9.909
21.1383 9.973
21.1534 9.699
21.1686 9.926
21.1838 9.826
21.1990 9.942
21.2141 9.708
21.2293 9.921
21.2445 9.403
21.2597 9.977
21.2748 9.793
21.2900 9.898
21.3052 9.646
21.3204 9.388
21.3355 9.588
21.3507 9.677
21.3659 9.568
21.3811 9.433
21.3962 9.418
21.4114 9.533
21.4266 9.590
21.4418 9.426
21.4569 9.586
21.4721 9.484
21.4873 9.197
21.5025 9.087
21.5176 9.359
21.5328 9.440
21.5480 9.190
21.5632 8.962
21.5783 9.193
21.5935 9.405
21.6087 9.316
21.6239 9.120
21.6390 9.169
21.6542 9.198
21.6694 9.369
21.6846 9.341
21.6997 9.208
21.7149 8.996
21.7301 9.148
21.7453 8.873
21.7604 8.815
21.7756 8.868
21.7908 9.120
21.8060 8.906
21.8211 9.120
21.8363 8.967
21.8515 8.989
21.8667 9.166
21.8818 9.297
21.8970 9.014
21.9122 8.769
21.9274 8.841
21.9425 9.021
21.9577 9.126
21.9729 8.901
21.9881 8.792
22.0032 8.793
22.0184 8.913
22.0336 9.033
22.0488 9.048
22.0639 8.830
22.0791 8.787
22.0943 8.943
22.1095 8.874
22.1246 8.611
22.1398 8.436
22.1550 8.566
22.1702 8.398
22.1853 8.504
22.2005 8.672
22.2157 8.645
22.2309 8.485
22.2460 8.638
22.2612 8.637
22.2764 8.716
22.2916 8.472
22.3067 8.592
22.3219 8.807
22.3371 8.602
22.3523 8.568
22.3674 8.553
22.3826 8.631
22.3978 8.543
22.4130 8.446
22.4281 8.443
22.4433 8.251
22.4585 8.484
22.4737 8.353
22.4888 8.254
22.5040 8.241
22.5192 8.609
22.5344 8.438
22.5495 8.659
22.5647 8.352
22.5799 8.493
22.5951 8.622
22.6102 8.611
22.6254 8.738
22.6406 8.258
22.6558 8.436
22.6709 8.439
22.6861 8.763
22.7013 8.037
22.7165 8.074
22.7316 6.343
