'Id: "" Comment: "" Operator: "Lab Manager" Anode: "Mo" Scantype: "Still (Eiger2R_500K (1D mode))" TimePerStep: "300" X: "11.8" Y: "9.4" Z: "11.284" 
7.2532 18.618
7.2684 18.861
7.2836 18.906
7.2987 19.520
7.3139 19.512
7.3291 19.053
7.3443 18.913
7.3594 18.919
7.3746 19.099
7.3898 19.325
7.4050 19.168
7.4201 19.276
7.4353 19.171
7.4505 19.612
7.4657 19.253
7.4808 19.668
7.4960 19.474
7.5112 19.573
7.5264 19.454
7.5415 19.378
7.5567 19.704
7.5719 19.507
7.5871 19.575
7.6022 19.730
7.6174 19.924
7.6326 20.311
7.6478 20.329
7.6629 19.960
7.6781 20.034
7.6933 20.224
7.7085 20.111
7.7236 20.176
7.7388 20.718
7.7540 20.636
7.7692 20.357
7.7843 20.199
7.7995 20.369
7.8147 20.465
7.8299 20.291
7.8450 20.401
7.8602 20.694
7.8754 20.703
7.8905 20.615
7.9057 20.652
7.9209 20.635
7.9361 20.742
7.9512 20.935
7.9664 20.837
7.9816 21.043
7.9968 21.031
8.0119 21.088
8.0271 20.974
8.0423 21.104
8.0575 21.241
8.0726 21.361
8.0878 21.162
8.1030 21.274
8.1182 21.053
8.1333 21.207
8.1485 21.059
8.1637 21.328
8.1789 21.030
8.1940 20.824
8.2092 20.968
8.2244 21.364
8.2396 21.452
8.2547 21.834
8.2699 21.457
8.2851 21.464
8.3003 21.411
8.3154 21.735
8.3306 21.707
8.3458 21.249
8.3610 21.575
8.3761 21.733
8.3913 21.597
8.4065 21.243
8.4217 21.584
8.4368 21.411
8.4520 21.803
8.4672 21.908
8.4824 21.875
8.4975 21.875
8.5127 22.029
8.5279 21.966
8.5431 22.019
8.5582 21.893
8.5734 21.947
8.5886 22.578
8.6038 21.889
8.6189 21.890
8.6341 22.303
8.6493 22.148
8.6645 22.310
8.6796 22.405
8.6948 21.711
8.7100 22.119
8.7252 22.150
8.7403 21.925
8.7555 21.605
8.7707 22.190
8.7859 22.015
8.8010 22.017
8.8162 22.319
8.8314 22.673
8.8466 22.428
8.8617 22.394
8.8769 22.423
8.8921 22.631
8.9073 22.630
8.9224 22.195
8.9376 22.228
8.9528 22.417
8.9680 22.208
8.9831 22.166
8.9983 22.399
9.0135 22.206
9.0287 22.467
9.0438 22.862
9.0590 23.151
9.0742 22.802
9.0894 23.056
9.1045 22.303
9.1197 22.560
9.1349 22.830
9.1501 22.805
9.1652 22.718
9.1804 22.809
9.1956 22.701
9.2108 22.387
9.2259 22.672
9.2411 22.683
9.2563 22.667
9.2715 22.949
9.2866 22.838
9.3018 22.894
9.3170 23.221
9.3322 23.110
9.3473 22.885
9.3625 23.004
9.3777 22.856
9.3929 23.045
9.4080 22.931
9.4232 22.683
9.4384 22.896
9.4536 23.089
9.4687 23.081
9.4839 22.911
9.4991 22.967
9.5143 23.025
9.5294 23.082
9.5446 23.464
9.5598 23.270
9.5750 23.025
9.5901 23.355
9.6053 23.500
9.6205 23.124
9.6357 23.137
9.6508 23.155
9.6660 23.179
9.6812 23.146
9.6964 23.457
9.7115 24.076
9.7267 24.194
9.7419 23.983
9.7571 24.118
9.7722 24.409
9.7874 24.231
9.8026 23.710
9.8178 23.765
9.8329 23.659
9.8481 23.473
9.8633 23.310
9.8785 23.159
9.8936 23.242
9.9088 23.421
9.9240 23.300
9.9392 23.197
9.9543 23.135
9.9695 23.267
9.9847 23.345
9.9999 22.762
10.0150 22.771
10.0302 23.176
10.0454 23.524
10.0606 23.264
10.0757 23.033
10.0909 23.138
10.1061 23.089
10.1213 23.166
10.1364 23.009
10.1516 23.226
10.1668 23.665
10.1820 23.467
10.1971 23.010
10.2123 23.057
10.2275 23.122
10.2427 22.680
10.2578 22.718
10.2730 22.897
10.2882 22.825
10.3034 22.727
10.3185 22.766
10.3337 22.785
10.3489 23.103
10.3641 22.962
10.3792 22.662
10.3944 22.613
10.4096 22.548
10.4248 22.910
10.4399 23.006
10.4551 23.099
10.4703 22.822
10.4855 22.132
10.5006 22.189
10.5158 22.454
10.5310 22.554
10.5462 22.637
10.5613 22.917
10.5765 22.645
10.5917 22.417
10.6069 22.469
10.6220 22.530
10.6372 22.351
10.6524 22.389
10.6676 22.460
10.6827 22.448
10.6979 22.384
10.7131 22.259
10.7283 22.353
10.7434 22.366
10.7586 22.399
10.7738 22.367
10.7890 22.357
10.8041 22.547
10.8193 22.302
10.8345 22.316
10.8497 22.208
10.8648 21.853
10.8800 22.001
10.8952 21.940
10.9104 22.023
10.9255 22.130
10.9407 22.427
10.9559 22.419
10.9711 22.229
10.9862 22.174
11.0014 21.929
11.0166 22.139
11.0318 22.459
11.0469 22.125
11.0621 22.039
11.0773 21.975
11.0925 22.014
11.1076 22.055
11.1228 21.828
11.1380 21.733
11.1532 21.838
11.1683 21.622
11.1835 21.676
11.1987 21.903
11.2139 21.878
11.2290 21.611
11.2442 21.678
11.2594 21.649
11.2746 21.688
11.2897 21.379
11.3049 21.694
11.3201 21.989
11.3353 21.694
11.3504 21.354
11.3656 21.573
11.3808 21.386
11.3960 21.280
11.4111 21.457
11.4263 21.172
11.4415 21.142
11.4567 21.297
11.4718 21.277
11.4870 21.359
11.5022 21.203
11.5174 21.075
11.5325 21.267
11.5477 21.251
11.5629 21.008
11.5781 20.912
11.5932 20.916
11.6084 20.511
11.6236 20.563
11.6388 20.355
11.6539 20.435
11.6691 20.540
11.6843 20.623
11.6995 20.540
11.7146 20.293
11.7298 20.558
11.7450 20.385
11.7602 20.183
11.7753 20.290
11.7905 19.975
11.8057 20.095
11.8209 20.060
11.8360 19.829
11.8512 19.659
11.8664 19.846
11.8816 19.818
11.8967 19.725
11.9119 19.922
11.9271 19.571
11.9423 19.353
11.9574 19.505
11.9726 19.424
11.9878 19.128
12.0030 19.141
12.0181 19.214
12.0333 19.248
12.0485 19.143
12.0637 18.852
12.0788 18.622
12.0940 18.520
12.1092 18.766
12.1244 18.918
12.1395 18.729
12.1547 18.439
12.1699 18.313
12.1851 18.351
12.2002 18.196
12.2154 18.091
12.2306 17.939
12.2458 18.008
12.2609 17.878
12.2761 17.943
12.2913 17.879
12.3065 17.605
12.3216 17.409
12.3368 17.445
12.3520 17.450
12.3672 17.187
12.3823 17.430
12.3975 17.199
12.4127 16.684
12.4279 16.861
12.4430 16.921
12.4582 16.730
12.4734 16.661
12.4886 16.748
12.5037 16.579
12.5189 16.234
12.5341 16.076
12.5493 16.446
12.5644 16.522
12.5796 16.385
12.5948 16.382
12.6100 16.281
12.6251 15.882
12.6403 15.974
12.6555 15.826
12.6707 15.811
12.6858 15.963
12.7010 15.666
12.7162 15.477
12.7314 15.572
12.7465 15.733
12.7617 15.534
12.7769 15.485
12.7921 15.326
12.8072 15.124
12.8224 15.030
12.8376 14.817
12.8528 14.920
12.8679 14.646
12.8831 14.565
12.8983 14.795
12.9135 14.732
12.9286 14.547
12.9438 14.481
12.9590 14.630
12.9742 14.591
12.9893 14.214
13.0045 14.089
13.0197 14.358
13.0349 14.196
13.0500 13.935
13.0652 14.089
13.0804 14.179
13.0956 14.120
13.1107 13.984
13.1259 13.874
13.1411 13.753
13.1563 13.570
13.1714 13.572
13.1866 13.702
13.2018 13.462
13.2170 13.324
13.2321 13.626
13.2473 13.551
13.2625 13.402
13.2777 13.397
13.2928 13.026
13.3080 13.050
13.3232 13.251
13.3384 13.076
13.3535 13.049
13.3687 13.070
13.3839 13.124
13.3991 12.847
13.4142 12.809
13.4294 13.025
13.4446 12.885
13.4598 12.891
13.4749 13.045
13.4901 12.914
13.5053 12.877
13.5205 12.683
13.5356 12.693
13.5508 12.774
13.5660 12.516
13.5812 12.379
13.5963 12.262
13.6115 12.151
13.6267 12.004
13.6419 11.964
13.6570 12.246
13.6722 12.405
13.6874 12.242
13.7026 12.143
13.7177 12.075
13.7329 12.136
13.7481 12.190
13.7633 11.953
13.7784 11.853
13.7936 12.075
13.8088 12.318
13.8239 12.214
13.8391 12.179
13.8543 12.108
13.8695 12.239
13.8846 12.390
13.8998 12.327
13.9150 12.326
13.9302 12.376
13.9453 11.984
13.9605 11.827
13.9757 11.856
13.9909 11.688
14.0060 11.816
14.0212 12.184
14.0364 11.638
14.0516 11.757
14.0667 11.730
14.0819 11.764
14.0971 11.817
14.1123 11.877
14.1274 11.630
14.1426 11.763
14.1578 11.659
14.1730 11.633
14.1881 11.430
14.2033 11.673
14.2185 11.735
14.2337 11.534
14.2488 11.773
14.2640 11.902
14.2792 11.679
14.2944 11.737
14.3095 12.011
14.3247 12.470
14.3399 12.266
14.3551 12.444
14.3702 13.012
14.3854 12.757
14.4006 13.138
14.4158 12.825
14.4309 13.141
14.4461 12.661
14.4613 12.471
14.4765 12.199
14.4916 12.326
14.5068 12.014
14.5220 11.580
14.5372 11.457
14.5523 10.959
14.5675 11.186
14.5827 10.803
14.5979 10.598
14.6130 10.866
14.6282 10.744
14.6434 10.988
14.6586 10.995
14.6737 10.722
14.6889 10.415
14.7041 10.741
14.7193 10.630
14.7344 10.701
14.7496 10.747
14.7648 10.670
14.7800 10.618
14.7951 10.328
14.8103 10.546
14.8255 10.991
14.8407 10.610
14.8558 10.305
14.8710 10.375
14.8862 10.587
14.9014 10.423
14.9165 10.536
14.9317 10.495
14.9469 10.255
14.9621 10.506
14.9772 10.089
14.9924 10.374
15.0076 10.484
15.0228 10.352
15.0379 10.031
15.0531 10.283
15.0683 10.244
15.0835 10.094
15.0986 10.339
15.1138 9.958
15.1290 10.235
15.1442 9.891
15.1593 10.318
15.1745 10.266
15.1897 10.102
15.2049 10.482
15.2200 10.126
15.2352 10.080
15.2504 10.069
15.2656 10.273
15.2807 9.858
15.2959 10.098
15.3111 9.943
15.3263 10.131
15.3414 10.078
15.3566 10.380
15.3718 10.308
15.3870 10.254
15.4021 10.330
15.4173 9.863
15.4325 10.018
15.4477 10.108
15.4628 10.021
15.4780 9.974
15.4932 10.018
15.5084 9.925
15.5235 10.185
15.5387 10.049
15.5539 9.937
15.5691 9.703
15.5842 9.604
15.5994 9.735
15.6146 9.664
15.6298 9.773
15.6449 9.641
15.6601 9.763
15.6753 10.010
15.6905 9.617
15.7056 9.636
15.7208 9.699
15.7360 9.862
15.7512 9.806
15.7663 9.599
15.7815 10.039
15.7967 9.875
15.8119 9.837
15.8270 9.875
15.8422 9.433
15.8574 9.460
15.8726 9.514
15.8877 9.384
15.9029 9.480
15.9181 9.647
15.9333 9.581
15.9484 9.545
15.9636 9.540
15.9788 9.497
15.9940 9.667
16.0091 9.518
16.0243 9.765
16.0395 9.696
16.0547 9.587
16.0698 9.721
16.0850 9.619
16.1002 9.617
16.1154 9.706
16.1305 9.685
16.1457 9.764
16.1609 9.427
16.1761 9.681
16.1912 9.595
16.2064 9.747
16.2216 9.856
16.2368 9.869
16.2519 9.748
16.2671 9.726
16.2823 9.605
16.2975 9.809
16.3126 9.821
16.3278 10.112
16.3430 10.085
16.3582 9.686
16.3733 9.626
16.3885 9.618
16.4037 9.396
16.4189 9.718
16.4340 9.672
16.4492 9.724
16.4644 9.914
16.4796 9.787
16.4947 9.491
16.5099 9.310
16.5251 9.431
16.5403 9.298
16.5554 9.566
16.5706 9.750
16.5858 9.705
16.6010 9.677
16.6161 9.769
16.6313 10.032
16.6465 9.873
16.6617 9.546
16.6768 9.646
16.6920 9.790
16.7072 9.611
16.7224 9.539
16.7375 9.814
16.7527 9.930
16.7679 9.735
16.7831 9.620
16.7982 9.764
16.8134 9.913
16.8286 9.929
16.8438 9.758
16.8589 9.885
16.8741 9.804
16.8893 9.681
16.9045 9.635
16.9196 9.616
16.9348 9.558
16.9500 9.412
16.9652 9.508
16.9803 9.669
16.9955 9.938
17.0107 10.221
17.0259 10.151
17.0410 10.109
17.0562 10.001
17.0714 10.106
17.0866 10.290
17.1017 10.453
17.1169 10.666
17.1321 10.993
17.1473 11.441
17.1624 11.665
17.1776 12.293
17.1928 13.091
17.2080 13.926
17.2231 14.947
17.2383 16.320
17.2535 17.801
17.2687 18.633
17.2838 18.709
17.2990 18.018
17.3142 17.267
17.3294 16.608
17.3445 16.496
17.3597 16.539
17.3749 16.072
17.3901 15.248
17.4052 14.262
17.4204 13.494
17.4356 12.744
17.4508 12.155
17.4659 11.854
17.4811 11.598
17.4963 11.388
17.5115 11.487
17.5266 11.204
17.5418 10.798
17.5570 10.897
17.5722 11.017
17.5873 11.025
17.6025 11.169
17.6177 11.266
17.6329 11.120
17.6480 11.218
17.6632 11.410
17.6784 11.463
17.6936 11.407
17.7087 11.433
17.7239 11.355
17.7391 11.188
17.7543 11.157
17.7694 11.017
17.7846 10.954
17.7998 10.990
17.8150 10.745
17.8301 10.597
17.8453 10.449
17.8605 10.347
17.8757 10.665
17.8908 10.421
17.9060 10.259
17.9212 10.415
17.9364 10.248
17.9515 9.937
17.9667 10.170
17.9819 10.406
17.9971 10.069
18.0122 9.954
18.0274 10.141
18.0426 10.347
18.0578 10.301
18.0729 10.214
18.0881 10.130
18.1033 10.049
18.1185 10.014
18.1336 9.814
18.1488 9.856
18.1640 10.152
18.1792 9.872
18.1943 9.673
18.2095 9.756
18.2247 10.087
18.2399 10.030
18.2550 9.872
18.2702 9.816
18.2854 9.718
18.3006 9.867
18.3157 9.899
18.3309 9.896
18.3461 9.833
18.3613 9.824
18.3764 9.798
18.3916 9.816
18.4068 9.928
18.4220 10.065
18.4371 9.919
18.4523 9.913
18.4675 10.044
18.4827 9.703
18.4978 9.694
18.5130 9.751
18.5282 9.851
18.5434 9.960
18.5585 9.818
18.5737 9.984
18.5889 9.871
18.6041 9.785
18.6192 9.730
18.6344 9.634
18.6496 9.624
18.6648 9.531
18.6799 9.601
18.6951 9.958
18.7103 9.861
18.7255 9.746
18.7406 9.777
18.7558 9.827
18.7710 9.893
18.7862 9.885
18.8013 9.581
18.8165 9.566
18.8317 9.744
18.8469 9.730
18.8620 9.788
18.8772 9.778
18.8924 9.815
18.9076 10.064
18.9227 10.044
18.9379 10.003
18.9531 10.088
18.9683 9.960
18.9834 10.165
18.9986 10.288
19.0138 10.329
19.0290 10.336
19.0441 10.308
19.0593 10.261
19.0745 10.245
19.0897 10.401
19.1048 10.450
19.1200 10.268
19.1352 10.412
19.1504 10.742
19.1655 10.732
19.1807 10.761
19.1959 10.746
19.2111 10.653
19.2262 10.744
19.2414 10.753
19.2566 10.792
19.2718 10.943
19.2869 11.020
19.3021 11.059
19.3173 11.106
19.3325 11.102
19.3476 11.130
19.3628 11.111
19.3780 11.303
19.3932 11.327
19.4083 11.231
19.4235 11.337
19.4387 11.476
19.4539 11.482
19.4690 11.491
19.4842 11.720
19.4994 11.800
19.5146 11.668
19.5297 11.848
19.5449 11.679
19.5601 11.495
19.5753 11.772
19.5904 11.849
19.6056 11.848
19.6208 11.835
19.6360 11.792
19.6511 11.885
19.6663 11.815
19.6815 11.858
19.6967 11.976
19.7118 11.886
19.7270 11.838
19.7422 11.922
19.7574 12.094
19.7725 12.211
19.7877 12.109
19.8029 11.806
19.8180 11.877
19.8332 12.237
19.8484 12.529
19.8636 12.633
19.8787 12.694
19.8939 12.961
19.9091 13.251
19.9243 13.540
19.9394 13.806
19.9546 14.067
19.9698 14.440
19.9850 14.617
20.0001 14.375
20.0153 14.215
20.0305 14.039
20.0457 13.895
20.0608 14.064
20.0760 13.815
20.0912 13.618
20.1064 13.711
20.1215 13.651
20.1367 13.457
20.1519 13.373
20.1671 13.146
20.1822 12.873
20.1974 12.926
20.2126 12.827
20.2278 12.898
20.2429 12.717
20.2581 12.389
20.2733 12.106
20.2885 11.953
20.3036 11.870
20.3188 12.043
20.3340 12.070
20.3492 12.063
20.3643 12.022
20.3795 11.937
20.3947 11.622
20.4099 11.712
20.4250 11.684
20.4402 11.753
20.4554 11.593
20.4706 11.563
20.4857 11.850
20.5009 11.896
20.5161 11.819
20.5313 11.423
20.5464 11.376
20.5616 11.238
20.5768 11.268
20.5920 11.374
20.6071 11.119
20.6223 10.778
20.6375 10.931
20.6527 10.971
20.6678 10.910
20.6830 10.799
20.6982 10.757
20.7134 10.666
20.7285 10.582
20.7437 10.630
20.7589 10.522
20.7741 10.691
20.7892 10.701
20.8044 10.423
20.8196 10.571
20.8348 10.389
20.8499 10.397
20.8651 10.203
20.8803 10.320
20.8955 10.322
20.9106 10.266
20.9258 10.382
20.9410 10.308
20.9562 10.236
20.9713 10.299
20.9865 10.269
21.0017 10.349
21.0169 10.198
21.0320 10.098
21.0472 10.004
21.0624 9.755
21.0776 9.822
21.0927 9.996
21.1079 9.702
21.1231 10.181
21.1383 9.993
21.1534 9.965
21.1686 10.094
21.1838 10.062
21.1990 9.998
21.2141 10.101
21.2293 10.148
21.2445 10.119
21.2597 9.736
21.2748 9.630
21.2900 9.709
21.3052 9.605
21.3204 9.486
21.3355 9.825
21.3507 9.727
21.3659 9.681
21.3811 9.534
21.3962 9.611
21.4114 9.495
21.4266 9.121
21.4418 9.634
21.4569 9.298
21.4721 9.264
21.4873 9.507
21.5025 9.537
21.5176 9.298
21.5328 9.253
21.5480 9.366
21.5632 9.003
21.5783 9.236
21.5935 9.126
21.6087 9.335
21.6239 9.231
21.6390 9.229
21.6542 9.249
21.6694 9.118
21.6846 9.349
21.6997 9.109
21.7149 9.213
21.7301 9.007
21.7453 8.974
21.7604 9.109
21.7756 9.142
21.7908 9.196
21.8060 9.065
21.8211 8.925
21.8363 8.906
21.8515 8.888
21.8667 8.997
21.8818 8.935
21.8970 8.870
21.9122 8.920
21.9274 8.755
21.9425 8.819
21.9577 9.020
21.9729 8.861
21.9881 8.814
22.0032 8.893
22.0184 8.892
22.0336 8.764
22.0488 8.842
22.0639 8.862
22.0791 8.744
22.0943 8.851
22.1095 9.002
22.1246 8.913
22.1398 8.776
22.1550 8.841
22.1702 8.661
22.1853 8.674
22.2005 8.585
22.2157 8.627
22.2309 8.792
22.2460 8.657
22.2612 8.435
22.2764 8.341
22.2916 8.467
22.3067 8.504
22.3219 8.524
22.3371 8.407
22.3523 8.493
22.3674 8.515
22.3826 8.478
22.3978 8.541
22.4130 8.417
22.4281 8.668
22.4433 8.444
22.4585 8.686
22.4737 8.571
22.4888 8.350
22.5040 8.381
22.5192 8.510
22.5344 8.361
22.5495 8.393
22.5647 8.457
22.5799 8.783
22.5951 8.374
22.6102 8.585
22.6254 8.300
22.6406 8.445
22.6558 8.305
22.6709 8.529
22.6861 8.243
22.7013 8.245
22.7165 7.828
22.7316 6.211
