'Id: "" Comment: "" Operator: "Lab Manager" Anode: "Mo" Scantype: "Still (Eiger2R_500K (1D mode))" TimePerStep: "300" X: "11.8" Y: "9.4" Z: "11.284" 
7.2532 19.057
7.2684 19.072
7.2836 19.047
7.2987 19.071
7.3139 18.413
7.3291 18.948
7.3443 19.209
7.3594 19.325
7.3746 19.431
7.3898 18.660
7.4050 19.472
7.4201 19.162
7.4353 19.470
7.4505 19.440
7.4657 19.634
7.4808 19.243
7.4960 19.356
7.5112 19.202
7.5264 19.018
7.5415 19.359
7.5567 19.616
7.5719 19.767
7.5871 20.014
7.6022 20.164
7.6174 19.962
7.6326 20.177
7.6478 20.212
7.6629 20.125
7.6781 20.223
7.6933 20.264
7.7085 20.060
7.7236 20.120
7.7388 20.297
7.7540 20.446
7.7692 20.210
7.7843 20.139
7.7995 20.366
7.8147 20.678
7.8299 20.683
7.8450 20.641
7.8602 20.803
7.8754 20.739
7.8905 20.842
7.9057 20.632
7.9209 20.598
7.9361 20.741
7.9512 20.836
7.9664 21.136
7.9816 21.054
7.9968 20.806
8.0119 20.655
8.0271 20.423
8.0423 20.678
8.0575 21.139
8.0726 21.010
8.0878 21.262
8.1030 21.627
8.1182 21.439
8.1333 22.108
8.1485 21.744
8.1637 21.488
8.1789 21.646
8.1940 21.225
8.2092 21.301
8.2244 21.667
8.2396 21.489
8.2547 21.652
8.2699 21.560
8.2851 21.565
8.3003 21.734
8.3154 21.822
8.3306 21.718
8.3458 21.696
8.3610 22.059
8.3761 21.492
8.3913 22.037
8.4065 22.147
8.4217 21.677
8.4368 22.117
8.4520 22.027
8.4672 21.576
8.4824 21.943
8.4975 21.540
8.5127 22.149
8.5279 22.022
8.5431 21.732
8.5582 22.121
8.5734 22.100
8.5886 21.891
8.6038 21.723
8.6189 22.246
8.6341 21.648
8.6493 22.464
8.6645 22.070
8.6796 22.193
8.6948 22.344
8.7100 22.459
8.7252 22.287
8.7403 22.399
8.7555 22.366
8.7707 22.249
8.7859 22.562
8.8010 22.753
8.8162 22.163
8.8314 22.498
8.8466 22.161
8.8617 22.425
8.8769 22.294
8.8921 22.603
8.9073 22.423
8.9224 22.824
8.9376 23.139
8.9528 22.958
8.9680 22.714
8.9831 22.772
8.9983 22.697
9.0135 22.583
9.0287 22.525
9.0438 22.756
9.0590 22.796
9.0742 22.622
9.0894 22.571
9.1045 22.634
9.1197 22.862
9.1349 22.574
9.1501 22.576
9.1652 22.602
9.1804 22.973
9.1956 23.001
9.2108 23.080
9.2259 22.917
9.2411 22.978
9.2563 23.098
9.2715 23.463
9.2866 23.144
9.3018 22.639
9.3170 22.966
9.3322 23.052
9.3473 23.226
9.3625 23.029
9.3777 22.808
9.3929 23.010
9.4080 23.049
9.4232 22.800
9.4384 22.821
9.4536 23.227
9.4687 23.222
9.4839 23.188
9.4991 23.262
9.5143 23.311
9.5294 23.236
9.5446 23.082
9.5598 23.306
9.5750 23.438
9.5901 23.061
9.6053 23.187
9.6205 23.557
9.6357 23.419
9.6508 23.675
9.6660 23.846
9.6812 23.689
9.6964 23.165
9.7115 23.284
9.7267 23.736
9.7419 23.889
9.7571 24.159
9.7722 24.167
9.7874 23.986
9.8026 23.826
9.8178 23.759
9.8329 23.683
9.8481 23.334
9.8633 23.056
9.8785 23.071
9.8936 23.025
9.9088 23.025
9.9240 23.209
9.9392 23.294
9.9543 22.995
9.9695 23.156
9.9847 23.321
9.9999 22.994
10.0150 22.958
10.0302 23.001
10.0454 23.041
10.0606 23.218
10.0757 23.351
10.0909 23.265
10.1061 23.355
10.1213 23.792
10.1364 23.405
10.1516 23.257
10.1668 23.238
10.1820 23.212
10.1971 23.214
10.2123 23.393
10.2275 23.100
10.2427 23.120
10.2578 23.130
10.2730 22.881
10.2882 22.906
10.3034 22.917
10.3185 22.925
10.3337 22.947
10.3489 22.550
10.3641 22.340
10.3792 22.709
10.3944 22.983
10.4096 23.129
10.4248 22.925
10.4399 23.264
10.4551 22.905
10.4703 22.939
10.4855 22.890
10.5006 22.613
10.5158 22.353
10.5310 22.287
10.5462 22.562
10.5613 22.990
10.5765 22.840
10.5917 22.461
10.6069 22.515
10.6220 22.650
10.6372 22.746
10.6524 22.406
10.6676 22.850
10.6827 22.790
10.6979 22.871
10.7131 22.499
10.7283 22.151
10.7434 21.889
10.7586 22.348
10.7738 22.722
10.7890 22.225
10.8041 22.345
10.8193 22.428
10.8345 21.938
10.8497 21.548
10.8648 21.724
10.8800 22.004
10.8952 22.048
10.9104 21.821
10.9255 22.167
10.9407 22.492
10.9559 22.340
10.9711 22.190
10.9862 22.176
11.0014 22.136
11.0166 22.074
11.0318 22.265
11.0469 21.867
11.0621 21.689
11.0773 21.771
11.0925 21.788
11.1076 21.874
11.1228 22.041
11.1380 21.754
11.1532 21.807
11.1683 21.733
11.1835 21.813
11.1987 21.471
11.2139 21.606
11.2290 21.673
11.2442 21.773
11.2594 21.704
11.2746 21.692
11.2897 21.562
11.3049 21.714
11.3201 21.626
11.3353 21.744
11.3504 21.403
11.3656 21.377
11.3808 21.455
11.3960 21.454
11.4111 21.467
11.4263 21.133
11.4415 21.202
11.4567 21.125
11.4718 21.464
11.4870 21.649
11.5022 21.825
11.5174 21.139
11.5325 20.865
11.5477 20.964
11.5629 21.053
11.5781 21.129
11.5932 21.030
11.6084 20.779
11.6236 20.913
11.6388 21.148
11.6539 20.643
11.6691 20.546
11.6843 20.641
11.6995 20.657
11.7146 20.509
11.7298 20.618
11.7450 20.483
11.7602 20.042
11.7753 20.093
11.7905 20.387
11.8057 19.945
11.8209 19.638
11.8360 19.632
11.8512 19.677
11.8664 19.741
11.8816 19.710
11.8967 19.643
11.9119 19.608
11.9271 19.611
11.9423 19.703
11.9574 19.608
11.9726 19.343
11.9878 19.222
12.0030 19.381
12.0181 19.484
12.0333 18.936
12.0485 19.295
12.0637 19.274
12.0788 18.755
12.0940 18.461
12.1092 18.613
12.1244 18.599
12.1395 18.667
12.1547 18.255
12.1699 18.270
12.1851 18.481
12.2002 18.361
12.2154 18.106
12.2306 17.885
12.2458 17.941
12.2609 17.929
12.2761 17.790
12.2913 17.645
12.3065 17.451
12.3216 17.521
12.3368 17.547
12.3520 17.380
12.3672 17.282
12.3823 17.475
12.3975 17.418
12.4127 17.181
12.4279 17.098
12.4430 17.097
12.4582 16.691
12.4734 16.684
12.4886 16.786
12.5037 16.715
12.5189 16.591
12.5341 16.215
12.5493 16.228
12.5644 16.262
12.5796 16.146
12.5948 15.926
12.6100 16.061
12.6251 16.211
12.6403 15.875
12.6555 15.983
12.6707 16.238
12.6858 15.976
12.7010 15.756
12.7162 15.360
12.7314 15.348
12.7465 15.391
12.7617 15.193
12.7769 15.295
12.7921 15.345
12.8072 15.200
12.8224 15.006
12.8376 14.860
12.8528 14.867
12.8679 14.530
12.8831 14.340
12.8983 14.917
12.9135 15.041
12.9286 14.625
12.9438 14.505
12.9590 14.358
12.9742 14.367
12.9893 14.556
13.0045 14.562
13.0197 14.570
13.0349 14.347
13.0500 13.886
13.0652 13.844
13.0804 13.844
13.0956 13.737
13.1107 13.859
13.1259 13.826
13.1411 13.815
13.1563 13.807
13.1714 13.743
13.1866 13.548
13.2018 13.261
13.2170 13.172
13.2321 13.217
13.2473 13.223
13.2625 13.253
13.2777 13.336
13.2928 13.293
13.3080 13.161
13.3232 12.989
13.3384 13.098
13.3535 12.997
13.3687 12.861
13.3839 13.032
13.3991 12.843
13.4142 12.584
13.4294 12.712
13.4446 12.806
13.4598 12.841
13.4749 12.831
13.4901 12.782
13.5053 12.618
13.5205 12.395
13.5356 12.298
13.5508 12.247
13.5660 12.240
13.5812 12.155
13.5963 12.284
13.6115 12.507
13.6267 12.463
13.6419 12.098
13.6570 12.127
13.6722 12.341
13.6874 12.198
13.7026 12.062
13.7177 12.051
13.7329 12.123
13.7481 12.233
13.7633 12.172
13.7784 11.945
13.7936 12.127
13.8088 12.244
13.8239 12.253
13.8391 12.139
13.8543 12.289
13.8695 12.433
13.8846 12.326
13.8998 12.110
13.9150 12.112
13.9302 12.023
13.9453 11.878
13.9605 11.983
13.9757 11.816
13.9909 11.656
14.0060 11.557
14.0212 11.491
14.0364 11.272
14.0516 11.502
14.0667 11.624
14.0819 11.448
14.0971 11.659
14.1123 11.713
14.1274 11.554
14.1426 11.409
14.1578 11.214
14.1730 11.510
14.1881 11.806
14.2033 11.599
14.2185 11.232
14.2337 11.737
14.2488 11.605
14.2640 11.753
14.2792 11.740
14.2944 11.725
14.3095 12.230
14.3247 12.110
14.3399 12.320
14.3551 12.222
14.3702 12.941
14.3854 13.380
14.4006 13.637
14.4158 13.333
14.4309 13.340
14.4461 13.263
14.4613 12.713
14.4765 12.685
14.4916 12.785
14.5068 12.462
14.5220 12.312
14.5372 11.737
14.5523 11.473
14.5675 11.592
14.5827 10.918
14.5979 11.238
14.6130 11.090
14.6282 11.095
14.6434 10.914
14.6586 10.964
14.6737 10.634
14.6889 10.736
14.7041 10.782
14.7193 10.755
14.7344 10.585
14.7496 10.796
14.7648 10.659
14.7800 10.535
14.7951 10.549
14.8103 10.806
14.8255 10.686
14.8407 10.463
14.8558 10.427
14.8710 10.532
14.8862 10.380
14.9014 10.318
14.9165 10.651
14.9317 10.702
14.9469 10.417
14.9621 10.477
14.9772 10.598
14.9924 10.674
15.0076 10.165
15.0228 10.152
15.0379 10.300
15.0531 10.292
15.0683 10.548
15.0835 10.353
15.0986 10.306
15.1138 10.101
15.1290 10.069
15.1442 9.959
15.1593 10.129
15.1745 10.103
15.1897 10.445
15.2049 10.115
15.2200 10.212
15.2352 10.418
15.2504 9.936
15.2656 10.272
15.2807 10.045
15.2959 10.058
15.3111 10.033
15.3263 10.073
15.3414 9.616
15.3566 10.148
15.3718 10.191
15.3870 10.358
15.4021 10.092
15.4173 10.250
15.4325 10.263
15.4477 10.285
15.4628 10.119
15.4780 9.874
15.4932 10.164
15.5084 10.257
15.5235 10.141
15.5387 10.384
15.5539 9.880
15.5691 10.384
15.5842 10.183
15.5994 9.895
15.6146 9.842
15.6298 9.732
15.6449 9.895
15.6601 9.790
15.6753 9.858
15.6905 9.821
15.7056 9.504
15.7208 9.549
15.7360 9.779
15.7512 9.943
15.7663 9.751
15.7815 9.762
15.7967 9.836
15.8119 9.920
15.8270 9.885
15.8422 10.112
15.8574 9.431
15.8726 9.477
15.8877 9.585
15.9029 9.349
15.9181 9.446
15.9333 9.802
15.9484 9.677
15.9636 9.733
15.9788 9.419
15.9940 9.712
16.0091 9.864
16.0243 9.862
16.0395 9.588
16.0547 9.416
16.0698 9.443
16.0850 9.500
16.1002 9.519
16.1154 9.608
16.1305 9.620
16.1457 9.430
16.1609 9.709
16.1761 9.631
16.1912 9.542
16.2064 9.718
16.2216 9.655
16.2368 9.488
16.2519 9.557
16.2671 9.888
16.2823 9.702
16.2975 9.777
16.3126 9.932
16.3278 10.319
16.3430 9.955
16.3582 9.910
16.3733 9.948
16.3885 9.874
16.4037 9.864
16.4189 9.629
16.4340 9.691
16.4492 9.918
16.4644 9.784
16.4796 9.819
16.4947 9.898
16.5099 9.491
16.5251 9.411
16.5403 9.525
16.5554 9.368
16.5706 9.566
16.5858 9.567
16.6010 9.713
16.6161 9.617
16.6313 9.505
16.6465 9.669
16.6617 9.614
16.6768 9.721
16.6920 9.851
16.7072 10.105
16.7224 10.065
16.7375 9.965
16.7527 9.904
16.7679 9.618
16.7831 9.961
16.7982 10.083
16.8134 9.995
16.8286 9.746
16.8438 9.810
16.8589 9.917
16.8741 9.877
16.8893 9.810
16.9045 9.643
16.9196 9.695
16.9348 9.804
16.9500 9.762
16.9652 9.660
16.9803 9.718
16.9955 9.760
17.0107 9.826
17.0259 9.824
17.0410 9.951
17.0562 10.243
17.0714 10.388
17.0866 10.305
17.1017 10.322
17.1169 10.618
17.1321 10.847
17.1473 11.234
17.1624 11.485
17.1776 12.095
17.1928 13.098
17.2080 13.996
17.2231 15.269
17.2383 16.399
17.2535 17.452
17.2687 18.301
17.2838 18.465
17.2990 17.959
17.3142 17.165
17.3294 16.501
17.3445 16.044
17.3597 15.968
17.3749 15.980
17.3901 15.343
17.4052 14.146
17.4204 13.152
17.4356 12.383
17.4508 11.694
17.4659 11.453
17.4811 11.506
17.4963 11.487
17.5115 11.223
17.5266 10.916
17.5418 10.768
17.5570 10.818
17.5722 11.018
17.5873 11.041
17.6025 11.119
17.6177 11.133
17.6329 11.187
17.6480 11.312
17.6632 11.497
17.6784 11.904
17.6936 12.271
17.7087 12.323
17.7239 12.022
17.7391 11.752
17.7543 11.809
17.7694 11.587
17.7846 11.368
17.7998 11.371
17.8150 11.317
17.8301 11.048
17.8453 10.756
17.8605 10.750
17.8757 10.696
17.8908 10.596
17.9060 10.474
17.9212 10.206
17.9364 10.350
17.9515 10.379
17.9667 10.389
17.9819 10.468
17.9971 10.376
18.0122 10.111
18.0274 10.077
18.0426 10.274
18.0578 10.261
18.0729 10.198
18.0881 10.205
18.1033 10.232
18.1185 10.020
18.1336 9.976
18.1488 9.772
18.1640 9.897
18.1792 10.143
18.1943 10.254
18.2095 10.065
18.2247 9.885
18.2399 9.910
18.2550 9.949
18.2702 9.843
18.2854 9.799
18.3006 9.889
18.3157 10.025
18.3309 9.964
18.3461 9.807
18.3613 9.874
18.3764 9.714
18.3916 9.654
18.4068 9.694
18.4220 9.837
18.4371 9.736
18.4523 9.535
18.4675 9.516
18.4827 9.575
18.4978 9.844
18.5130 9.934
18.5282 9.805
18.5434 9.648
18.5585 9.605
18.5737 9.602
18.5889 9.520
18.6041 9.830
18.6192 9.875
18.6344 9.729
18.6496 9.682
18.6648 9.595
18.6799 9.559
18.6951 9.680
18.7103 9.771
18.7255 9.679
18.7406 9.774
18.7558 10.125
18.7710 9.887
18.7862 9.837
18.8013 9.831
18.8165 9.828
18.8317 9.923
18.8469 9.822
18.8620 9.754
18.8772 9.865
18.8924 9.882
18.9076 9.865
18.9227 9.772
18.9379 9.602
18.9531 9.887
18.9683 10.153
18.9834 10.075
18.9986 9.963
19.0138 9.927
19.0290 10.048
19.0441 10.166
19.0593 10.214
19.0745 10.084
19.0897 10.195
19.1048 10.297
19.1200 10.394
19.1352 10.666
19.1504 10.666
19.1655 10.436
19.1807 10.289
19.1959 10.194
19.2111 10.434
19.2262 10.697
19.2414 10.708
19.2566 10.827
19.2718 10.889
19.2869 10.857
19.3021 10.949
19.3173 10.945
19.3325 10.752
19.3476 10.821
19.3628 10.870
19.3780 10.946
19.3932 11.050
19.4083 11.182
19.4235 11.190
19.4387 11.197
19.4539 11.357
19.4690 11.182
19.4842 11.289
19.4994 11.576
19.5146 11.431
19.5297 11.293
19.5449 11.321
19.5601 11.543
19.5753 11.438
19.5904 11.139
19.6056 11.543
19.6208 11.676
19.6360 11.373
19.6511 11.500
19.6663 11.734
19.6815 11.645
19.6967 11.610
19.7118 11.585
19.7270 11.470
19.7422 11.435
19.7574 11.728
19.7725 11.782
19.7877 11.708
19.8029 11.951
19.8180 12.106
19.8332 12.033
19.8484 12.019
19.8636 12.217
19.8787 12.315
19.8939 12.744
19.9091 13.031
19.9243 13.241
19.9394 13.829
19.9546 14.136
19.9698 14.164
19.9850 14.285
20.0001 14.138
20.0153 13.823
20.0305 13.623
20.0457 13.578
20.0608 13.570
20.0760 13.576
20.0912 13.657
20.1064 13.638
20.1215 13.430
20.1367 13.057
20.1519 12.820
20.1671 12.776
20.1822 12.783
20.1974 12.412
20.2126 12.410
20.2278 12.627
20.2429 12.530
20.2581 12.265
20.2733 11.965
20.2885 11.863
20.3036 11.803
20.3188 11.942
20.3340 11.794
20.3492 11.832
20.3643 12.010
20.3795 11.880
20.3947 11.759
20.4099 11.673
20.4250 11.800
20.4402 11.885
20.4554 12.024
20.4706 11.941
20.4857 11.789
20.5009 11.876
20.5161 11.942
20.5313 11.572
20.5464 11.486
20.5616 11.632
20.5768 11.600
20.5920 11.862
20.6071 11.511
20.6223 11.282
20.6375 11.093
20.6527 10.875
20.6678 10.729
20.6830 10.641
20.6982 10.732
20.7134 10.753
20.7285 10.627
20.7437 10.604
20.7589 10.588
20.7741 10.471
20.7892 10.320
20.8044 10.451
20.8196 10.420
20.8348 10.351
20.8499 10.066
20.8651 10.462
20.8803 10.393
20.8955 10.574
20.9106 10.212
20.9258 10.297
20.9410 10.294
20.9562 10.229
20.9713 10.206
20.9865 10.031
21.0017 9.902
21.0169 10.052
21.0320 10.017
21.0472 9.836
21.0624 9.804
21.0776 9.872
21.0927 9.829
21.1079 9.843
21.1231 9.364
21.1383 9.921
21.1534 9.722
21.1686 10.065
21.1838 9.792
21.1990 9.583
21.2141 9.475
21.2293 9.777
21.2445 9.541
21.2597 9.474
21.2748 9.761
21.2900 9.765
21.3052 9.666
21.3204 9.468
21.3355 9.582
21.3507 9.548
21.3659 9.473
21.3811 9.701
21.3962 9.674
21.4114 9.116
21.4266 9.314
21.4418 9.463
21.4569 9.557
21.4721 9.267
21.4873 9.285
21.5025 9.223
21.5176 9.215
21.5328 9.166
21.5480 9.302
21.5632 9.858
21.5783 9.404
21.5935 9.207
21.6087 9.175
21.6239 9.346
21.6390 9.188
21.6542 9.278
21.6694 9.407
21.6846 9.352
21.6997 9.132
21.7149 9.197
21.7301 8.914
21.7453 8.835
21.7604 9.053
21.7756 9.095
21.7908 8.950
21.8060 9.055
21.8211 9.038
21.8363 9.159
21.8515 9.246
21.8667 8.854
21.8818 9.061
21.8970 9.031
21.9122 9.006
21.9274 9.098
21.9425 8.802
21.9577 8.876
21.9729 9.104
21.9881 9.004
22.0032 8.983
22.0184 8.870
22.0336 8.904
22.0488 8.907
22.0639 8.690
22.0791 8.820
22.0943 8.891
22.1095 8.710
22.1246 8.798
22.1398 8.655
22.1550 8.515
22.1702 8.717
22.1853 8.685
22.2005 8.560
22.2157 8.634
22.2309 8.646
22.2460 8.684
22.2612 8.755
22.2764 8.505
22.2916 8.518
22.3067 8.726
22.3219 8.615
22.3371 8.519
22.3523 8.530
22.3674 8.423
22.3826 8.315
22.3978 8.607
22.4130 8.407
22.4281 8.133
22.4433 8.623
22.4585 8.516
22.4737 8.091
22.4888 8.645
22.5040 8.551
22.5192 8.308
22.5344 8.256
22.5495 8.175
22.5647 8.175
22.5799 8.268
22.5951 8.364
22.6102 8.201
22.6254 8.513
22.6406 8.415
22.6558 8.232
22.6709 8.138
22.6861 8.081
22.7013 8.171
22.7165 8.009
22.7316 6.664
