'Id: "" Comment: "" Operator: "Lab Manager" Anode: "Mo" Scantype: "Still (Eiger2R_500K (1D mode))" TimePerStep: "300" X: "11.8" Y: "9.4" Z: "11.284" 
7.2532 19.294
7.2684 18.942
7.2836 19.093
7.2987 19.010
7.3139 18.617
7.3291 18.843
7.3443 18.872
7.3594 19.230
7.3746 18.788
7.3898 19.487
7.4050 19.368
7.4201 19.406
7.4353 19.297
7.4505 19.467
7.4657 19.593
7.4808 19.738
7.4960 19.544
7.5112 19.507
7.5264 19.860
7.5415 19.836
7.5567 19.866
7.5719 20.078
7.5871 19.871
7.6022 19.974
7.6174 20.142
7.6326 20.234
7.6478 20.337
7.6629 20.330
7.6781 20.521
7.6933 20.569
7.7085 20.432
7.7236 20.281
7.7388 20.306
7.7540 20.549
7.7692 20.626
7.7843 20.995
7.7995 21.005
7.8147 20.508
7.8299 20.295
7.8450 20.470
7.8602 20.737
7.8754 20.694
7.8905 20.744
7.9057 20.976
7.9209 21.327
7.9361 21.056
7.9512 20.950
7.9664 21.201
7.9816 20.995
7.9968 20.973
8.0119 20.937
8.0271 21.273
8.0423 21.222
8.0575 21.025
8.0726 21.271
8.0878 21.098
8.1030 21.588
8.1182 21.350
8.1333 21.414
8.1485 21.551
8.1637 21.653
8.1789 21.764
8.1940 22.040
8.2092 21.777
8.2244 21.494
8.2396 21.607
8.2547 21.769
8.2699 22.077
8.2851 21.979
8.3003 21.311
8.3154 21.767
8.3306 22.137
8.3458 21.729
8.3610 21.675
8.3761 22.025
8.3913 21.707
8.4065 22.124
8.4217 21.713
8.4368 22.102
8.4520 21.834
8.4672 22.450
8.4824 22.308
8.4975 21.917
8.5127 22.173
8.5279 22.208
8.5431 22.329
8.5582 22.476
8.5734 22.496
8.5886 22.299
8.6038 22.461
8.6189 22.807
8.6341 22.607
8.6493 22.533
8.6645 22.478
8.6796 22.324
8.6948 22.296
8.7100 22.749
8.7252 22.588
8.7403 23.154
8.7555 22.775
8.7707 22.434
8.7859 22.302
8.8010 23.091
8.8162 22.920
8.8314 22.361
8.8466 22.777
8.8617 22.122
8.8769 22.595
8.8921 22.679
8.9073 22.342
8.9224 22.600
8.9376 22.743
8.9528 22.508
8.9680 23.038
8.9831 23.203
8.9983 22.488
9.0135 22.959
9.0287 22.411
9.0438 22.744
9.0590 22.861
9.0742 22.861
9.0894 22.736
9.1045 22.903
9.1197 23.012
9.1349 23.198
9.1501 22.992
9.1652 22.953
9.1804 23.106
9.1956 23.066
9.2108 22.806
9.2259 23.109
9.2411 23.329
9.2563 22.816
9.2715 22.952
9.2866 23.267
9.3018 23.215
9.3170 23.083
9.3322 23.309
9.3473 23.327
9.3625 23.294
9.3777 23.335
9.3929 23.499
9.4080 23.104
9.4232 23.270
9.4384 23.321
9.4536 23.149
9.4687 23.362
9.4839 23.204
9.4991 23.204
9.5143 23.019
9.5294 23.009
9.5446 22.998
9.5598 23.249
9.5750 23.347
9.5901 22.980
9.6053 23.313
9.6205 23.798
9.6357 23.512
9.6508 23.563
9.6660 23.904
9.6812 24.071
9.6964 24.064
9.7115 24.254
9.7267 24.466
9.7419 24.400
9.7571 24.251
9.7722 24.064
9.7874 23.944
9.8026 23.804
9.8178 23.702
9.8329 23.321
9.8481 23.114
9.8633 23.154
9.8785 22.788
9.8936 22.907
9.9088 23.531
9.9240 23.217
9.9392 23.107
9.9543 23.633
9.9695 23.719
9.9847 23.287
9.9999 23.333
10.0150 23.244
10.0302 22.980
10.0454 23.152
10.0606 23.225
10.0757 23.370
10.0909 23.570
10.1061 23.624
10.1213 23.439
10.1364 23.286
10.1516 23.642
10.1668 23.606
10.1820 23.221
10.1971 23.165
10.2123 23.365
10.2275 23.645
10.2427 23.806
10.2578 23.816
10.2730 23.584
10.2882 23.470
10.3034 23.437
10.3185 23.313
10.3337 23.299
10.3489 23.110
10.3641 23.027
10.3792 23.210
10.3944 22.995
10.4096 22.594
10.4248 22.877
10.4399 22.944
10.4551 23.009
10.4703 22.936
10.4855 22.937
10.5006 22.973
10.5158 22.671
10.5310 22.456
10.5462 22.721
10.5613 22.767
10.5765 22.778
10.5917 22.570
10.6069 22.519
10.6220 22.547
10.6372 22.665
10.6524 22.321
10.6676 22.873
10.6827 22.739
10.6979 22.255
10.7131 22.637
10.7283 22.792
10.7434 22.637
10.7586 22.289
10.7738 22.595
10.7890 22.682
10.8041 22.243
10.8193 22.354
10.8345 22.126
10.8497 22.148
10.8648 21.980
10.8800 22.424
10.8952 22.250
10.9104 22.264
10.9255 21.793
10.9407 21.911
10.9559 21.840
10.9711 22.040
10.9862 22.290
11.0014 22.109
11.0166 22.374
11.0318 22.079
11.0469 22.331
11.0621 22.322
11.0773 21.956
11.0925 21.852
11.1076 21.841
11.1228 22.054
11.1380 21.975
11.1532 22.000
11.1683 21.821
11.1835 21.938
11.1987 21.975
11.2139 22.193
11.2290 21.893
11.2442 21.970
11.2594 22.074
11.2746 21.656
11.2897 21.780
11.3049 21.466
11.3201 21.618
11.3353 21.741
11.3504 21.628
11.3656 21.693
11.3808 21.827
11.3960 21.573
11.4111 21.668
11.4263 21.600
11.4415 21.437
11.4567 21.629
11.4718 21.258
11.4870 20.931
11.5022 21.334
11.5174 21.159
11.5325 21.025
11.5477 20.957
11.5629 21.241
11.5781 21.061
11.5932 20.652
11.6084 20.594
11.6236 20.979
11.6388 20.722
11.6539 20.637
11.6691 20.586
11.6843 20.586
11.6995 20.404
11.7146 20.297
11.7298 20.321
11.7450 20.567
11.7602 20.697
11.7753 20.285
11.7905 20.554
11.8057 20.280
11.8209 19.927
11.8360 20.184
11.8512 20.168
11.8664 19.988
11.8816 20.196
11.8967 19.968
11.9119 19.630
11.9271 19.588
11.9423 19.578
11.9574 19.691
11.9726 19.713
11.9878 19.347
12.0030 19.359
12.0181 19.601
12.0333 19.302
12.0485 19.314
12.0637 19.001
12.0788 18.828
12.0940 18.905
12.1092 18.858
12.1244 18.947
12.1395 18.888
12.1547 18.404
12.1699 18.375
12.1851 18.404
12.2002 18.595
12.2154 18.558
12.2306 18.166
12.2458 18.088
12.2609 18.089
12.2761 17.944
12.2913 17.907
12.3065 17.818
12.3216 17.684
12.3368 17.326
12.3520 17.369
12.3672 17.562
12.3823 17.743
12.3975 17.575
12.4127 17.293
12.4279 17.200
12.4430 17.236
12.4582 17.141
12.4734 17.160
12.4886 17.307
12.5037 17.123
12.5189 16.995
12.5341 16.819
12.5493 16.509
12.5644 16.388
12.5796 16.605
12.5948 16.627
12.6100 16.481
12.6251 16.191
12.6403 16.115
12.6555 16.173
12.6707 16.075
12.6858 15.548
12.7010 15.702
12.7162 15.749
12.7314 15.657
12.7465 15.640
12.7617 15.498
12.7769 15.543
12.7921 15.378
12.8072 15.297
12.8224 15.426
12.8376 15.627
12.8528 15.751
12.8679 15.343
12.8831 14.782
12.8983 14.676
12.9135 14.758
12.9286 14.663
12.9438 14.422
12.9590 14.593
12.9742 14.817
12.9893 14.509
13.0045 14.307
13.0197 14.329
13.0349 14.283
13.0500 14.438
13.0652 14.399
13.0804 13.885
13.0956 13.985
13.1107 14.192
13.1259 13.940
13.1411 13.882
13.1563 13.873
13.1714 13.771
13.1866 13.494
13.2018 13.508
13.2170 13.589
13.2321 13.340
13.2473 13.426
13.2625 13.495
13.2777 13.359
13.2928 13.420
13.3080 13.357
13.3232 13.364
13.3384 13.405
13.3535 13.272
13.3687 13.174
13.3839 13.324
13.3991 13.441
13.4142 13.302
13.4294 13.290
13.4446 12.836
13.4598 12.617
13.4749 12.547
13.4901 12.648
13.5053 12.767
13.5205 12.663
13.5356 12.584
13.5508 12.559
13.5660 12.334
13.5812 12.168
13.5963 12.257
13.6115 12.533
13.6267 12.598
13.6419 12.320
13.6570 12.131
13.6722 12.141
13.6874 12.069
13.7026 11.963
13.7177 12.254
13.7329 12.199
13.7481 12.335
13.7633 12.058
13.7784 12.142
13.7936 12.288
13.8088 12.325
13.8239 12.234
13.8391 12.487
13.8543 12.528
13.8695 12.466
13.8846 12.155
13.8998 12.225
13.9150 12.469
13.9302 12.317
13.9453 12.154
13.9605 12.050
13.9757 11.885
13.9909 11.768
14.0060 11.817
14.0212 11.756
14.0364 11.652
14.0516 11.397
14.0667 11.392
14.0819 11.747
14.0971 11.757
14.1123 11.528
14.1274 11.501
14.1426 11.475
14.1578 11.750
14.1730 11.493
14.1881 11.809
14.2033 11.586
14.2185 11.720
14.2337 12.038
14.2488 11.678
14.2640 11.631
14.2792 11.890
14.2944 11.791
14.3095 12.096
14.3247 12.262
14.3399 12.022
14.3551 12.377
14.3702 12.799
14.3854 12.799
14.4006 12.458
14.4158 12.566
14.4309 12.590
14.4461 11.960
14.4613 12.336
14.4765 12.013
14.4916 12.002
14.5068 11.753
14.5220 11.274
14.5372 11.498
14.5523 11.615
14.5675 11.410
14.5827 11.489
14.5979 11.339
14.6130 11.175
14.6282 11.192
14.6434 11.189
14.6586 10.904
14.6737 11.270
14.6889 11.282
14.7041 11.329
14.7193 10.791
14.7344 10.796
14.7496 10.930
14.7648 10.809
14.7800 10.970
14.7951 11.038
14.8103 10.702
14.8255 10.615
14.8407 10.322
14.8558 10.758
14.8710 10.577
14.8862 10.817
14.9014 10.683
14.9165 10.498
14.9317 10.546
14.9469 10.880
14.9621 10.714
14.9772 10.674
14.9924 10.935
15.0076 10.579
15.0228 10.556
15.0379 10.340
15.0531 10.252
15.0683 10.284
15.0835 10.327
15.0986 10.647
15.1138 10.456
15.1290 10.538
15.1442 10.742
15.1593 10.675
15.1745 10.817
15.1897 10.494
15.2049 10.334
15.2200 10.277
15.2352 10.486
15.2504 10.356
15.2656 10.168
15.2807 9.986
15.2959 10.066
15.3111 10.105
15.3263 10.470
15.3414 10.473
15.3566 10.575
15.3718 10.356
15.3870 10.362
15.4021 10.560
15.4173 10.478
15.4325 10.370
15.4477 10.551
15.4628 10.305
15.4780 10.343
15.4932 10.661
15.5084 10.377
15.5235 10.148
15.5387 10.363
15.5539 10.296
15.5691 10.176
15.5842 10.292
15.5994 10.146
15.6146 10.147
15.6298 10.113
15.6449 10.020
15.6601 10.188
15.6753 10.247
15.6905 10.091
15.7056 10.061
15.7208 9.845
15.7360 10.034
15.7512 10.045
15.7663 10.085
15.7815 10.115
15.7967 10.033
15.8119 9.797
15.8270 10.009
15.8422 9.949
15.8574 9.620
15.8726 9.968
15.8877 9.561
15.9029 9.664
15.9181 9.928
15.9333 9.778
15.9484 9.748
15.9636 9.973
15.9788 10.168
15.9940 10.028
16.0091 9.862
16.0243 9.827
16.0395 9.766
16.0547 9.904
16.0698 10.027
16.0850 9.664
16.1002 9.607
16.1154 9.718
16.1305 10.031
16.1457 9.861
16.1609 9.974
16.1761 9.515
16.1912 9.300
16.2064 9.852
16.2216 10.014
16.2368 9.789
16.2519 10.033
16.2671 10.157
16.2823 9.920
16.2975 9.997
16.3126 9.866
16.3278 9.791
16.3430 9.928
16.3582 9.882
16.3733 10.136
16.3885 10.130
16.4037 10.066
16.4189 9.883
16.4340 10.125
16.4492 10.033
16.4644 10.027
16.4796 9.752
16.4947 9.891
16.5099 9.897
16.5251 9.711
16.5403 9.792
16.5554 9.895
16.5706 9.588
16.5858 9.660
16.6010 9.846
16.6161 9.891
16.6313 9.866
16.6465 9.772
16.6617 10.074
16.6768 10.032
16.6920 9.752
16.7072 9.889
16.7224 9.967
16.7375 10.065
16.7527 10.219
16.7679 10.016
16.7831 10.002
16.7982 10.054
16.8134 10.282
16.8286 10.374
16.8438 9.900
16.8589 9.941
16.8741 10.146
16.8893 10.107
16.9045 9.814
16.9196 9.563
16.9348 9.841
16.9500 10.102
16.9652 9.977
16.9803 9.886
16.9955 9.890
17.0107 10.011
17.0259 10.048
17.0410 10.129
17.0562 9.985
17.0714 10.032
17.0866 10.334
17.1017 10.504
17.1169 10.556
17.1321 10.777
17.1473 11.293
17.1624 11.768
17.1776 12.361
17.1928 13.219
17.2080 14.157
17.2231 15.193
17.2383 16.628
17.2535 17.994
17.2687 18.795
17.2838 18.754
17.2990 18.056
17.3142 17.406
17.3294 16.718
17.3445 16.064
17.3597 15.982
17.3749 16.134
17.3901 15.299
17.4052 14.206
17.4204 13.378
17.4356 12.456
17.4508 12.071
17.4659 11.947
17.4811 11.555
17.4963 11.423
17.5115 11.363
17.5266 11.205
17.5418 11.142
17.5570 11.138
17.5722 11.405
17.5873 11.284
17.6025 11.278
17.6177 11.168
17.6329 10.796
17.6480 10.508
17.6632 10.296
17.6784 10.597
17.6936 10.758
17.7087 10.608
17.7239 10.455
17.7391 10.465
17.7543 10.453
17.7694 10.245
17.7846 10.232
17.7998 10.023
17.8150 9.904
17.8301 10.059
17.8453 9.978
17.8605 9.938
17.8757 10.199
17.8908 10.312
17.9060 10.410
17.9212 10.487
17.9364 10.274
17.9515 10.318
17.9667 10.448
17.9819 10.372
17.9971 10.256
18.0122 10.232
18.0274 10.248
18.0426 10.018
18.0578 10.063
18.0729 9.959
18.0881 9.807
18.1033 10.020
18.1185 10.030
18.1336 10.080
18.1488 10.051
18.1640 9.841
18.1792 9.849
18.1943 9.946
18.2095 10.039
18.2247 10.062
18.2399 10.162
18.2550 9.979
18.2702 9.900
18.2854 9.838
18.3006 9.815
18.3157 9.808
18.3309 9.816
18.3461 9.865
18.3613 10.022
18.3764 9.848
18.3916 9.715
18.4068 9.837
18.4220 9.897
18.4371 10.040
18.4523 9.963
18.4675 9.764
18.4827 9.624
18.4978 9.829
18.5130 9.946
18.5282 9.909
18.5434 9.796
18.5585 9.997
18.5737 10.007
18.5889 9.693
18.6041 9.706
18.6192 9.783
18.6344 9.674
18.6496 9.597
18.6648 9.690
18.6799 9.805
18.6951 10.028
18.7103 9.873
18.7255 9.716
18.7406 9.604
18.7558 9.897
18.7710 9.808
18.7862 9.757
18.8013 9.679
18.8165 9.549
18.8317 9.777
18.8469 10.060
18.8620 10.104
18.8772 10.098
18.8924 9.990
18.9076 9.804
18.9227 9.881
18.9379 10.000
18.9531 9.966
18.9683 9.988
18.9834 9.849
18.9986 10.025
19.0138 10.115
19.0290 9.995
19.0441 10.118
19.0593 10.226
19.0745 10.430
19.0897 10.399
19.1048 10.292
19.1200 10.387
19.1352 10.345
19.1504 10.391
19.1655 10.479
19.1807 10.506
19.1959 10.745
19.2111 10.801
19.2262 10.843
19.2414 10.973
19.2566 10.931
19.2718 10.844
19.2869 10.832
19.3021 10.880
19.3173 11.135
19.3325 11.086
19.3476 11.139
19.3628 11.432
19.3780 11.093
19.3932 10.981
19.4083 11.349
19.4235 11.260
19.4387 11.130
19.4539 11.066
19.4690 11.173
19.4842 11.264
19.4994 11.348
19.5146 11.612
19.5297 11.763
19.5449 11.941
19.5601 11.869
19.5753 11.770
19.5904 11.640
19.6056 11.687
19.6208 11.789
19.6360 11.737
19.6511 11.813
19.6663 11.659
19.6815 11.656
19.6967 11.380
19.7118 11.339
19.7270 12.007
19.7422 12.058
19.7574 11.690
19.7725 11.744
19.7877 11.941
19.8029 11.757
19.8180 11.758
19.8332 12.081
19.8484 12.327
19.8636 12.483
19.8787 12.615
19.8939 12.796
19.9091 12.859
19.9243 13.111
19.9394 13.584
19.9546 14.062
19.9698 14.429
19.9850 14.447
20.0001 14.224
20.0153 14.051
20.0305 13.705
20.0457 13.509
20.0608 13.614
20.0760 13.591
20.0912 13.722
20.1064 13.744
20.1215 13.480
20.1367 13.365
20.1519 13.348
20.1671 13.064
20.1822 12.979
20.1974 12.943
20.2126 12.832
20.2278 13.014
20.2429 12.786
20.2581 12.370
20.2733 11.895
20.2885 11.926
20.3036 11.829
20.3188 12.054
20.3340 12.021
20.3492 11.594
20.3643 11.665
20.3795 11.472
20.3947 11.062
20.4099 11.129
20.4250 10.829
20.4402 10.834
20.4554 10.757
20.4706 10.441
20.4857 10.743
20.5009 10.834
20.5161 10.709
20.5313 10.445
20.5464 10.659
20.5616 10.729
20.5768 10.580
20.5920 10.436
20.6071 10.714
20.6223 10.552
20.6375 10.615
20.6527 10.551
20.6678 10.415
20.6830 10.632
20.6982 10.450
20.7134 10.322
20.7285 10.544
20.7437 10.330
20.7589 10.574
20.7741 10.361
20.7892 10.188
20.8044 10.299
20.8196 10.195
20.8348 10.079
20.8499 9.925
20.8651 10.088
20.8803 9.811
20.8955 10.229
20.9106 10.134
20.9258 9.948
20.9410 10.288
20.9562 10.003
20.9713 9.831
20.9865 10.226
21.0017 10.097
21.0169 10.182
21.0320 10.117
21.0472 9.821
21.0624 10.315
21.0776 9.873
21.0927 9.956
21.1079 9.801
21.1231 9.929
21.1383 9.885
21.1534 9.534
21.1686 9.427
21.1838 9.663
21.1990 9.829
21.2141 9.877
21.2293 9.606
21.2445 9.894
21.2597 9.834
21.2748 9.810
21.2900 9.463
21.3052 9.987
21.3204 9.483
21.3355 9.836
21.3507 9.435
21.3659 9.525
21.3811 9.660
21.3962 9.511
21.4114 9.663
21.4266 9.652
21.4418 9.444
21.4569 9.509
21.4721 9.112
21.4873 9.307
21.5025 9.366
21.5176 9.296
21.5328 9.191
21.5480 9.251
21.5632 9.050
21.5783 9.248
21.5935 9.154
21.6087 9.146
21.6239 9.404
21.6390 9.327
21.6542 9.351
21.6694 9.317
21.6846 9.246
21.6997 9.022
21.7149 9.134
21.7301 8.931
21.7453 8.985
21.7604 9.091
21.7756 8.828
21.7908 9.121
21.8060 9.085
21.8211 8.911
21.8363 8.945
21.8515 8.866
21.8667 9.033
21.8818 9.139
21.8970 9.002
21.9122 9.081
21.9274 8.915
21.9425 9.013
21.9577 9.005
21.9729 8.814
21.9881 8.768
22.0032 8.819
22.0184 8.904
22.0336 8.853
22.0488 8.811
22.0639 8.729
22.0791 8.663
22.0943 8.794
22.1095 8.795
22.1246 8.638
22.1398 8.607
22.1550 8.615
22.1702 8.668
22.1853 8.794
22.2005 8.637
22.2157 8.553
22.2309 8.454
22.2460 8.532
22.2612 8.736
22.2764 8.773
22.2916 8.719
22.3067 8.793
22.3219 8.369
22.3371 8.554
22.3523 8.762
22.3674 8.546
22.3826 8.500
22.3978 8.592
22.4130 8.999
22.4281 8.756
22.4433 8.714
22.4585 8.608
22.4737 8.516
22.4888 8.621
22.5040 8.721
22.5192 8.471
22.5344 8.427
22.5495 8.695
22.5647 8.504
22.5799 8.483
22.5951 8.445
22.6102 8.479
22.6254 8.718
22.6406 8.666
22.6558 8.540
22.6709 8.487
22.6861 8.579
22.7013 8.425
22.7165 8.000
22.7316 6.442
