'Id: "" Comment: "" Operator: "Lab Manager" Anode: "Mo" Scantype: "Still (Eiger2R_500K (1D mode))" TimePerStep: "300" X: "11.8" Y: "9.4" Z: "11.284" 
7.2532 18.447
7.2684 18.742
7.2836 18.750
7.2987 19.131
7.3139 19.293
7.3291 18.773
7.3443 19.122
7.3594 19.108
7.3746 18.538
7.3898 18.992
7.4050 19.430
7.4201 19.682
7.4353 19.212
7.4505 19.376
7.4657 19.342
7.4808 19.616
7.4960 19.434
7.5112 19.393
7.5264 19.385
7.5415 19.766
7.5567 19.860
7.5719 19.515
7.5871 19.760
7.6022 20.166
7.6174 19.985
7.6326 19.830
7.6478 20.225
7.6629 19.950
7.6781 19.878
7.6933 20.085
7.7085 20.236
7.7236 20.300
7.7388 20.306
7.7540 20.406
7.7692 20.557
7.7843 20.605
7.7995 20.563
7.8147 20.437
7.8299 20.239
7.8450 20.188
7.8602 20.335
7.8754 20.454
7.8905 20.656
7.9057 20.676
7.9209 20.727
7.9361 20.626
7.9512 20.640
7.9664 20.838
7.9816 20.743
7.9968 20.909
8.0119 21.088
8.0271 21.321
8.0423 20.994
8.0575 20.796
8.0726 20.705
8.0878 20.899
8.1030 21.036
8.1182 20.874
8.1333 20.750
8.1485 21.028
8.1637 21.423
8.1789 21.601
8.1940 21.316
8.2092 21.617
8.2244 20.977
8.2396 21.294
8.2547 21.850
8.2699 21.589
8.2851 21.670
8.3003 21.602
8.3154 21.576
8.3306 21.377
8.3458 21.716
8.3610 21.894
8.3761 21.695
8.3913 21.476
8.4065 21.520
8.4217 22.145
8.4368 21.963
8.4520 21.792
8.4672 22.048
8.4824 22.239
8.4975 21.953
8.5127 22.223
8.5279 21.944
8.5431 21.943
8.5582 22.462
8.5734 21.706
8.5886 22.295
8.6038 21.847
8.6189 22.386
8.6341 22.104
8.6493 21.797
8.6645 22.359
8.6796 22.131
8.6948 22.216
8.7100 21.983
8.7252 22.125
8.7403 22.449
8.7555 22.243
8.7707 22.297
8.7859 22.282
8.8010 22.331
8.8162 22.434
8.8314 21.784
8.8466 22.334
8.8617 22.143
8.8769 22.426
8.8921 22.577
8.9073 22.667
8.9224 22.388
8.9376 22.758
8.9528 22.655
8.9680 22.800
8.9831 22.630
8.9983 23.076
9.0135 22.569
9.0287 22.821
9.0438 22.687
9.0590 23.004
9.0742 22.416
9.0894 22.699
9.1045 22.490
9.1197 22.449
9.1349 22.579
9.1501 23.180
9.1652 22.518
9.1804 22.565
9.1956 22.654
9.2108 22.437
9.2259 22.968
9.2411 22.821
9.2563 22.812
9.2715 22.663
9.2866 22.511
9.3018 22.825
9.3170 22.708
9.3322 22.691
9.3473 22.816
9.3625 22.529
9.3777 22.664
9.3929 22.719
9.4080 22.731
9.4232 23.108
9.4384 23.172
9.4536 22.724
9.4687 22.973
9.4839 23.216
9.4991 23.060
9.5143 23.006
9.5294 23.188
9.5446 23.102
9.5598 22.838
9.5750 22.657
9.5901 22.928
9.6053 23.176
9.6205 23.121
9.6357 23.054
9.6508 23.236
9.6660 23.503
9.6812 23.734
9.6964 23.667
9.7115 23.653
9.7267 23.766
9.7419 23.941
9.7571 24.143
9.7722 23.821
9.7874 23.568
9.8026 23.862
9.8178 23.605
9.8329 23.356
9.8481 23.486
9.8633 23.444
9.8785 23.157
9.8936 22.891
9.9088 22.659
9.9240 22.991
9.9392 22.943
9.9543 22.867
9.9695 23.293
9.9847 23.495
9.9999 23.164
10.0150 22.912
10.0302 23.101
10.0454 22.936
10.0606 22.857
10.0757 23.111
10.0909 23.429
10.1061 23.553
10.1213 23.584
10.1364 23.343
10.1516 23.464
10.1668 23.181
10.1820 22.903
10.1971 23.052
10.2123 23.049
10.2275 23.061
10.2427 22.944
10.2578 22.750
10.2730 22.798
10.2882 22.840
10.3034 22.903
10.3185 22.654
10.3337 22.594
10.3489 22.785
10.3641 22.661
10.3792 22.301
10.3944 22.592
10.4096 22.509
10.4248 22.659
10.4399 22.840
10.4551 22.847
10.4703 22.597
10.4855 22.679
10.5006 22.764
10.5158 23.095
10.5310 22.830
10.5462 22.798
10.5613 22.609
10.5765 22.709
10.5917 22.622
10.6069 22.282
10.6220 22.298
10.6372 22.386
10.6524 22.337
10.6676 22.508
10.6827 22.475
10.6979 22.157
10.7131 22.465
10.7283 22.294
10.7434 22.038
10.7586 22.452
10.7738 22.445
10.7890 22.207
10.8041 22.160
10.8193 22.501
10.8345 22.220
10.8497 22.083
10.8648 22.280
10.8800 22.023
10.8952 22.176
10.9104 22.568
10.9255 22.327
10.9407 22.214
10.9559 21.889
10.9711 21.731
10.9862 21.987
11.0014 22.142
11.0166 22.038
11.0318 22.087
11.0469 21.850
11.0621 21.611
11.0773 21.446
11.0925 22.056
11.1076 21.788
11.1228 21.635
11.1380 21.529
11.1532 21.585
11.1683 21.628
11.1835 21.680
11.1987 21.682
11.2139 21.897
11.2290 21.708
11.2442 21.733
11.2594 21.795
11.2746 21.485
11.2897 21.402
11.3049 21.512
11.3201 21.621
11.3353 21.424
11.3504 21.154
11.3656 21.314
11.3808 21.528
11.3960 21.460
11.4111 21.514
11.4263 21.621
11.4415 21.094
11.4567 21.230
11.4718 21.102
11.4870 21.363
11.5022 21.174
11.5174 21.035
11.5325 20.943
11.5477 20.981
11.5629 21.021
11.5781 20.762
11.5932 20.838
11.6084 20.535
11.6236 20.681
11.6388 21.129
11.6539 20.953
11.6691 20.735
11.6843 20.643
11.6995 20.741
11.7146 20.610
11.7298 20.352
11.7450 20.540
11.7602 20.446
11.7753 20.718
11.7905 20.367
11.8057 19.852
11.8209 20.076
11.8360 19.753
11.8512 19.704
11.8664 19.959
11.8816 19.692
11.8967 19.816
11.9119 19.467
11.9271 19.424
11.9423 19.520
11.9574 19.521
11.9726 19.610
11.9878 19.400
12.0030 19.296
12.0181 19.187
12.0333 19.206
12.0485 19.007
12.0637 18.717
12.0788 19.221
12.0940 18.759
12.1092 18.825
12.1244 18.719
12.1395 18.213
12.1547 18.506
12.1699 18.693
12.1851 18.329
12.2002 17.933
12.2154 18.154
12.2306 17.987
12.2458 17.754
12.2609 17.553
12.2761 17.771
12.2913 17.781
12.3065 17.865
12.3216 17.638
12.3368 17.450
12.3520 17.451
12.3672 17.166
12.3823 17.183
12.3975 17.276
12.4127 17.304
12.4279 17.107
12.4430 17.112
12.4582 16.955
12.4734 16.984
12.4886 16.823
12.5037 16.571
12.5189 16.637
12.5341 16.535
12.5493 16.298
12.5644 16.378
12.5796 16.210
12.5948 16.227
12.6100 16.132
12.6251 15.849
12.6403 15.979
12.6555 16.013
12.6707 15.585
12.6858 15.605
12.7010 15.909
12.7162 15.828
12.7314 15.280
12.7465 15.257
12.7617 15.339
12.7769 15.066
12.7921 15.154
12.8072 14.968
12.8224 14.740
12.8376 14.948
12.8528 15.035
12.8679 14.831
12.8831 14.782
12.8983 14.700
12.9135 14.509
12.9286 14.685
12.9438 14.491
12.9590 14.272
12.9742 14.198
12.9893 14.141
13.0045 14.273
13.0197 14.020
13.0349 14.051
13.0500 14.131
13.0652 14.015
13.0804 14.105
13.0956 13.931
13.1107 13.824
13.1259 13.763
13.1411 13.621
13.1563 13.696
13.1714 13.612
13.1866 13.663
13.2018 13.591
13.2170 13.422
13.2321 13.474
13.2473 13.269
13.2625 13.190
13.2777 13.168
13.2928 13.224
13.3080 13.287
13.3232 13.146
13.3384 13.114
13.3535 13.110
13.3687 13.008
13.3839 13.074
13.3991 13.218
13.4142 13.271
13.4294 13.145
13.4446 12.753
13.4598 12.690
13.4749 12.758
13.4901 12.648
13.5053 12.527
13.5205 12.575
13.5356 12.420
13.5508 12.171
13.5660 12.481
13.5812 12.392
13.5963 12.359
13.6115 12.182
13.6267 12.087
13.6419 11.975
13.6570 12.106
13.6722 12.098
13.6874 12.179
13.7026 12.052
13.7177 12.115
13.7329 12.119
13.7481 12.132
13.7633 12.074
13.7784 12.086
13.7936 11.991
13.8088 12.302
13.8239 12.537
13.8391 12.376
13.8543 12.498
13.8695 12.404
13.8846 12.397
13.8998 12.405
13.9150 12.262
13.9302 12.173
13.9453 12.140
13.9605 11.704
13.9757 11.852
13.9909 11.888
14.0060 11.844
14.0212 11.874
14.0364 11.803
14.0516 11.487
14.0667 11.719
14.0819 11.886
14.0971 11.409
14.1123 11.647
14.1274 11.512
14.1426 11.665
14.1578 11.826
14.1730 11.517
14.1881 11.974
14.2033 11.585
14.2185 11.726
14.2337 11.598
14.2488 11.701
14.2640 11.784
14.2792 11.828
14.2944 11.761
14.3095 11.948
14.3247 12.381
14.3399 12.722
14.3551 12.569
14.3702 12.697
14.3854 12.635
14.4006 12.869
14.4158 12.980
14.4309 12.872
14.4461 12.638
14.4613 12.395
14.4765 12.536
14.4916 12.105
14.5068 12.024
14.5220 11.763
14.5372 11.459
14.5523 11.021
14.5675 10.992
14.5827 11.171
14.5979 11.311
14.6130 10.882
14.6282 10.620
14.6434 10.589
14.6586 10.889
14.6737 10.793
14.6889 10.635
14.7041 10.685
14.7193 10.581
14.7344 10.679
14.7496 10.508
14.7648 10.699
14.7800 10.687
14.7951 10.611
14.8103 10.474
14.8255 10.679
14.8407 10.500
14.8558 10.519
14.8710 10.680
14.8862 10.152
14.9014 10.354
14.9165 10.609
14.9317 10.597
14.9469 10.384
14.9621 10.639
14.9772 9.929
14.9924 10.057
15.0076 10.445
15.0228 10.751
15.0379 10.226
15.0531 10.415
15.0683 10.409
15.0835 10.075
15.0986 10.365
15.1138 10.083
15.1290 9.963
15.1442 10.075
15.1593 10.400
15.1745 10.176
15.1897 9.752
15.2049 9.825
15.2200 9.965
15.2352 9.921
15.2504 9.896
15.2656 10.214
15.2807 10.343
15.2959 10.127
15.3111 9.792
15.3263 10.282
15.3414 10.105
15.3566 10.105
15.3718 10.158
15.3870 10.006
15.4021 10.143
15.4173 10.144
15.4325 10.176
15.4477 10.165
15.4628 10.046
15.4780 10.129
15.4932 10.084
15.5084 9.964
15.5235 10.107
15.5387 9.896
15.5539 10.075
15.5691 9.897
15.5842 9.955
15.5994 9.521
15.6146 9.594
15.6298 9.835
15.6449 9.872
15.6601 9.801
15.6753 9.625
15.6905 9.958
15.7056 9.747
15.7208 9.567
15.7360 9.715
15.7512 9.692
15.7663 9.761
15.7815 9.683
15.7967 9.589
15.8119 9.611
15.8270 9.770
15.8422 9.507
15.8574 9.834
15.8726 9.520
15.8877 9.407
15.9029 9.514
15.9181 9.534
15.9333 9.476
15.9484 9.447
15.9636 9.537
15.9788 9.431
15.9940 9.419
16.0091 9.535
16.0243 9.332
16.0395 9.360
16.0547 9.673
16.0698 9.349
16.0850 9.485
16.1002 9.528
16.1154 9.725
16.1305 9.649
16.1457 9.511
16.1609 9.678
16.1761 9.539
16.1912 9.663
16.2064 9.564
16.2216 9.696
16.2368 9.975
16.2519 10.026
16.2671 9.634
16.2823 9.484
16.2975 9.693
16.3126 9.822
16.3278 9.885
16.3430 9.600
16.3582 9.496
16.3733 9.768
16.3885 9.835
16.4037 9.728
16.4189 9.697
16.4340 9.445
16.4492 9.377
16.4644 9.650
16.4796 9.697
16.4947 9.870
16.5099 9.674
16.5251 9.589
16.5403 9.651
16.5554 9.435
16.5706 9.389
16.5858 9.392
16.6010 9.535
16.6161 9.636
16.6313 9.716
16.6465 9.544
16.6617 9.462
16.6768 9.684
16.6920 9.910
16.7072 9.625
16.7224 9.733
16.7375 9.933
16.7527 9.914
16.7679 9.658
16.7831 9.766
16.7982 10.020
16.8134 9.838
16.8286 9.674
16.8438 9.756
16.8589 9.684
16.8741 9.617
16.8893 9.727
16.9045 9.696
16.9196 9.832
16.9348 9.791
16.9500 9.587
16.9652 9.692
16.9803 9.791
16.9955 9.786
17.0107 9.868
17.0259 9.906
17.0410 10.150
17.0562 10.021
17.0714 9.994
17.0866 10.138
17.1017 10.331
17.1169 10.742
17.1321 11.070
17.1473 11.133
17.1624 11.449
17.1776 12.235
17.1928 13.149
17.2080 14.089
17.2231 14.767
17.2383 15.943
17.2535 17.384
17.2687 18.389
17.2838 18.621
17.2990 17.960
17.3142 17.000
17.3294 16.382
17.3445 16.044
17.3597 16.144
17.3749 16.110
17.3901 15.313
17.4052 14.251
17.4204 13.211
17.4356 12.599
17.4508 12.045
17.4659 11.600
17.4811 11.560
17.4963 11.547
17.5115 11.335
17.5266 11.132
17.5418 11.263
17.5570 11.060
17.5722 10.829
17.5873 11.142
17.6025 11.178
17.6177 11.202
17.6329 11.309
17.6480 11.279
17.6632 11.288
17.6784 11.401
17.6936 11.241
17.7087 10.986
17.7239 10.993
17.7391 11.029
17.7543 10.932
17.7694 10.726
17.7846 10.685
17.7998 10.544
17.8150 10.575
17.8301 10.635
17.8453 10.629
17.8605 10.426
17.8757 10.349
17.8908 10.420
17.9060 10.534
17.9212 10.535
17.9364 10.312
17.9515 9.954
17.9667 9.953
17.9819 9.928
17.9971 10.006
18.0122 10.180
18.0274 10.126
18.0426 10.108
18.0578 10.025
18.0729 9.887
18.0881 10.094
18.1033 10.133
18.1185 9.962
18.1336 9.892
18.1488 9.851
18.1640 9.850
18.1792 9.941
18.1943 9.992
18.2095 9.808
18.2247 9.943
18.2399 9.856
18.2550 9.935
18.2702 9.866
18.2854 9.703
18.3006 9.621
18.3157 9.642
18.3309 9.794
18.3461 9.910
18.3613 9.746
18.3764 9.716
18.3916 9.754
18.4068 9.783
18.4220 10.070
18.4371 9.853
18.4523 9.497
18.4675 9.671
18.4827 9.721
18.4978 10.012
18.5130 10.141
18.5282 9.890
18.5434 9.751
18.5585 9.892
18.5737 9.802
18.5889 9.784
18.6041 9.910
18.6192 9.678
18.6344 9.687
18.6496 9.866
18.6648 9.646
18.6799 9.710
18.6951 9.958
18.7103 9.897
18.7255 9.609
18.7406 9.603
18.7558 9.744
18.7710 9.876
18.7862 9.986
18.8013 9.764
18.8165 9.565
18.8317 9.645
18.8469 9.663
18.8620 9.763
18.8772 10.117
18.8924 10.137
18.9076 9.968
18.9227 9.967
18.9379 10.052
18.9531 9.947
18.9683 9.820
18.9834 9.991
18.9986 10.262
19.0138 10.189
19.0290 10.057
19.0441 10.075
19.0593 10.221
19.0745 10.307
19.0897 10.380
19.1048 10.459
19.1200 10.642
19.1352 10.651
19.1504 10.421
19.1655 10.355
19.1807 10.649
19.1959 10.562
19.2111 10.640
19.2262 10.767
19.2414 10.646
19.2566 10.891
19.2718 10.938
19.2869 10.740
19.3021 10.953
19.3173 11.009
19.3325 10.995
19.3476 11.198
19.3628 11.425
19.3780 11.159
19.3932 10.943
19.4083 11.234
19.4235 11.275
19.4387 11.223
19.4539 11.309
19.4690 11.449
19.4842 11.334
19.4994 11.271
19.5146 11.413
19.5297 11.581
19.5449 11.478
19.5601 11.588
19.5753 11.766
19.5904 11.596
19.6056 11.649
19.6208 11.653
19.6360 11.777
19.6511 11.859
19.6663 11.667
19.6815 11.571
19.6967 11.567
19.7118 11.616
19.7270 11.664
19.7422 11.767
19.7574 11.940
19.7725 12.034
19.7877 11.846
19.8029 11.766
19.8180 11.994
19.8332 12.225
19.8484 12.374
19.8636 12.554
19.8787 12.871
19.8939 13.128
19.9091 13.105
19.9243 13.400
19.9394 14.093
19.9546 14.514
19.9698 14.552
19.9850 14.389
20.0001 14.385
20.0153 14.286
20.0305 14.084
20.0457 14.054
20.0608 13.823
20.0760 13.862
20.0912 14.066
20.1064 13.761
20.1215 13.402
20.1367 13.254
20.1519 13.234
20.1671 13.179
20.1822 12.844
20.1974 12.742
20.2126 12.734
20.2278 12.923
20.2429 12.693
20.2581 12.561
20.2733 12.366
20.2885 12.031
20.3036 12.172
20.3188 11.945
20.3340 11.959
20.3492 12.218
20.3643 12.132
20.3795 11.968
20.3947 12.024
20.4099 12.059
20.4250 12.042
20.4402 11.960
20.4554 11.716
20.4706 11.661
20.4857 11.549
20.5009 11.595
20.5161 11.677
20.5313 11.492
20.5464 11.373
20.5616 11.539
20.5768 11.232
20.5920 11.104
20.6071 11.081
20.6223 11.076
20.6375 11.140
20.6527 10.958
20.6678 10.801
20.6830 10.706
20.6982 10.812
20.7134 10.675
20.7285 10.538
20.7437 10.459
20.7589 10.538
20.7741 10.531
20.7892 10.415
20.8044 10.359
20.8196 10.456
20.8348 10.317
20.8499 10.351
20.8651 10.138
20.8803 10.330
20.8955 10.455
20.9106 10.132
20.9258 10.349
20.9410 10.076
20.9562 9.967
20.9713 9.908
20.9865 10.307
21.0017 10.057
21.0169 10.054
21.0320 9.978
21.0472 10.057
21.0624 10.099
21.0776 9.963
21.0927 10.020
21.1079 10.034
21.1231 9.996
21.1383 9.767
21.1534 9.830
21.1686 9.774
21.1838 9.900
21.1990 9.533
21.2141 9.590
21.2293 9.750
21.2445 9.431
21.2597 10.063
21.2748 9.983
21.2900 9.720
21.3052 10.016
21.3204 9.554
21.3355 9.873
21.3507 9.922
21.3659 9.762
21.3811 9.603
21.3962 9.576
21.4114 9.611
21.4266 9.441
21.4418 9.392
21.4569 9.609
21.4721 9.449
21.4873 9.263
21.5025 9.400
21.5176 9.468
21.5328 9.415
21.5480 9.261
21.5632 9.343
21.5783 9.268
21.5935 9.303
21.6087 9.353
21.6239 9.175
21.6390 9.244
21.6542 9.167
21.6694 9.183
21.6846 9.120
21.6997 9.170
21.7149 9.093
21.7301 9.161
21.7453 9.246
21.7604 9.031
21.7756 9.084
21.7908 9.133
21.8060 9.071
21.8211 8.905
21.8363 8.986
21.8515 9.096
21.8667 9.092
21.8818 9.106
21.8970 9.123
21.9122 9.206
21.9274 9.152
21.9425 8.934
21.9577 8.951
21.9729 8.963
21.9881 8.864
22.0032 8.833
22.0184 8.701
22.0336 8.897
22.0488 8.679
22.0639 8.561
22.0791 8.594
22.0943 8.602
22.1095 8.544
22.1246 8.343
22.1398 8.483
22.1550 8.560
22.1702 8.653
22.1853 8.704
22.2005 8.681
22.2157 8.438
22.2309 8.496
22.2460 8.550
22.2612 8.591
22.2764 8.792
22.2916 8.610
22.3067 8.342
22.3219 8.424
22.3371 8.401
22.3523 8.567
22.3674 8.414
22.3826 8.504
22.3978 8.509
22.4130 8.583
22.4281 8.500
22.4433 8.815
22.4585 8.632
22.4737 8.543
22.4888 8.515
22.5040 8.459
22.5192 8.314
22.5344 8.540
22.5495 8.537
22.5647 8.587
22.5799 8.559
22.5951 8.421
22.6102 8.367
22.6254 8.290
22.6406 8.469
22.6558 8.269
22.6709 8.195
22.6861 8.392
22.7013 8.266
22.7165 7.885
22.7316 6.357
