'Id: "" Comment: "" Operator: "Lab Manager" Anode: "Mo" Scantype: "Still (Eiger2R_500K (1D mode))" TimePerStep: "300" X: "11.8" Y: "9.4" Z: "11.284" 
7.2532 19.224
7.2684 18.829
7.2836 18.614
7.2987 18.415
7.3139 18.735
7.3291 18.846
7.3443 18.523
7.3594 19.056
7.3746 19.068
7.3898 19.041
7.4050 19.101
7.4201 19.411
7.4353 19.051
7.4505 18.995
7.4657 19.251
7.4808 19.484
7.4960 19.442
7.5112 19.459
7.5264 19.520
7.5415 19.494
7.5567 19.810
7.5719 19.764
7.5871 19.548
7.6022 19.242
7.6174 19.866
7.6326 20.221
7.6478 19.880
7.6629 20.169
7.6781 20.261
7.6933 19.873
7.7085 20.022
7.7236 20.154
7.7388 20.116
7.7540 20.111
7.7692 20.235
7.7843 20.505
7.7995 20.331
7.8147 20.501
7.8299 20.493
7.8450 20.431
7.8602 20.714
7.8754 20.384
7.8905 20.303
7.9057 20.430
7.9209 20.907
7.9361 21.075
7.9512 20.769
7.9664 20.952
7.9816 20.631
7.9968 20.820
8.0119 20.965
8.0271 20.991
8.0423 21.182
8.0575 21.223
8.0726 20.801
8.0878 20.932
8.1030 20.811
8.1182 20.801
8.1333 21.040
8.1485 21.216
8.1637 21.353
8.1789 21.318
8.1940 21.309
8.2092 21.448
8.2244 21.479
8.2396 21.511
8.2547 21.489
8.2699 21.604
8.2851 21.685
8.3003 21.713
8.3154 21.965
8.3306 21.284
8.3458 21.277
8.3610 21.709
8.3761 21.775
8.3913 21.660
8.4065 21.567
8.4217 21.780
8.4368 21.719
8.4520 22.041
8.4672 21.960
8.4824 21.406
8.4975 21.100
8.5127 21.680
8.5279 21.822
8.5431 22.060
8.5582 22.069
8.5734 21.829
8.5886 21.738
8.6038 22.080
8.6189 22.232
8.6341 21.792
8.6493 22.221
8.6645 22.368
8.6796 22.540
8.6948 21.937
8.7100 21.955
8.7252 21.933
8.7403 22.595
8.7555 22.372
8.7707 22.308
8.7859 22.383
8.8010 22.357
8.8162 22.349
8.8314 22.024
8.8466 22.354
8.8617 22.546
8.8769 22.715
8.8921 22.323
8.9073 22.057
8.9224 22.544
8.9376 22.416
8.9528 22.018
8.9680 22.438
8.9831 22.900
8.9983 22.538
9.0135 22.058
9.0287 22.617
9.0438 22.957
9.0590 22.791
9.0742 22.673
9.0894 23.025
9.1045 22.984
9.1197 22.652
9.1349 22.517
9.1501 22.690
9.1652 22.627
9.1804 22.617
9.1956 22.765
9.2108 22.653
9.2259 22.769
9.2411 22.783
9.2563 22.911
9.2715 22.999
9.2866 22.873
9.3018 22.719
9.3170 22.530
9.3322 22.703
9.3473 22.617
9.3625 22.744
9.3777 22.848
9.3929 22.892
9.4080 22.761
9.4232 22.766
9.4384 22.585
9.4536 22.687
9.4687 23.006
9.4839 23.125
9.4991 23.317
9.5143 22.932
9.5294 22.849
9.5446 22.590
9.5598 22.599
9.5750 22.829
9.5901 22.709
9.6053 23.049
9.6205 23.361
9.6357 23.289
9.6508 23.418
9.6660 23.393
9.6812 23.496
9.6964 23.932
9.7115 23.535
9.7267 23.484
9.7419 23.970
9.7571 23.935
9.7722 23.769
9.7874 23.774
9.8026 23.537
9.8178 23.072
9.8329 23.032
9.8481 23.605
9.8633 23.579
9.8785 23.111
9.8936 22.766
9.9088 22.887
9.9240 23.115
9.9392 23.298
9.9543 23.188
9.9695 23.077
9.9847 23.003
9.9999 23.029
10.0150 23.195
10.0302 23.364
10.0454 23.335
10.0606 23.101
10.0757 23.227
10.0909 23.357
10.1061 23.046
10.1213 23.125
10.1364 23.431
10.1516 23.464
10.1668 23.233
10.1820 23.075
10.1971 23.114
10.2123 23.195
10.2275 23.006
10.2427 22.950
10.2578 23.084
10.2730 22.998
10.2882 22.521
10.3034 22.735
10.3185 23.154
10.3337 22.951
10.3489 22.525
10.3641 22.298
10.3792 22.452
10.3944 22.877
10.4096 22.844
10.4248 22.665
10.4399 22.598
10.4551 22.439
10.4703 22.410
10.4855 22.085
10.5006 22.346
10.5158 22.405
10.5310 22.191
10.5462 22.584
10.5613 22.354
10.5765 22.511
10.5917 22.696
10.6069 22.307
10.6220 22.348
10.6372 22.740
10.6524 22.649
10.6676 22.638
10.6827 23.018
10.6979 22.565
10.7131 22.286
10.7283 22.444
10.7434 22.405
10.7586 22.182
10.7738 22.388
10.7890 22.322
10.8041 22.309
10.8193 22.364
10.8345 21.904
10.8497 22.044
10.8648 22.350
10.8800 22.215
10.8952 22.101
10.9104 21.989
10.9255 21.774
10.9407 21.708
10.9559 21.519
10.9711 21.711
10.9862 21.943
11.0014 21.728
11.0166 22.205
11.0318 22.370
11.0469 22.183
11.0621 21.725
11.0773 21.728
11.0925 21.560
11.1076 21.818
11.1228 21.710
11.1380 21.848
11.1532 21.332
11.1683 21.667
11.1835 21.026
11.1987 21.104
11.2139 21.692
11.2290 21.432
11.2442 21.659
11.2594 21.615
11.2746 21.267
11.2897 21.185
11.3049 20.969
11.3201 21.149
11.3353 21.124
11.3504 21.202
11.3656 21.443
11.3808 21.261
11.3960 21.350
11.4111 21.650
11.4263 21.415
11.4415 21.191
11.4567 21.108
11.4718 20.699
11.4870 21.063
11.5022 21.037
11.5174 21.046
11.5325 20.889
11.5477 21.074
11.5629 21.105
11.5781 20.801
11.5932 20.683
11.6084 20.686
11.6236 20.770
11.6388 20.742
11.6539 20.753
11.6691 21.055
11.6843 20.811
11.6995 20.281
11.7146 20.084
11.7298 20.194
11.7450 20.004
11.7602 20.007
11.7753 20.105
11.7905 20.355
11.8057 20.141
11.8209 20.232
11.8360 20.094
11.8512 20.025
11.8664 19.739
11.8816 19.432
11.8967 19.531
11.9119 19.731
11.9271 19.995
11.9423 19.764
11.9574 19.525
11.9726 19.732
11.9878 19.400
12.0030 18.938
12.0181 19.138
12.0333 19.128
12.0485 19.054
12.0637 19.102
12.0788 19.000
12.0940 18.625
12.1092 18.740
12.1244 18.819
12.1395 18.820
12.1547 18.597
12.1699 18.423
12.1851 18.288
12.2002 18.243
12.2154 18.173
12.2306 18.022
12.2458 18.233
12.2609 18.193
12.2761 17.917
12.2913 17.457
12.3065 17.853
12.3216 18.119
12.3368 17.760
12.3520 17.402
12.3672 17.098
12.3823 17.002
12.3975 17.111
12.4127 17.181
12.4279 16.858
12.4430 16.779
12.4582 16.975
12.4734 16.813
12.4886 16.493
12.5037 16.398
12.5189 16.497
12.5341 16.618
12.5493 16.463
12.5644 16.244
12.5796 15.893
12.5948 15.960
12.6100 16.156
12.6251 16.002
12.6403 15.850
12.6555 15.871
12.6707 15.627
12.6858 15.562
12.7010 15.762
12.7162 15.480
12.7314 15.095
12.7465 15.150
12.7617 15.266
12.7769 15.449
12.7921 15.421
12.8072 15.064
12.8224 14.895
12.8376 14.996
12.8528 14.919
12.8679 14.606
12.8831 14.718
12.8983 14.743
12.9135 14.668
12.9286 14.515
12.9438 14.256
12.9590 14.318
12.9742 14.311
12.9893 14.310
13.0045 14.230
13.0197 14.142
13.0349 14.101
13.0500 13.825
13.0652 13.715
13.0804 14.048
13.0956 14.127
13.1107 14.006
13.1259 13.696
13.1411 13.429
13.1563 13.613
13.1714 13.620
13.1866 13.530
13.2018 13.559
13.2170 13.447
13.2321 13.311
13.2473 13.193
13.2625 12.988
13.2777 12.911
13.2928 13.087
13.3080 13.246
13.3232 13.098
13.3384 12.985
13.3535 13.142
13.3687 13.161
13.3839 12.943
13.3991 12.898
13.4142 12.712
13.4294 12.735
13.4446 12.919
13.4598 12.778
13.4749 12.798
13.4901 12.845
13.5053 12.589
13.5205 12.528
13.5356 12.501
13.5508 12.572
13.5660 12.463
13.5812 12.023
13.5963 12.022
13.6115 12.237
13.6267 12.208
13.6419 12.054
13.6570 12.132
13.6722 12.262
13.6874 12.133
13.7026 11.883
13.7177 11.924
13.7329 11.997
13.7481 12.186
13.7633 12.014
13.7784 12.099
13.7936 12.229
13.8088 12.154
13.8239 12.095
13.8391 12.191
13.8543 12.274
13.8695 12.342
13.8846 12.444
13.8998 12.245
13.9150 12.198
13.9302 12.252
13.9453 12.007
13.9605 11.901
13.9757 11.945
13.9909 11.706
14.0060 11.661
14.0212 11.568
14.0364 11.623
14.0516 11.462
14.0667 11.498
14.0819 11.641
14.0971 11.557
14.1123 11.559
14.1274 11.589
14.1426 11.460
14.1578 11.593
14.1730 11.365
14.1881 11.356
14.2033 11.535
14.2185 11.583
14.2337 11.269
14.2488 11.620
14.2640 11.818
14.2792 11.910
14.2944 11.961
14.3095 11.961
14.3247 11.990
14.3399 12.230
14.3551 12.308
14.3702 12.736
14.3854 12.894
14.4006 13.122
14.4158 13.274
14.4309 13.190
14.4461 13.014
14.4613 12.873
14.4765 12.467
14.4916 12.219
14.5068 12.167
14.5220 12.059
14.5372 11.821
14.5523 11.311
14.5675 11.031
14.5827 11.026
14.5979 11.045
14.6130 11.103
14.6282 10.874
14.6434 10.752
14.6586 10.987
14.6737 10.891
14.6889 10.827
14.7041 10.728
14.7193 10.384
14.7344 10.413
14.7496 10.703
14.7648 10.463
14.7800 10.344
14.7951 10.724
14.8103 10.224
14.8255 10.236
14.8407 10.557
14.8558 10.338
14.8710 10.189
14.8862 10.217
14.9014 10.340
14.9165 10.471
14.9317 10.869
14.9469 10.102
14.9621 10.356
14.9772 10.232
14.9924 9.969
15.0076 10.187
15.0228 10.487
15.0379 10.184
15.0531 9.944
15.0683 10.192
15.0835 10.191
15.0986 10.105
15.1138 10.286
15.1290 9.967
15.1442 10.315
15.1593 10.084
15.1745 10.028
15.1897 10.270
15.2049 9.939
15.2200 10.446
15.2352 10.017
15.2504 9.997
15.2656 10.173
15.2807 10.008
15.2959 10.299
15.3111 10.362
15.3263 9.979
15.3414 9.781
15.3566 10.112
15.3718 9.987
15.3870 9.790
15.4021 10.252
15.4173 10.195
15.4325 10.270
15.4477 9.983
15.4628 9.976
15.4780 10.139
15.4932 10.246
15.5084 10.232
15.5235 9.907
15.5387 10.217
15.5539 9.760
15.5691 10.070
15.5842 9.973
15.5994 10.115
15.6146 10.069
15.6298 9.631
15.6449 9.672
15.6601 10.145
15.6753 9.571
15.6905 9.693
15.7056 9.492
15.7208 10.018
15.7360 10.006
15.7512 9.450
15.7663 9.717
15.7815 9.672
15.7967 9.736
15.8119 9.530
15.8270 9.822
15.8422 9.852
15.8574 9.752
15.8726 9.645
15.8877 9.738
15.9029 9.369
15.9181 9.777
15.9333 9.686
15.9484 9.994
15.9636 9.810
15.9788 9.687
15.9940 9.660
16.0091 9.730
16.0243 9.459
16.0395 9.520
16.0547 9.668
16.0698 9.496
16.0850 9.538
16.1002 9.591
16.1154 9.443
16.1305 9.614
16.1457 9.518
16.1609 9.628
16.1761 9.716
16.1912 9.678
16.2064 9.512
16.2216 9.801
16.2368 9.745
16.2519 9.649
16.2671 9.726
16.2823 9.881
16.2975 9.847
16.3126 9.718
16.3278 9.779
16.3430 9.706
16.3582 9.624
16.3733 9.485
16.3885 9.730
16.4037 9.653
16.4189 9.577
16.4340 9.632
16.4492 9.714
16.4644 9.625
16.4796 9.543
16.4947 9.741
16.5099 9.678
16.5251 9.739
16.5403 9.700
16.5554 9.480
16.5706 9.456
16.5858 9.461
16.6010 9.464
16.6161 9.426
16.6313 9.458
16.6465 9.424
16.6617 9.488
16.6768 9.561
16.6920 9.669
16.7072 9.928
16.7224 9.807
16.7375 9.869
16.7527 10.048
16.7679 9.830
16.7831 9.605
16.7982 9.750
16.8134 9.859
16.8286 9.855
16.8438 9.858
16.8589 9.769
16.8741 9.587
16.8893 9.485
16.9045 9.564
16.9196 9.529
16.9348 9.634
16.9500 9.657
16.9652 9.598
16.9803 9.725
16.9955 9.900
17.0107 9.991
17.0259 10.021
17.0410 9.868
17.0562 9.859
17.0714 10.242
17.0866 10.313
17.1017 10.369
17.1169 10.482
17.1321 10.695
17.1473 11.119
17.1624 11.605
17.1776 12.237
17.1928 12.959
17.2080 13.827
17.2231 14.914
17.2383 16.265
17.2535 17.394
17.2687 18.350
17.2838 18.478
17.2990 17.779
17.3142 16.806
17.3294 16.055
17.3445 16.052
17.3597 16.020
17.3749 15.674
17.3901 15.129
17.4052 14.169
17.4204 13.096
17.4356 12.463
17.4508 11.966
17.4659 11.566
17.4811 11.505
17.4963 11.375
17.5115 11.089
17.5266 10.947
17.5418 10.961
17.5570 11.030
17.5722 11.026
17.5873 10.917
17.6025 11.032
17.6177 11.172
17.6329 11.252
17.6480 11.522
17.6632 11.785
17.6784 11.842
17.6936 11.685
17.7087 11.700
17.7239 11.485
17.7391 11.253
17.7543 11.001
17.7694 10.948
17.7846 11.089
17.7998 11.015
17.8150 10.976
17.8301 10.738
17.8453 10.702
17.8605 10.486
17.8757 10.354
17.8908 10.372
17.9060 10.194
17.9212 10.143
17.9364 10.277
17.9515 10.020
17.9667 9.854
17.9819 10.032
17.9971 10.018
18.0122 10.170
18.0274 10.276
18.0426 10.231
18.0578 10.259
18.0729 10.071
18.0881 9.974
18.1033 9.908
18.1185 9.898
18.1336 10.083
18.1488 10.040
18.1640 9.831
18.1792 9.832
18.1943 9.811
18.2095 9.998
18.2247 10.158
18.2399 9.954
18.2550 9.831
18.2702 9.893
18.2854 9.926
18.3006 9.838
18.3157 9.724
18.3309 9.625
18.3461 9.825
18.3613 9.858
18.3764 9.680
18.3916 9.868
18.4068 9.882
18.4220 9.732
18.4371 9.838
18.4523 9.956
18.4675 10.017
18.4827 9.961
18.4978 9.731
18.5130 9.763
18.5282 9.761
18.5434 9.804
18.5585 9.651
18.5737 9.556
18.5889 9.619
18.6041 9.857
18.6192 9.830
18.6344 9.834
18.6496 9.742
18.6648 9.631
18.6799 9.641
18.6951 9.649
18.7103 9.695
18.7255 9.563
18.7406 9.672
18.7558 9.940
18.7710 9.681
18.7862 9.734
18.8013 9.956
18.8165 9.784
18.8317 9.833
18.8469 10.083
18.8620 9.822
18.8772 9.842
18.8924 9.856
18.9076 9.888
18.9227 10.068
18.9379 10.101
18.9531 10.114
18.9683 10.079
18.9834 9.996
18.9986 10.126
19.0138 10.064
19.0290 10.115
19.0441 10.313
19.0593 10.269
19.0745 10.187
19.0897 10.237
19.1048 10.199
19.1200 10.263
19.1352 10.530
19.1504 10.550
19.1655 10.614
19.1807 10.657
19.1959 10.630
19.2111 10.781
19.2262 10.647
19.2414 10.624
19.2566 10.870
19.2718 10.905
19.2869 10.986
19.3021 11.276
19.3173 11.259
19.3325 11.056
19.3476 10.954
19.3628 11.070
19.3780 11.211
19.3932 11.174
19.4083 11.278
19.4235 11.491
19.4387 11.487
19.4539 11.254
19.4690 11.204
19.4842 11.143
19.4994 11.206
19.5146 11.441
19.5297 11.458
19.5449 11.324
19.5601 11.226
19.5753 11.355
19.5904 11.373
19.6056 11.565
19.6208 11.635
19.6360 11.627
19.6511 11.725
19.6663 11.823
19.6815 11.801
19.6967 11.694
19.7118 11.631
19.7270 11.601
19.7422 11.801
19.7574 12.019
19.7725 12.130
19.7877 12.215
19.8029 11.986
19.8180 11.714
19.8332 11.838
19.8484 12.147
19.8636 12.293
19.8787 12.441
19.8939 12.794
19.9091 12.998
19.9243 13.266
19.9394 13.755
19.9546 14.279
19.9698 14.575
19.9850 14.630
20.0001 14.494
20.0153 14.129
20.0305 14.083
20.0457 13.934
20.0608 13.783
20.0760 13.626
20.0912 13.646
20.1064 13.796
20.1215 13.645
20.1367 13.388
20.1519 13.085
20.1671 13.319
20.1822 13.243
20.1974 12.878
20.2126 12.851
20.2278 12.763
20.2429 12.388
20.2581 11.987
20.2733 12.004
20.2885 11.951
20.3036 12.255
20.3188 12.290
20.3340 12.036
20.3492 12.048
20.3643 11.977
20.3795 12.040
20.3947 11.752
20.4099 11.863
20.4250 11.707
20.4402 11.902
20.4554 12.099
20.4706 11.804
20.4857 11.770
20.5009 11.634
20.5161 11.604
20.5313 11.498
20.5464 11.324
20.5616 11.434
20.5768 11.416
20.5920 11.374
20.6071 11.507
20.6223 11.437
20.6375 11.380
20.6527 11.144
20.6678 11.135
20.6830 10.917
20.6982 10.609
20.7134 10.531
20.7285 10.755
20.7437 11.011
20.7589 10.691
20.7741 10.194
20.7892 10.578
20.8044 10.825
20.8196 10.598
20.8348 10.521
20.8499 10.334
20.8651 10.416
20.8803 10.589
20.8955 10.172
20.9106 10.071
20.9258 10.105
20.9410 9.953
20.9562 10.186
20.9713 10.135
20.9865 10.058
21.0017 10.170
21.0169 9.890
21.0320 10.014
21.0472 10.009
21.0624 10.352
21.0776 9.700
21.0927 9.718
21.1079 9.707
21.1231 10.031
21.1383 9.820
21.1534 9.666
21.1686 9.667
21.1838 9.948
21.1990 9.675
21.2141 9.523
21.2293 9.974
21.2445 9.765
21.2597 9.559
21.2748 9.415
21.2900 9.693
21.3052 9.513
21.3204 9.411
21.3355 9.632
21.3507 9.814
21.3659 9.506
21.3811 9.589
21.3962 9.307
21.4114 9.451
21.4266 9.356
21.4418 9.485
21.4569 9.729
21.4721 9.381
21.4873 9.602
21.5025 9.445
21.5176 9.457
21.5328 9.575
21.5480 9.228
21.5632 9.374
21.5783 9.214
21.5935 8.890
21.6087 9.163
21.6239 9.449
21.6390 9.323
21.6542 9.219
21.6694 9.178
21.6846 9.050
21.6997 9.117
21.7149 9.116
21.7301 9.096
21.7453 8.992
21.7604 9.064
21.7756 9.220
21.7908 9.198
21.8060 9.004
21.8211 9.042
21.8363 8.871
21.8515 9.032
21.8667 8.936
21.8818 8.759
21.8970 8.820
21.9122 8.813
21.9274 8.905
21.9425 8.887
21.9577 8.886
21.9729 9.058
21.9881 9.033
22.0032 8.694
22.0184 8.651
22.0336 8.851
22.0488 8.814
22.0639 8.665
22.0791 8.747
22.0943 8.893
22.1095 8.937
22.1246 8.644
22.1398 8.559
22.1550 8.518
22.1702 8.436
22.1853 8.634
22.2005 8.761
22.2157 8.588
22.2309 8.524
22.2460 8.447
22.2612 8.454
22.2764 8.482
22.2916 8.530
22.3067 8.670
22.3219 8.636
22.3371 8.392
22.3523 8.450
22.3674 8.331
22.3826 8.452
22.3978 8.512
22.4130 8.259
22.4281 8.444
22.4433 8.371
22.4585 8.387
22.4737 8.379
22.4888 8.376
22.5040 8.436
22.5192 8.522
22.5344 8.461
22.5495 8.394
22.5647 8.436
22.5799 8.396
22.5951 8.378
22.6102 8.399
22.6254 8.413
22.6406 8.637
22.6558 8.348
22.6709 8.200
22.6861 8.182
22.7013 7.964
22.7165 7.616
22.7316 6.347
