'Id: "" Comment: "" Operator: "Lab Manager" Anode: "Mo" Scantype: "Still (Eiger2R_500K (1D mode))" TimePerStep: "300" X: "11.8" Y: "9.4" Z: "11.284" 
7.2532 18.466
7.2684 19.085
7.2836 18.969
7.2987 18.998
7.3139 19.208
7.3291 19.151
7.3443 18.994
7.3594 19.144
7.3746 19.102
7.3898 19.207
7.4050 19.458
7.4201 19.307
7.4353 19.362
7.4505 19.998
7.4657 19.476
7.4808 19.607
7.4960 19.876
7.5112 19.873
7.5264 20.230
7.5415 19.830
7.5567 19.899
7.5719 19.829
7.5871 19.887
7.6022 19.940
7.6174 20.176
7.6326 19.991
7.6478 20.047
7.6629 20.213
7.6781 20.264
7.6933 20.518
7.7085 20.614
7.7236 20.250
7.7388 20.305
7.7540 20.358
7.7692 20.613
7.7843 20.634
7.7995 20.430
7.8147 20.576
7.8299 20.689
7.8450 20.888
7.8602 21.024
7.8754 20.823
7.8905 20.833
7.9057 20.697
7.9209 20.906
7.9361 20.964
7.9512 20.982
7.9664 21.183
7.9816 20.892
7.9968 21.066
8.0119 21.217
8.0271 21.275
8.0423 21.121
8.0575 21.292
8.0726 21.303
8.0878 21.395
8.1030 21.069
8.1182 21.330
8.1333 21.157
8.1485 21.411
8.1637 21.372
8.1789 21.147
8.1940 21.459
8.2092 21.823
8.2244 22.296
8.2396 21.574
8.2547 21.208
8.2699 21.641
8.2851 21.561
8.3003 21.912
8.3154 21.901
8.3306 21.812
8.3458 21.764
8.3610 21.622
8.3761 21.806
8.3913 21.237
8.4065 21.807
8.4217 22.051
8.4368 21.551
8.4520 21.689
8.4672 21.902
8.4824 22.263
8.4975 22.106
8.5127 21.465
8.5279 21.705
8.5431 22.242
8.5582 22.131
8.5734 21.871
8.5886 22.227
8.6038 22.546
8.6189 22.145
8.6341 22.147
8.6493 22.526
8.6645 22.068
8.6796 21.862
8.6948 22.277
8.7100 22.442
8.7252 22.466
8.7403 22.194
8.7555 22.609
8.7707 22.321
8.7859 22.263
8.8010 22.568
8.8162 22.746
8.8314 22.599
8.8466 22.553
8.8617 22.730
8.8769 22.716
8.8921 22.464
8.9073 22.498
8.9224 22.547
8.9376 22.492
8.9528 22.773
8.9680 22.678
8.9831 22.681
8.9983 22.743
9.0135 22.629
9.0287 22.260
9.0438 22.598
9.0590 22.720
9.0742 22.713
9.0894 22.871
9.1045 22.907
9.1197 22.579
9.1349 22.638
9.1501 22.787
9.1652 22.965
9.1804 22.911
9.1956 22.796
9.2108 23.013
9.2259 22.566
9.2411 22.680
9.2563 22.683
9.2715 22.924
9.2866 22.888
9.3018 23.050
9.3170 22.713
9.3322 22.712
9.3473 23.189
9.3625 23.200
9.3777 23.357
9.3929 23.383
9.4080 23.134
9.4232 23.151
9.4384 23.200
9.4536 23.091
9.4687 23.155
9.4839 22.904
9.4991 22.926
9.5143 23.071
9.5294 23.333
9.5446 23.297
9.5598 23.010
9.5750 23.230
9.5901 23.317
9.6053 23.383
9.6205 23.269
9.6357 23.316
9.6508 23.747
9.6660 23.835
9.6812 23.860
9.6964 23.714
9.7115 23.576
9.7267 23.838
9.7419 24.316
9.7571 23.900
9.7722 23.481
9.7874 23.476
9.8026 23.379
9.8178 23.601
9.8329 23.485
9.8481 23.494
9.8633 23.597
9.8785 23.409
9.8936 23.184
9.9088 23.171
9.9240 23.571
9.9392 23.749
9.9543 23.371
9.9695 23.439
9.9847 23.621
9.9999 23.389
10.0150 23.159
10.0302 23.295
10.0454 23.510
10.0606 23.415
10.0757 23.326
10.0909 23.717
10.1061 23.953
10.1213 23.515
10.1364 23.139
10.1516 23.545
10.1668 23.545
10.1820 23.353
10.1971 23.739
10.2123 23.716
10.2275 23.516
10.2427 23.049
10.2578 23.026
10.2730 23.197
10.2882 23.012
10.3034 22.886
10.3185 22.911
10.3337 22.992
10.3489 23.052
10.3641 23.087
10.3792 22.921
10.3944 22.883
10.4096 22.853
10.4248 22.814
10.4399 23.134
10.4551 22.858
10.4703 22.369
10.4855 22.172
10.5006 22.631
10.5158 22.742
10.5310 22.696
10.5462 22.402
10.5613 22.432
10.5765 22.531
10.5917 22.809
10.6069 22.821
10.6220 22.950
10.6372 22.952
10.6524 22.730
10.6676 22.551
10.6827 22.205
10.6979 22.346
10.7131 22.744
10.7283 22.603
10.7434 22.458
10.7586 22.286
10.7738 22.332
10.7890 22.313
10.8041 22.310
10.8193 22.166
10.8345 22.243
10.8497 22.310
10.8648 22.259
10.8800 22.119
10.8952 21.827
10.9104 22.335
10.9255 22.149
10.9407 22.153
10.9559 22.092
10.9711 22.182
10.9862 22.332
11.0014 22.169
11.0166 22.192
11.0318 22.278
11.0469 21.916
11.0621 21.728
11.0773 21.730
11.0925 21.821
11.1076 21.977
11.1228 21.593
11.1380 21.711
11.1532 21.918
11.1683 21.751
11.1835 21.665
11.1987 21.404
11.2139 21.385
11.2290 21.181
11.2442 21.267
11.2594 21.863
11.2746 21.510
11.2897 21.027
11.3049 20.982
11.3201 21.453
11.3353 21.881
11.3504 21.865
11.3656 21.928
11.3808 21.758
11.3960 21.693
11.4111 21.776
11.4263 21.665
11.4415 20.884
11.4567 20.883
11.4718 21.324
11.4870 21.208
11.5022 20.856
11.5174 20.654
11.5325 20.994
11.5477 21.127
11.5629 21.149
11.5781 20.913
11.5932 20.981
11.6084 21.323
11.6236 20.879
11.6388 20.853
11.6539 20.825
11.6691 20.799
11.6843 20.806
11.6995 20.984
11.7146 20.919
11.7298 20.480
11.7450 20.595
11.7602 20.607
11.7753 20.093
11.7905 20.433
11.8057 20.560
11.8209 20.422
11.8360 20.043
11.8512 19.806
11.8664 19.622
11.8816 20.110
11.8967 19.955
11.9119 19.867
11.9271 19.829
11.9423 19.770
11.9574 19.254
11.9726 19.487
11.9878 19.910
12.0030 19.648
12.0181 19.260
12.0333 19.193
12.0485 19.311
12.0637 19.253
12.0788 18.867
12.0940 18.644
12.1092 19.011
12.1244 18.912
12.1395 18.717
12.1547 18.782
12.1699 18.664
12.1851 18.344
12.2002 18.281
12.2154 18.350
12.2306 18.208
12.2458 18.175
12.2609 17.705
12.2761 17.472
12.2913 17.750
12.3065 17.819
12.3216 17.688
12.3368 17.586
12.3520 17.573
12.3672 17.547
12.3823 17.412
12.3975 17.586
12.4127 17.392
12.4279 17.049
12.4430 17.126
12.4582 16.915
12.4734 16.974
12.4886 16.855
12.5037 16.638
12.5189 16.618
12.5341 16.585
12.5493 16.501
12.5644 16.195
12.5796 16.215
12.5948 16.116
12.6100 15.767
12.6251 15.823
12.6403 16.102
12.6555 16.007
12.6707 15.888
12.6858 15.675
12.7010 15.716
12.7162 15.602
12.7314 15.313
12.7465 15.193
12.7617 15.284
12.7769 15.337
12.7921 15.384
12.8072 15.051
12.8224 14.977
12.8376 14.948
12.8528 14.859
12.8679 14.927
12.8831 14.771
12.8983 14.556
12.9135 14.529
12.9286 14.357
12.9438 14.445
12.9590 14.545
12.9742 14.347
12.9893 14.422
13.0045 14.206
13.0197 14.012
13.0349 14.382
13.0500 14.418
13.0652 14.086
13.0804 13.747
13.0956 13.837
13.1107 14.010
13.1259 13.807
13.1411 13.942
13.1563 13.854
13.1714 13.600
13.1866 13.644
13.2018 13.447
13.2170 13.338
13.2321 13.370
13.2473 13.499
13.2625 13.500
13.2777 13.403
13.2928 13.258
13.3080 13.042
13.3232 13.174
13.3384 13.129
13.3535 12.923
13.3687 13.041
13.3839 13.144
13.3991 13.050
13.4142 13.043
13.4294 13.067
13.4446 13.103
13.4598 12.800
13.4749 12.821
13.4901 12.818
13.5053 12.702
13.5205 12.605
13.5356 12.491
13.5508 12.403
13.5660 12.374
13.5812 12.242
13.5963 12.285
13.6115 12.186
13.6267 12.286
13.6419 12.412
13.6570 12.460
13.6722 12.428
13.6874 12.188
13.7026 11.972
13.7177 12.150
13.7329 12.141
13.7481 12.008
13.7633 11.926
13.7784 12.106
13.7936 12.403
13.8088 12.461
13.8239 12.229
13.8391 12.320
13.8543 12.231
13.8695 12.360
13.8846 12.223
13.8998 12.386
13.9150 12.325
13.9302 12.008
13.9453 12.173
13.9605 11.808
13.9757 12.024
13.9909 11.675
14.0060 11.496
14.0212 11.752
14.0364 11.690
14.0516 11.455
14.0667 11.402
14.0819 11.481
14.0971 11.526
14.1123 11.394
14.1274 11.307
14.1426 11.431
14.1578 11.331
14.1730 11.336
14.1881 11.458
14.2033 11.480
14.2185 11.230
14.2337 11.231
14.2488 11.559
14.2640 11.668
14.2792 11.776
14.2944 11.949
14.3095 12.181
14.3247 12.654
14.3399 12.959
14.3551 13.165
14.3702 13.385
14.3854 13.313
14.4006 13.522
14.4158 13.452
14.4309 13.246
14.4461 13.059
14.4613 13.107
14.4765 12.744
14.4916 12.900
14.5068 12.540
14.5220 12.062
14.5372 11.683
14.5523 11.307
14.5675 11.160
14.5827 11.297
14.5979 11.169
14.6130 10.642
14.6282 10.918
14.6434 10.736
14.6586 10.778
14.6737 11.016
14.6889 10.707
14.7041 10.837
14.7193 10.529
14.7344 10.650
14.7496 10.792
14.7648 10.681
14.7800 10.438
14.7951 10.489
14.8103 10.790
14.8255 10.354
14.8407 10.497
14.8558 10.526
14.8710 10.474
14.8862 10.777
14.9014 10.676
14.9165 11.162
14.9317 11.048
14.9469 10.489
14.9621 10.607
14.9772 10.176
14.9924 10.251
15.0076 10.366
15.0228 10.566
15.0379 10.283
15.0531 10.360
15.0683 10.549
15.0835 10.524
15.0986 10.290
15.1138 10.636
15.1290 10.382
15.1442 10.378
15.1593 10.296
15.1745 10.321
15.1897 10.056
15.2049 9.907
15.2200 10.087
15.2352 10.423
15.2504 10.364
15.2656 10.471
15.2807 10.463
15.2959 10.579
15.3111 10.341
15.3263 10.643
15.3414 10.101
15.3566 10.291
15.3718 10.287
15.3870 10.101
15.4021 10.291
15.4173 10.113
15.4325 10.452
15.4477 10.299
15.4628 10.284
15.4780 10.161
15.4932 9.968
15.5084 10.220
15.5235 10.118
15.5387 9.948
15.5539 10.338
15.5691 10.357
15.5842 9.802
15.5994 10.001
15.6146 10.046
15.6298 9.838
15.6449 9.998
15.6601 9.816
15.6753 10.079
15.6905 9.971
15.7056 10.129
15.7208 10.082
15.7360 9.847
15.7512 9.887
15.7663 9.918
15.7815 9.990
15.7967 9.649
15.8119 9.796
15.8270 10.053
15.8422 10.098
15.8574 9.696
15.8726 9.652
15.8877 9.676
15.9029 9.904
15.9181 9.622
15.9333 9.835
15.9484 9.866
15.9636 9.402
15.9788 9.727
15.9940 9.677
16.0091 9.663
16.0243 9.432
16.0395 9.356
16.0547 9.705
16.0698 9.870
16.0850 9.880
16.1002 9.844
16.1154 9.753
16.1305 9.457
16.1457 9.731
16.1609 9.734
16.1761 9.774
16.1912 9.602
16.2064 9.645
16.2216 9.878
16.2368 10.012
16.2519 9.953
16.2671 10.039
16.2823 10.336
16.2975 10.054
16.3126 9.902
16.3278 9.652
16.3430 9.973
16.3582 10.064
16.3733 10.219
16.3885 9.969
16.4037 9.920
16.4189 9.676
16.4340 9.666
16.4492 9.810
16.4644 9.854
16.4796 9.769
16.4947 9.927
16.5099 9.815
16.5251 9.476
16.5403 9.849
16.5554 9.900
16.5706 9.580
16.5858 9.703
16.6010 9.709
16.6161 9.910
16.6313 9.820
16.6465 9.730
16.6617 9.666
16.6768 9.912
16.6920 9.938
16.7072 10.006
16.7224 9.925
16.7375 10.069
16.7527 9.914
16.7679 9.608
16.7831 9.737
16.7982 9.961
16.8134 9.928
16.8286 9.944
16.8438 9.997
16.8589 9.908
16.8741 9.983
16.8893 9.987
16.9045 9.972
16.9196 9.962
16.9348 9.776
16.9500 9.753
16.9652 9.945
16.9803 9.980
16.9955 9.950
17.0107 9.976
17.0259 9.897
17.0410 9.743
17.0562 9.950
17.0714 10.165
17.0866 10.234
17.1017 10.460
17.1169 10.666
17.1321 11.059
17.1473 11.278
17.1624 11.784
17.1776 12.435
17.1928 12.774
17.2080 13.532
17.2231 15.150
17.2383 16.569
17.2535 17.688
17.2687 18.852
17.2838 19.016
17.2990 17.954
17.3142 16.835
17.3294 16.360
17.3445 16.058
17.3597 15.844
17.3749 15.683
17.3901 15.001
17.4052 14.170
17.4204 13.474
17.4356 12.664
17.4508 12.044
17.4659 11.600
17.4811 11.217
17.4963 11.183
17.5115 11.134
17.5266 10.957
17.5418 11.012
17.5570 10.977
17.5722 10.838
17.5873 11.054
17.6025 11.316
17.6177 11.263
17.6329 11.462
17.6480 11.698
17.6632 11.976
17.6784 11.966
17.6936 11.764
17.7087 11.729
17.7239 11.428
17.7391 11.198
17.7543 11.073
17.7694 11.109
17.7846 11.153
17.7998 11.093
17.8150 10.912
17.8301 10.736
17.8453 10.569
17.8605 10.467
17.8757 10.294
17.8908 10.084
17.9060 10.164
17.9212 10.293
17.9364 10.118
17.9515 9.881
17.9667 9.903
17.9819 10.232
17.9971 10.196
18.0122 9.969
18.0274 10.011
18.0426 10.377
18.0578 10.260
18.0729 9.895
18.0881 9.922
18.1033 9.927
18.1185 9.936
18.1336 10.049
18.1488 9.969
18.1640 10.288
18.1792 10.247
18.1943 10.102
18.2095 10.109
18.2247 9.834
18.2399 9.889
18.2550 10.132
18.2702 9.966
18.2854 9.856
18.3006 9.870
18.3157 9.877
18.3309 9.982
18.3461 9.891
18.3613 9.774
18.3764 9.823
18.3916 9.948
18.4068 10.029
18.4220 9.822
18.4371 9.796
18.4523 9.712
18.4675 9.654
18.4827 9.743
18.4978 9.824
18.5130 9.696
18.5282 9.719
18.5434 9.634
18.5585 9.586
18.5737 9.836
18.5889 9.674
18.6041 9.665
18.6192 9.822
18.6344 9.739
18.6496 9.646
18.6648 9.819
18.6799 9.920
18.6951 9.588
18.7103 9.581
18.7255 9.609
18.7406 9.555
18.7558 9.722
18.7710 9.841
18.7862 9.823
18.8013 9.642
18.8165 9.619
18.8317 9.777
18.8469 9.663
18.8620 9.829
18.8772 9.924
18.8924 9.858
18.9076 10.025
18.9227 9.860
18.9379 9.842
18.9531 9.996
18.9683 10.004
18.9834 10.178
18.9986 10.146
19.0138 10.284
19.0290 10.170
19.0441 9.963
19.0593 10.328
19.0745 10.391
19.0897 10.253
19.1048 10.221
19.1200 10.226
19.1352 10.268
19.1504 10.443
19.1655 10.553
19.1807 10.446
19.1959 10.496
19.2111 10.597
19.2262 10.586
19.2414 10.634
19.2566 10.731
19.2718 10.987
19.2869 11.108
19.3021 11.115
19.3173 11.052
19.3325 10.921
19.3476 11.189
19.3628 11.339
19.3780 11.044
19.3932 10.919
19.4083 11.113
19.4235 11.205
19.4387 11.262
19.4539 11.286
19.4690 11.340
19.4842 11.313
19.4994 11.278
19.5146 11.396
19.5297 11.371
19.5449 11.454
19.5601 11.547
19.5753 11.646
19.5904 11.571
19.6056 11.581
19.6208 11.803
19.6360 11.648
19.6511 11.605
19.6663 11.692
19.6815 11.519
19.6967 11.577
19.7118 12.024
19.7270 12.159
19.7422 11.802
19.7574 11.771
19.7725 11.932
19.7877 11.810
19.8029 11.897
19.8180 11.922
19.8332 11.932
19.8484 12.064
19.8636 12.352
19.8787 12.527
19.8939 12.738
19.9091 12.988
19.9243 13.280
19.9394 13.653
19.9546 13.846
19.9698 14.271
19.9850 14.447
20.0001 14.575
20.0153 14.336
20.0305 13.885
20.0457 13.958
20.0608 13.877
20.0760 13.822
20.0912 13.872
20.1064 13.427
20.1215 13.235
20.1367 13.010
20.1519 12.676
20.1671 12.803
20.1822 12.817
20.1974 12.566
20.2126 12.497
20.2278 12.285
20.2429 12.330
20.2581 12.490
20.2733 12.052
20.2885 11.814
20.3036 11.766
20.3188 11.961
20.3340 11.880
20.3492 11.784
20.3643 11.895
20.3795 11.850
20.3947 11.939
20.4099 11.996
20.4250 12.105
20.4402 12.093
20.4554 11.819
20.4706 11.992
20.4857 11.999
20.5009 11.896
20.5161 11.820
20.5313 11.589
20.5464 11.618
20.5616 11.671
20.5768 11.436
20.5920 11.087
20.6071 11.113
20.6223 10.901
20.6375 10.960
20.6527 10.911
20.6678 10.819
20.6830 10.578
20.6982 10.449
20.7134 10.724
20.7285 10.487
20.7437 10.164
20.7589 10.294
20.7741 10.256
20.7892 10.299
20.8044 10.272
20.8196 10.273
20.8348 10.365
20.8499 10.238
20.8651 10.334
20.8803 10.391
20.8955 10.258
20.9106 10.345
20.9258 10.380
20.9410 10.066
20.9562 10.235
20.9713 10.123
20.9865 10.075
21.0017 10.062
21.0169 10.105
21.0320 9.955
21.0472 9.931
21.0624 9.766
21.0776 10.198
21.0927 10.141
21.1079 9.623
21.1231 10.101
21.1383 9.833
21.1534 10.052
21.1686 9.693
21.1838 9.701
21.1990 9.714
21.2141 9.780
21.2293 9.631
21.2445 9.714
21.2597 9.933
21.2748 9.723
21.2900 9.429
21.3052 9.630
21.3204 9.507
21.3355 9.401
21.3507 9.438
21.3659 9.427
21.3811 9.721
21.3962 9.442
21.4114 9.679
21.4266 9.569
21.4418 9.750
21.4569 9.549
21.4721 9.298
21.4873 9.247
21.5025 9.240
21.5176 9.782
21.5328 9.478
21.5480 9.385
21.5632 9.326
21.5783 9.258
21.5935 9.201
21.6087 9.314
21.6239 9.219
21.6390 9.123
21.6542 9.158
21.6694 9.150
21.6846 9.374
21.6997 9.231
21.7149 9.107
21.7301 9.051
21.7453 9.201
21.7604 9.133
21.7756 9.093
21.7908 8.976
21.8060 9.178
21.8211 9.272
21.8363 9.119
21.8515 8.951
21.8667 8.877
21.8818 8.977
21.8970 8.884
21.9122 8.923
21.9274 9.048
21.9425 8.759
21.9577 8.702
21.9729 8.892
21.9881 8.847
22.0032 8.901
22.0184 8.868
22.0336 8.668
22.0488 8.703
22.0639 8.735
22.0791 8.640
22.0943 8.689
22.1095 8.717
22.1246 8.724
22.1398 8.735
22.1550 8.666
22.1702 8.759
22.1853 8.699
22.2005 8.429
22.2157 8.644
22.2309 8.805
22.2460 8.551
22.2612 8.698
22.2764 8.551
22.2916 8.686
22.3067 8.558
22.3219 8.391
22.3371 8.600
22.3523 8.454
22.3674 8.367
22.3826 8.442
22.3978 8.322
22.4130 8.540
22.4281 8.498
22.4433 8.537
22.4585 8.574
22.4737 8.524
22.4888 8.321
22.5040 8.402
22.5192 8.294
22.5344 8.570
22.5495 8.446
22.5647 8.411
22.5799 8.462
22.5951 8.362
22.6102 8.492
22.6254 8.770
22.6406 8.446
22.6558 8.328
22.6709 8.156
22.6861 8.572
22.7013 8.359
22.7165 7.833
22.7316 6.294
