'Id: "" Comment: "" Operator: "Lab Manager" Anode: "Mo" Scantype: "Still (Eiger2R_500K (1D mode))" TimePerStep: "300" X: "11.8" Y: "9.4" Z: "11.284" 
7.2532 18.426
7.2684 18.485
7.2836 18.913
7.2987 18.938
7.3139 18.788
7.3291 18.997
7.3443 18.608
7.3594 19.250
7.3746 19.399
7.3898 19.098
7.4050 19.164
7.4201 19.122
7.4353 19.292
7.4505 19.179
7.4657 18.861
7.4808 19.206
7.4960 19.932
7.5112 19.709
7.5264 19.646
7.5415 19.541
7.5567 19.193
7.5719 19.287
7.5871 19.815
7.6022 19.766
7.6174 19.715
7.6326 19.968
7.6478 20.024
7.6629 19.935
7.6781 20.041
7.6933 19.835
7.7085 20.165
7.7236 20.369
7.7388 20.370
7.7540 20.337
7.7692 20.194
7.7843 20.502
7.7995 20.606
7.8147 20.440
7.8299 20.494
7.8450 20.235
7.8602 20.031
7.8754 20.478
7.8905 20.769
7.9057 20.646
7.9209 20.364
7.9361 20.404
7.9512 20.288
7.9664 20.576
7.9816 21.044
7.9968 20.983
8.0119 20.878
8.0271 20.702
8.0423 20.475
8.0575 20.865
8.0726 21.057
8.0878 20.895
8.1030 20.876
8.1182 20.956
8.1333 21.044
8.1485 21.302
8.1637 21.471
8.1789 21.249
8.1940 21.044
8.2092 20.951
8.2244 21.216
8.2396 21.506
8.2547 21.932
8.2699 21.416
8.2851 21.235
8.3003 21.080
8.3154 21.577
8.3306 21.712
8.3458 21.496
8.3610 21.867
8.3761 21.741
8.3913 21.814
8.4065 21.953
8.4217 21.517
8.4368 22.317
8.4520 21.963
8.4672 21.607
8.4824 21.921
8.4975 21.725
8.5127 21.827
8.5279 21.671
8.5431 22.050
8.5582 22.686
8.5734 21.795
8.5886 21.990
8.6038 21.999
8.6189 22.340
8.6341 21.972
8.6493 21.838
8.6645 22.235
8.6796 21.968
8.6948 22.434
8.7100 22.294
8.7252 22.545
8.7403 22.203
8.7555 22.195
8.7707 22.225
8.7859 22.388
8.8010 22.222
8.8162 22.412
8.8314 22.553
8.8466 22.495
8.8617 22.219
8.8769 22.258
8.8921 22.664
8.9073 22.184
8.9224 22.205
8.9376 22.483
8.9528 22.664
8.9680 22.678
8.9831 22.316
8.9983 22.310
9.0135 22.628
9.0287 22.509
9.0438 22.619
9.0590 22.686
9.0742 22.665
9.0894 22.819
9.1045 22.815
9.1197 22.729
9.1349 22.977
9.1501 22.886
9.1652 22.767
9.1804 23.067
9.1956 22.849
9.2108 22.765
9.2259 22.904
9.2411 22.526
9.2563 22.439
9.2715 22.365
9.2866 22.946
9.3018 23.079
9.3170 22.884
9.3322 22.917
9.3473 22.747
9.3625 22.889
9.3777 22.901
9.3929 22.767
9.4080 22.970
9.4232 22.908
9.4384 22.938
9.4536 23.217
9.4687 23.260
9.4839 23.184
9.4991 23.158
9.5143 22.966
9.5294 23.082
9.5446 23.261
9.5598 23.264
9.5750 23.139
9.5901 23.262
9.6053 23.311
9.6205 23.210
9.6357 23.285
9.6508 23.299
9.6660 23.471
9.6812 23.552
9.6964 23.632
9.7115 23.873
9.7267 23.919
9.7419 23.850
9.7571 24.162
9.7722 23.924
9.7874 23.659
9.8026 23.529
9.8178 23.156
9.8329 22.923
9.8481 23.072
9.8633 23.080
9.8785 23.001
9.8936 23.266
9.9088 23.296
9.9240 23.145
9.9392 22.998
9.9543 23.198
9.9695 23.176
9.9847 23.016
9.9999 23.036
10.0150 23.106
10.0302 23.184
10.0454 23.012
10.0606 23.315
10.0757 23.351
10.0909 23.025
10.1061 23.263
10.1213 23.076
10.1364 23.047
10.1516 23.299
10.1668 23.121
10.1820 23.214
10.1971 23.035
10.2123 22.854
10.2275 23.007
10.2427 22.806
10.2578 22.779
10.2730 22.986
10.2882 23.045
10.3034 22.733
10.3185 22.680
10.3337 22.915
10.3489 22.581
10.3641 22.428
10.3792 22.723
10.3944 22.993
10.4096 22.944
10.4248 22.845
10.4399 22.535
10.4551 22.432
10.4703 22.634
10.4855 22.592
10.5006 22.401
10.5158 22.386
10.5310 22.327
10.5462 22.336
10.5613 22.426
10.5765 22.492
10.5917 22.700
10.6069 22.695
10.6220 22.318
10.6372 22.385
10.6524 22.324
10.6676 22.709
10.6827 22.709
10.6979 22.603
10.7131 22.729
10.7283 22.141
10.7434 22.348
10.7586 22.467
10.7738 22.062
10.7890 22.444
10.8041 22.432
10.8193 22.101
10.8345 22.122
10.8497 21.745
10.8648 21.939
10.8800 21.973
10.8952 22.183
10.9104 22.068
10.9255 21.697
10.9407 21.976
10.9559 22.132
10.9711 21.817
10.9862 21.852
11.0014 22.135
11.0166 21.982
11.0318 21.948
11.0469 21.818
11.0621 21.853
11.0773 21.819
11.0925 21.978
11.1076 21.950
11.1228 21.639
11.1380 21.457
11.1532 21.721
11.1683 21.696
11.1835 21.590
11.1987 21.696
11.2139 21.814
11.2290 21.669
11.2442 21.361
11.2594 21.141
11.2746 21.248
11.2897 21.498
11.3049 21.489
11.3201 21.393
11.3353 21.186
11.3504 21.423
11.3656 21.437
11.3808 20.978
11.3960 20.821
11.4111 21.078
11.4263 20.913
11.4415 20.893
11.4567 21.172
11.4718 20.847
11.4870 20.947
11.5022 20.819
11.5174 20.971
11.5325 21.226
11.5477 21.418
11.5629 21.142
11.5781 21.074
11.5932 20.809
11.6084 20.920
11.6236 20.930
11.6388 20.830
11.6539 20.799
11.6691 20.566
11.6843 20.499
11.6995 20.505
11.7146 20.434
11.7298 20.666
11.7450 20.281
11.7602 20.227
11.7753 20.352
11.7905 19.951
11.8057 20.042
11.8209 19.957
11.8360 20.075
11.8512 19.850
11.8664 19.844
11.8816 19.980
11.8967 19.597
11.9119 19.428
11.9271 19.380
11.9423 19.217
11.9574 19.261
11.9726 19.225
11.9878 19.191
12.0030 19.243
12.0181 19.216
12.0333 19.053
12.0485 18.923
12.0637 18.891
12.0788 18.860
12.0940 18.698
12.1092 18.601
12.1244 18.429
12.1395 18.274
12.1547 18.429
12.1699 18.772
12.1851 18.487
12.2002 18.445
12.2154 18.532
12.2306 18.227
12.2458 18.029
12.2609 17.931
12.2761 17.948
12.2913 17.660
12.3065 17.607
12.3216 17.508
12.3368 17.357
12.3520 17.129
12.3672 17.178
12.3823 17.138
12.3975 16.805
12.4127 16.609
12.4279 16.770
12.4430 16.816
12.4582 16.636
12.4734 16.745
12.4886 16.783
12.5037 16.556
12.5189 16.562
12.5341 16.393
12.5493 16.403
12.5644 16.456
12.5796 16.216
12.5948 16.055
12.6100 15.741
12.6251 15.743
12.6403 15.854
12.6555 16.091
12.6707 16.099
12.6858 15.813
12.7010 15.802
12.7162 15.683
12.7314 15.451
12.7465 15.139
12.7617 15.264
12.7769 15.273
12.7921 15.289
12.8072 15.202
12.8224 14.909
12.8376 14.659
12.8528 14.923
12.8679 14.678
12.8831 14.590
12.8983 14.768
12.9135 14.786
12.9286 14.817
12.9438 14.444
12.9590 14.361
12.9742 14.235
12.9893 14.226
13.0045 14.326
13.0197 14.334
13.0349 14.135
13.0500 13.775
13.0652 13.970
13.0804 14.136
13.0956 13.990
13.1107 13.759
13.1259 13.680
13.1411 13.773
13.1563 13.686
13.1714 13.581
13.1866 13.371
13.2018 13.307
13.2170 13.355
13.2321 13.285
13.2473 13.127
13.2625 13.047
13.2777 13.177
13.2928 13.154
13.3080 13.270
13.3232 13.207
13.3384 13.117
13.3535 13.116
13.3687 12.852
13.3839 13.034
13.3991 13.010
13.4142 12.617
13.4294 12.794
13.4446 12.741
13.4598 12.453
13.4749 12.414
13.4901 12.361
13.5053 12.486
13.5205 12.522
13.5356 12.511
13.5508 12.324
13.5660 12.178
13.5812 12.460
13.5963 12.536
13.6115 12.361
13.6267 11.989
13.6419 12.148
13.6570 12.197
13.6722 12.255
13.6874 12.127
13.7026 11.758
13.7177 12.114
13.7329 12.230
13.7481 12.107
13.7633 12.115
13.7784 11.895
13.7936 12.033
13.8088 12.066
13.8239 12.005
13.8391 12.324
13.8543 12.302
13.8695 12.302
13.8846 12.069
13.8998 11.808
13.9150 12.000
13.9302 12.042
13.9453 11.909
13.9605 11.868
13.9757 11.564
13.9909 11.883
14.0060 11.686
14.0212 11.635
14.0364 11.549
14.0516 11.271
14.0667 11.498
14.0819 11.549
14.0971 11.463
14.1123 11.432
14.1274 11.437
14.1426 11.412
14.1578 11.634
14.1730 11.461
14.1881 11.385
14.2033 11.583
14.2185 11.803
14.2337 11.871
14.2488 11.604
14.2640 11.863
14.2792 11.775
14.2944 11.896
14.3095 11.951
14.3247 12.240
14.3399 12.277
14.3551 12.614
14.3702 12.665
14.3854 13.166
14.4006 13.372
14.4158 13.293
14.4309 13.694
14.4461 13.368
14.4613 12.843
14.4765 12.572
14.4916 12.233
14.5068 12.165
14.5220 11.954
14.5372 11.579
14.5523 11.235
14.5675 11.067
14.5827 11.026
14.5979 11.438
14.6130 11.373
14.6282 11.203
14.6434 10.869
14.6586 10.736
14.6737 10.602
14.6889 10.490
14.7041 10.543
14.7193 10.412
14.7344 10.676
14.7496 10.600
14.7648 10.320
14.7800 10.504
14.7951 10.467
14.8103 10.498
14.8255 10.625
14.8407 10.447
14.8558 10.512
14.8710 10.727
14.8862 10.430
14.9014 10.388
14.9165 10.868
14.9317 10.612
14.9469 10.544
14.9621 10.413
14.9772 10.240
14.9924 10.268
15.0076 10.228
15.0228 10.301
15.0379 10.286
15.0531 10.108
15.0683 10.481
15.0835 10.381
15.0986 10.385
15.1138 10.417
15.1290 10.051
15.1442 10.413
15.1593 10.051
15.1745 10.293
15.1897 10.084
15.2049 9.807
15.2200 10.147
15.2352 10.188
15.2504 10.049
15.2656 10.001
15.2807 9.828
15.2959 9.877
15.3111 10.406
15.3263 10.094
15.3414 10.371
15.3566 10.071
15.3718 10.343
15.3870 9.962
15.4021 9.976
15.4173 10.134
15.4325 10.293
15.4477 10.225
15.4628 9.914
15.4780 9.937
15.4932 10.094
15.5084 9.930
15.5235 9.809
15.5387 9.827
15.5539 10.048
15.5691 9.964
15.5842 9.986
15.5994 10.115
15.6146 9.870
15.6298 9.524
15.6449 10.051
15.6601 9.727
15.6753 10.040
15.6905 10.036
15.7056 9.792
15.7208 9.854
15.7360 9.986
15.7512 9.681
15.7663 9.680
15.7815 9.658
15.7967 9.908
15.8119 9.943
15.8270 9.673
15.8422 9.568
15.8574 9.719
15.8726 9.495
15.8877 9.503
15.9029 9.461
15.9181 9.540
15.9333 9.631
15.9484 9.612
15.9636 9.527
15.9788 9.492
15.9940 9.558
16.0091 9.424
16.0243 9.410
16.0395 9.598
16.0547 9.581
16.0698 9.751
16.0850 9.820
16.1002 9.818
16.1154 9.757
16.1305 9.482
16.1457 9.457
16.1609 9.746
16.1761 9.518
16.1912 9.561
16.2064 9.765
16.2216 9.800
16.2368 9.698
16.2519 9.569
16.2671 9.514
16.2823 9.590
16.2975 9.785
16.3126 9.640
16.3278 9.641
16.3430 9.581
16.3582 9.705
16.3733 9.655
16.3885 9.898
16.4037 9.731
16.4189 9.773
16.4340 9.618
16.4492 9.597
16.4644 9.893
16.4796 9.607
16.4947 9.483
16.5099 9.560
16.5251 9.559
16.5403 9.511
16.5554 9.457
16.5706 9.388
16.5858 9.446
16.6010 9.474
16.6161 9.597
16.6313 9.720
16.6465 9.590
16.6617 9.456
16.6768 9.605
16.6920 9.875
16.7072 9.835
16.7224 9.715
16.7375 9.804
16.7527 9.791
16.7679 9.703
16.7831 9.900
16.7982 9.978
16.8134 9.783
16.8286 9.770
16.8438 9.771
16.8589 9.759
16.8741 9.741
16.8893 9.900
16.9045 9.715
16.9196 9.552
16.9348 9.671
16.9500 9.696
16.9652 9.544
16.9803 9.570
16.9955 9.584
17.0107 9.634
17.0259 9.769
17.0410 9.844
17.0562 9.869
17.0714 9.965
17.0866 10.261
17.1017 10.326
17.1169 10.477
17.1321 10.730
17.1473 11.051
17.1624 11.317
17.1776 11.927
17.1928 12.867
17.2080 13.615
17.2231 14.503
17.2383 15.568
17.2535 16.797
17.2687 18.150
17.2838 18.760
17.2990 17.950
17.3142 16.903
17.3294 16.261
17.3445 15.772
17.3597 15.868
17.3749 15.756
17.3901 15.031
17.4052 14.040
17.4204 13.075
17.4356 12.456
17.4508 11.822
17.4659 11.490
17.4811 11.430
17.4963 11.188
17.5115 11.019
17.5266 10.869
17.5418 10.839
17.5570 10.998
17.5722 10.887
17.5873 10.841
17.6025 11.006
17.6177 11.189
17.6329 11.295
17.6480 11.224
17.6632 11.390
17.6784 11.834
17.6936 12.104
17.7087 11.943
17.7239 11.662
17.7391 11.438
17.7543 11.239
17.7694 11.277
17.7846 11.456
17.7998 11.179
17.8150 10.922
17.8301 10.713
17.8453 10.663
17.8605 10.574
17.8757 10.326
17.8908 10.607
17.9060 10.681
17.9212 10.474
17.9364 10.068
17.9515 10.079
17.9667 10.211
17.9819 10.217
17.9971 10.183
18.0122 10.217
18.0274 10.268
18.0426 10.286
18.0578 10.248
18.0729 10.152
18.0881 9.996
18.1033 9.905
18.1185 9.909
18.1336 10.063
18.1488 10.287
18.1640 10.125
18.1792 10.075
18.1943 10.013
18.2095 9.987
18.2247 9.897
18.2399 9.874
18.2550 9.889
18.2702 9.747
18.2854 10.007
18.3006 10.030
18.3157 9.837
18.3309 9.984
18.3461 9.986
18.3613 9.651
18.3764 9.629
18.3916 9.805
18.4068 9.608
18.4220 9.655
18.4371 9.804
18.4523 9.768
18.4675 9.824
18.4827 9.927
18.4978 9.840
18.5130 9.652
18.5282 9.724
18.5434 9.941
18.5585 9.942
18.5737 9.678
18.5889 9.543
18.6041 9.664
18.6192 9.631
18.6344 9.856
18.6496 9.872
18.6648 9.836
18.6799 9.875
18.6951 9.762
18.7103 9.743
18.7255 9.722
18.7406 9.818
18.7558 9.830
18.7710 9.772
18.7862 9.865
18.8013 9.816
18.8165 9.490
18.8317 9.885
18.8469 9.909
18.8620 10.022
18.8772 10.101
18.8924 9.927
18.9076 9.813
18.9227 9.766
18.9379 9.988
18.9531 10.301
18.9683 9.978
18.9834 9.843
18.9986 9.929
19.0138 9.970
19.0290 9.984
19.0441 10.077
19.0593 10.213
19.0745 10.210
19.0897 10.375
19.1048 10.419
19.1200 10.304
19.1352 10.478
19.1504 10.471
19.1655 10.406
19.1807 10.524
19.1959 10.890
19.2111 10.609
19.2262 10.745
19.2414 10.932
19.2566 10.799
19.2718 10.829
19.2869 10.785
19.3021 10.841
19.3173 10.845
19.3325 11.020
19.3476 11.146
19.3628 11.087
19.3780 11.188
19.3932 11.170
19.4083 11.127
19.4235 11.008
19.4387 11.308
19.4539 11.338
19.4690 11.214
19.4842 11.201
19.4994 11.275
19.5146 11.385
19.5297 11.561
19.5449 11.624
19.5601 11.700
19.5753 11.799
19.5904 11.585
19.6056 11.763
19.6208 11.794
19.6360 11.469
19.6511 11.682
19.6663 11.816
19.6815 11.652
19.6967 11.835
19.7118 11.875
19.7270 11.724
19.7422 11.604
19.7574 11.693
19.7725 11.722
19.7877 11.611
19.8029 11.553
19.8180 11.766
19.8332 12.135
19.8484 12.266
19.8636 12.270
19.8787 12.364
19.8939 12.591
19.9091 12.975
19.9243 13.317
19.9394 13.794
19.9546 14.162
19.9698 14.461
19.9850 14.471
20.0001 14.373
20.0153 14.221
20.0305 13.990
20.0457 13.861
20.0608 13.650
20.0760 13.612
20.0912 13.584
20.1064 13.419
20.1215 13.286
20.1367 13.064
20.1519 12.917
20.1671 13.020
20.1822 12.900
20.1974 12.680
20.2126 12.763
20.2278 12.605
20.2429 12.366
20.2581 12.342
20.2733 12.205
20.2885 12.095
20.3036 12.005
20.3188 12.044
20.3340 12.264
20.3492 12.208
20.3643 11.809
20.3795 11.639
20.3947 11.556
20.4099 11.554
20.4250 11.876
20.4402 12.016
20.4554 11.963
20.4706 11.911
20.4857 12.224
20.5009 12.150
20.5161 11.689
20.5313 11.646
20.5464 11.756
20.5616 11.708
20.5768 11.498
20.5920 11.316
20.6071 11.270
20.6223 11.215
20.6375 11.087
20.6527 10.962
20.6678 11.005
20.6830 10.914
20.6982 10.691
20.7134 10.810
20.7285 10.490
20.7437 10.673
20.7589 10.706
20.7741 10.609
20.7892 10.355
20.8044 10.764
20.8196 10.624
20.8348 10.470
20.8499 10.227
20.8651 9.859
20.8803 10.145
20.8955 10.416
20.9106 10.269
20.9258 10.104
20.9410 10.110
20.9562 10.146
20.9713 10.420
20.9865 10.183
21.0017 10.179
21.0169 9.795
21.0320 9.929
21.0472 9.931
21.0624 10.010
21.0776 9.998
21.0927 10.083
21.1079 9.575
21.1231 9.937
21.1383 9.866
21.1534 9.854
21.1686 9.782
21.1838 9.987
21.1990 9.816
21.2141 9.679
21.2293 9.986
21.2445 9.465
21.2597 9.409
21.2748 9.503
21.2900 9.511
21.3052 9.606
21.3204 9.484
21.3355 9.728
21.3507 9.689
21.3659 9.806
21.3811 9.608
21.3962 9.448
21.4114 9.451
21.4266 9.587
21.4418 9.493
21.4569 9.318
21.4721 9.381
21.4873 9.365
21.5025 9.553
21.5176 9.345
21.5328 9.106
21.5480 9.352
21.5632 9.230
21.5783 9.200
21.5935 9.391
21.6087 9.456
21.6239 9.226
21.6390 9.243
21.6542 9.401
21.6694 9.220
21.6846 9.067
21.6997 9.018
21.7149 8.823
21.7301 9.070
21.7453 9.138
21.7604 9.072
21.7756 8.935
21.7908 8.966
21.8060 8.984
21.8211 8.775
21.8363 8.758
21.8515 8.793
21.8667 8.978
21.8818 9.208
21.8970 8.980
21.9122 9.026
21.9274 8.951
21.9425 8.854
21.9577 8.860
21.9729 8.907
21.9881 9.048
22.0032 8.870
22.0184 8.844
22.0336 8.983
22.0488 8.765
22.0639 8.628
22.0791 8.717
22.0943 8.726
22.1095 8.680
22.1246 8.577
22.1398 8.738
22.1550 8.843
22.1702 8.746
22.1853 8.480
22.2005 8.595
22.2157 8.566
22.2309 8.563
22.2460 8.736
22.2612 8.671
22.2764 8.415
22.2916 8.566
22.3067 8.842
22.3219 8.605
22.3371 8.592
22.3523 8.493
22.3674 8.444
22.3826 8.405
22.3978 8.242
22.4130 8.417
22.4281 8.484
22.4433 8.565
22.4585 8.305
22.4737 8.364
22.4888 8.261
22.5040 8.489
22.5192 8.319
22.5344 8.090
22.5495 8.427
22.5647 8.426
22.5799 8.375
22.5951 8.309
22.6102 8.361
22.6254 8.411
22.6406 8.197
22.6558 8.234
22.6709 8.304
22.6861 8.252
22.7013 8.023
22.7165 7.968
22.7316 6.384
