'Id: "" Comment: "" Operator: "Lab Manager" Anode: "Mo" Scantype: "Still (Eiger2R_500K (1D mode))" TimePerStep: "300" X: "11.8" Y: "9.4" Z: "11.284" 
7.2532 18.625
7.2684 19.020
7.2836 19.200
7.2987 18.745
7.3139 18.786
7.3291 18.945
7.3443 19.128
7.3594 19.344
7.3746 18.652
7.3898 19.610
7.4050 18.596
7.4201 19.141
7.4353 19.228
7.4505 19.386
7.4657 19.550
7.4808 19.814
7.4960 19.497
7.5112 19.596
7.5264 19.568
7.5415 19.832
7.5567 19.560
7.5719 19.617
7.5871 19.845
7.6022 20.085
7.6174 19.775
7.6326 20.106
7.6478 19.897
7.6629 20.287
7.6781 20.305
7.6933 19.787
7.7085 19.765
7.7236 20.208
7.7388 20.347
7.7540 20.497
7.7692 20.681
7.7843 20.575
7.7995 20.663
7.8147 20.649
7.8299 20.254
7.8450 20.330
7.8602 20.709
7.8754 20.687
7.8905 20.582
7.9057 20.481
7.9209 20.580
7.9361 20.782
7.9512 21.054
7.9664 20.855
7.9816 20.663
7.9968 20.739
8.0119 21.057
8.0271 21.403
8.0423 21.146
8.0575 21.435
8.0726 20.956
8.0878 20.811
8.1030 20.816
8.1182 21.000
8.1333 20.997
8.1485 21.413
8.1637 21.180
8.1789 21.569
8.1940 21.286
8.2092 21.083
8.2244 21.621
8.2396 21.681
8.2547 21.868
8.2699 21.441
8.2851 21.809
8.3003 21.657
8.3154 21.856
8.3306 21.218
8.3458 21.613
8.3610 21.482
8.3761 21.541
8.3913 21.841
8.4065 21.644
8.4217 22.027
8.4368 21.539
8.4520 21.944
8.4672 21.980
8.4824 21.349
8.4975 21.496
8.5127 22.038
8.5279 22.188
8.5431 21.896
8.5582 22.183
8.5734 21.752
8.5886 22.026
8.6038 22.298
8.6189 22.415
8.6341 21.493
8.6493 22.080
8.6645 22.740
8.6796 22.440
8.6948 21.606
8.7100 21.983
8.7252 22.214
8.7403 22.030
8.7555 22.409
8.7707 22.390
8.7859 22.236
8.8010 22.909
8.8162 22.417
8.8314 22.142
8.8466 22.528
8.8617 22.885
8.8769 22.480
8.8921 22.138
8.9073 22.597
8.9224 22.425
8.9376 22.420
8.9528 22.596
8.9680 22.720
8.9831 22.129
8.9983 22.498
9.0135 22.603
9.0287 22.950
9.0438 22.634
9.0590 22.734
9.0742 22.895
9.0894 22.804
9.1045 22.288
9.1197 22.825
9.1349 22.777
9.1501 22.598
9.1652 22.726
9.1804 22.977
9.1956 22.505
9.2108 22.161
9.2259 22.495
9.2411 22.883
9.2563 23.192
9.2715 22.952
9.2866 22.519
9.3018 22.561
9.3170 22.969
9.3322 23.114
9.3473 22.963
9.3625 23.051
9.3777 22.864
9.3929 22.694
9.4080 22.817
9.4232 22.954
9.4384 22.878
9.4536 23.022
9.4687 23.013
9.4839 23.170
9.4991 23.156
9.5143 23.065
9.5294 22.937
9.5446 22.978
9.5598 22.888
9.5750 23.167
9.5901 23.126
9.6053 23.320
9.6205 23.212
9.6357 23.078
9.6508 23.217
9.6660 23.515
9.6812 23.757
9.6964 23.847
9.7115 23.814
9.7267 23.783
9.7419 24.276
9.7571 24.258
9.7722 23.996
9.7874 23.869
9.8026 23.552
9.8178 23.576
9.8329 23.370
9.8481 23.345
9.8633 23.271
9.8785 23.331
9.8936 23.357
9.9088 23.055
9.9240 23.172
9.9392 22.984
9.9543 23.303
9.9695 23.576
9.9847 23.378
9.9999 23.238
10.0150 23.078
10.0302 23.145
10.0454 23.302
10.0606 22.913
10.0757 22.925
10.0909 23.371
10.1061 23.311
10.1213 22.818
10.1364 22.812
10.1516 23.187
10.1668 23.565
10.1820 23.542
10.1971 23.072
10.2123 22.709
10.2275 22.735
10.2427 22.760
10.2578 22.730
10.2730 22.707
10.2882 22.725
10.3034 23.039
10.3185 23.329
10.3337 22.793
10.3489 22.419
10.3641 22.651
10.3792 22.393
10.3944 22.384
10.4096 22.572
10.4248 22.567
10.4399 22.660
10.4551 22.633
10.4703 22.970
10.4855 22.789
10.5006 22.660
10.5158 22.616
10.5310 22.149
10.5462 22.403
10.5613 22.842
10.5765 22.686
10.5917 22.407
10.6069 22.388
10.6220 22.215
10.6372 22.566
10.6524 22.876
10.6676 22.612
10.6827 22.502
10.6979 22.743
10.7131 22.481
10.7283 22.039
10.7434 22.398
10.7586 22.475
10.7738 22.850
10.7890 22.871
10.8041 22.297
10.8193 22.145
10.8345 21.830
10.8497 22.187
10.8648 22.033
10.8800 22.212
10.8952 21.934
10.9104 22.022
10.9255 22.186
10.9407 22.236
10.9559 22.060
10.9711 21.992
10.9862 22.153
11.0014 22.020
11.0166 22.415
11.0318 22.376
11.0469 21.864
11.0621 21.773
11.0773 22.278
11.0925 22.161
11.1076 21.821
11.1228 21.562
11.1380 21.304
11.1532 21.519
11.1683 21.685
11.1835 21.623
11.1987 21.362
11.2139 21.212
11.2290 21.526
11.2442 21.384
11.2594 21.458
11.2746 21.253
11.2897 21.390
11.3049 21.474
11.3201 21.492
11.3353 21.945
11.3504 21.747
11.3656 21.374
11.3808 21.147
11.3960 21.157
11.4111 21.197
11.4263 21.221
11.4415 21.028
11.4567 20.889
11.4718 21.077
11.4870 21.057
11.5022 21.135
11.5174 21.052
11.5325 21.348
11.5477 21.480
11.5629 21.064
11.5781 20.820
11.5932 21.295
11.6084 21.038
11.6236 20.652
11.6388 20.835
11.6539 20.527
11.6691 20.526
11.6843 20.456
11.6995 20.475
11.7146 20.969
11.7298 20.423
11.7450 20.140
11.7602 20.587
11.7753 20.337
11.7905 20.264
11.8057 20.285
11.8209 19.884
11.8360 19.981
11.8512 20.012
11.8664 20.163
11.8816 20.323
11.8967 19.983
11.9119 19.508
11.9271 19.534
11.9423 19.256
11.9574 19.405
11.9726 19.256
11.9878 19.251
12.0030 19.376
12.0181 19.380
12.0333 19.250
12.0485 18.917
12.0637 18.986
12.0788 19.077
12.0940 19.118
12.1092 19.136
12.1244 19.125
12.1395 18.663
12.1547 18.695
12.1699 18.682
12.1851 18.418
12.2002 18.295
12.2154 18.280
12.2306 18.191
12.2458 17.889
12.2609 17.794
12.2761 17.607
12.2913 17.834
12.3065 17.796
12.3216 17.749
12.3368 17.531
12.3520 17.541
12.3672 17.249
12.3823 17.077
12.3975 17.231
12.4127 17.085
12.4279 16.998
12.4430 16.919
12.4582 16.755
12.4734 16.687
12.4886 16.833
12.5037 16.657
12.5189 16.578
12.5341 16.633
12.5493 16.662
12.5644 16.496
12.5796 16.218
12.5948 16.225
12.6100 16.184
12.6251 15.992
12.6403 15.775
12.6555 15.607
12.6707 15.592
12.6858 15.509
12.7010 15.653
12.7162 15.561
12.7314 15.597
12.7465 15.580
12.7617 15.324
12.7769 15.038
12.7921 15.212
12.8072 15.205
12.8224 14.794
12.8376 14.877
12.8528 15.126
12.8679 15.080
12.8831 14.814
12.8983 14.633
12.9135 14.852
12.9286 14.735
12.9438 14.528
12.9590 14.437
12.9742 14.284
12.9893 14.227
13.0045 14.208
13.0197 14.196
13.0349 14.053
13.0500 14.087
13.0652 14.152
13.0804 13.779
13.0956 13.872
13.1107 13.975
13.1259 13.690
13.1411 13.676
13.1563 13.695
13.1714 13.518
13.1866 13.426
13.2018 13.441
13.2170 13.447
13.2321 13.327
13.2473 13.094
13.2625 13.293
13.2777 13.121
13.2928 13.095
13.3080 13.286
13.3232 13.031
13.3384 12.981
13.3535 13.035
13.3687 13.229
13.3839 13.180
13.3991 13.166
13.4142 12.967
13.4294 12.715
13.4446 12.850
13.4598 12.719
13.4749 12.439
13.4901 12.545
13.5053 12.426
13.5205 12.174
13.5356 12.286
13.5508 12.441
13.5660 12.226
13.5812 12.154
13.5963 12.296
13.6115 12.526
13.6267 12.546
13.6419 12.234
13.6570 12.229
13.6722 12.167
13.6874 11.852
13.7026 12.020
13.7177 12.328
13.7329 12.126
13.7481 12.089
13.7633 12.139
13.7784 12.229
13.7936 12.486
13.8088 12.581
13.8239 12.498
13.8391 12.493
13.8543 12.268
13.8695 12.166
13.8846 12.163
13.8998 12.142
13.9150 12.089
13.9302 12.008
13.9453 12.111
13.9605 12.107
13.9757 11.983
13.9909 11.625
14.0060 11.778
14.0212 11.799
14.0364 11.679
14.0516 11.345
14.0667 11.746
14.0819 11.537
14.0971 11.390
14.1123 11.611
14.1274 11.638
14.1426 11.779
14.1578 11.732
14.1730 11.989
14.1881 11.897
14.2033 11.831
14.2185 11.897
14.2337 12.036
14.2488 11.847
14.2640 12.001
14.2792 11.825
14.2944 12.020
14.3095 12.162
14.3247 11.871
14.3399 11.982
14.3551 12.032
14.3702 12.401
14.3854 12.704
14.4006 13.057
14.4158 13.189
14.4309 12.870
14.4461 12.560
14.4613 12.370
14.4765 12.321
14.4916 12.281
14.5068 11.773
14.5220 11.703
14.5372 11.811
14.5523 11.575
14.5675 11.243
14.5827 11.084
14.5979 10.695
14.6130 10.620
14.6282 10.413
14.6434 10.834
14.6586 10.650
14.6737 10.614
14.6889 10.863
14.7041 10.685
14.7193 10.975
14.7344 10.821
14.7496 10.793
14.7648 10.556
14.7800 10.291
14.7951 10.502
14.8103 10.533
14.8255 10.687
14.8407 10.112
14.8558 10.559
14.8710 10.605
14.8862 10.551
14.9014 10.494
14.9165 10.460
14.9317 10.505
14.9469 10.418
14.9621 10.401
14.9772 10.361
14.9924 10.314
15.0076 10.484
15.0228 10.596
15.0379 10.137
15.0531 10.606
15.0683 10.326
15.0835 10.712
15.0986 10.288
15.1138 10.663
15.1290 10.360
15.1442 10.359
15.1593 9.836
15.1745 9.999
15.1897 10.319
15.2049 10.060
15.2200 9.969
15.2352 10.032
15.2504 9.895
15.2656 10.230
15.2807 10.312
15.2959 9.908
15.3111 10.285
15.3263 9.817
15.3414 9.721
15.3566 10.027
15.3718 10.000
15.3870 9.647
15.4021 10.176
15.4173 9.752
15.4325 9.835
15.4477 10.291
15.4628 10.203
15.4780 9.880
15.4932 10.122
15.5084 10.315
15.5235 10.207
15.5387 9.828
15.5539 9.865
15.5691 10.234
15.5842 9.873
15.5994 9.840
15.6146 10.007
15.6298 9.650
15.6449 9.767
15.6601 9.881
15.6753 9.658
15.6905 9.695
15.7056 9.537
15.7208 9.565
15.7360 9.825
15.7512 9.833
15.7663 9.874
15.7815 9.839
15.7967 9.604
15.8119 9.620
15.8270 9.713
15.8422 9.946
15.8574 9.514
15.8726 10.052
15.8877 9.420
15.9029 9.387
15.9181 9.587
15.9333 9.879
15.9484 9.589
15.9636 9.637
15.9788 9.948
15.9940 9.818
16.0091 9.703
16.0243 9.439
16.0395 9.551
16.0547 9.330
16.0698 9.773
16.0850 9.744
16.1002 9.457
16.1154 9.701
16.1305 9.801
16.1457 9.483
16.1609 9.533
16.1761 9.618
16.1912 9.590
16.2064 9.508
16.2216 9.496
16.2368 9.959
16.2519 9.799
16.2671 9.547
16.2823 9.487
16.2975 9.548
16.3126 9.700
16.3278 9.677
16.3430 9.782
16.3582 9.850
16.3733 9.795
16.3885 9.689
16.4037 9.887
16.4189 9.846
16.4340 9.818
16.4492 9.709
16.4644 9.896
16.4796 9.738
16.4947 9.755
16.5099 9.850
16.5251 9.497
16.5403 9.469
16.5554 9.539
16.5706 9.770
16.5858 9.729
16.6010 9.860
16.6161 9.774
16.6313 9.690
16.6465 9.542
16.6617 9.513
16.6768 9.839
16.6920 9.943
16.7072 9.956
16.7224 10.018
16.7375 9.994
16.7527 9.867
16.7679 9.883
16.7831 9.828
16.7982 9.839
16.8134 9.907
16.8286 9.632
16.8438 9.483
16.8589 9.594
16.8741 9.533
16.8893 9.476
16.9045 9.434
16.9196 9.884
16.9348 9.995
16.9500 9.675
16.9652 9.773
16.9803 10.076
16.9955 9.901
17.0107 9.742
17.0259 9.862
17.0410 10.006
17.0562 9.892
17.0714 10.043
17.0866 10.438
17.1017 10.630
17.1169 10.596
17.1321 10.797
17.1473 11.091
17.1624 11.420
17.1776 11.970
17.1928 12.937
17.2080 13.976
17.2231 14.944
17.2383 16.246
17.2535 17.694
17.2687 18.456
17.2838 18.482
17.2990 17.949
17.3142 17.100
17.3294 16.319
17.3445 16.211
17.3597 16.280
17.3749 15.943
17.3901 15.215
17.4052 14.295
17.4204 13.646
17.4356 12.732
17.4508 11.907
17.4659 11.609
17.4811 11.592
17.4963 11.485
17.5115 11.300
17.5266 11.193
17.5418 11.021
17.5570 10.935
17.5722 11.082
17.5873 11.086
17.6025 11.014
17.6177 11.101
17.6329 11.294
17.6480 11.491
17.6632 11.624
17.6784 11.702
17.6936 11.534
17.7087 11.493
17.7239 11.274
17.7391 11.116
17.7543 11.016
17.7694 10.931
17.7846 10.995
17.7998 10.892
17.8150 10.503
17.8301 10.269
17.8453 10.382
17.8605 10.403
17.8757 10.477
17.8908 10.509
17.9060 10.244
17.9212 10.185
17.9364 10.049
17.9515 9.771
17.9667 9.946
17.9819 10.219
17.9971 10.245
18.0122 10.355
18.0274 10.351
18.0426 10.159
18.0578 9.859
18.0729 9.956
18.0881 10.114
18.1033 10.028
18.1185 9.875
18.1336 9.995
18.1488 10.058
18.1640 10.387
18.1792 10.314
18.1943 9.944
18.2095 10.020
18.2247 10.125
18.2399 9.841
18.2550 9.987
18.2702 9.931
18.2854 9.819
18.3006 10.024
18.3157 9.985
18.3309 10.103
18.3461 10.210
18.3613 9.794
18.3764 9.733
18.3916 9.634
18.4068 9.724
18.4220 9.786
18.4371 9.835
18.4523 9.658
18.4675 9.622
18.4827 9.864
18.4978 9.817
18.5130 9.854
18.5282 9.978
18.5434 9.986
18.5585 9.767
18.5737 9.779
18.5889 9.853
18.6041 9.701
18.6192 9.763
18.6344 9.938
18.6496 9.917
18.6648 9.804
18.6799 9.945
18.6951 9.794
18.7103 9.802
18.7255 9.837
18.7406 9.853
18.7558 9.945
18.7710 9.863
18.7862 10.005
18.8013 9.731
18.8165 9.507
18.8317 9.685
18.8469 9.770
18.8620 9.990
18.8772 10.220
18.8924 10.163
18.9076 9.900
18.9227 9.824
18.9379 9.949
18.9531 9.952
18.9683 9.908
18.9834 9.981
18.9986 10.063
19.0138 10.109
19.0290 10.238
19.0441 10.406
19.0593 10.229
19.0745 10.021
19.0897 10.153
19.1048 10.550
19.1200 10.589
19.1352 10.433
19.1504 10.297
19.1655 10.495
19.1807 10.546
19.1959 10.535
19.2111 10.693
19.2262 10.795
19.2414 10.853
19.2566 10.851
19.2718 10.931
19.2869 11.055
19.3021 10.968
19.3173 10.964
19.3325 11.122
19.3476 10.946
19.3628 11.160
19.3780 11.441
19.3932 11.164
19.4083 10.952
19.4235 11.119
19.4387 11.162
19.4539 11.185
19.4690 11.445
19.4842 11.523
19.4994 11.548
19.5146 11.635
19.5297 11.818
19.5449 11.766
19.5601 11.851
19.5753 11.892
19.5904 11.782
19.6056 11.781
19.6208 11.792
19.6360 11.623
19.6511 11.537
19.6663 11.572
19.6815 11.725
19.6967 11.833
19.7118 11.882
19.7270 11.928
19.7422 11.853
19.7574 12.016
19.7725 11.871
19.7877 11.583
19.8029 11.869
19.8180 12.346
19.8332 12.388
19.8484 12.378
19.8636 12.254
19.8787 12.484
19.8939 12.935
19.9091 12.977
19.9243 13.231
19.9394 13.714
19.9546 14.174
19.9698 14.385
19.9850 14.455
20.0001 14.501
20.0153 14.331
20.0305 13.983
20.0457 13.895
20.0608 13.847
20.0760 13.680
20.0912 13.835
20.1064 13.801
20.1215 13.641
20.1367 13.558
20.1519 13.245
20.1671 12.956
20.1822 13.159
20.1974 13.016
20.2126 12.736
20.2278 12.828
20.2429 12.584
20.2581 12.387
20.2733 12.419
20.2885 12.337
20.3036 12.272
20.3188 12.145
20.3340 12.142
20.3492 11.930
20.3643 11.888
20.3795 11.713
20.3947 11.592
20.4099 11.540
20.4250 11.652
20.4402 11.866
20.4554 11.846
20.4706 11.715
20.4857 11.570
20.5009 11.770
20.5161 11.716
20.5313 11.593
20.5464 11.416
20.5616 11.194
20.5768 11.419
20.5920 11.222
20.6071 11.246
20.6223 10.875
20.6375 11.211
20.6527 10.917
20.6678 10.696
20.6830 10.394
20.6982 10.410
20.7134 10.289
20.7285 10.437
20.7437 10.631
20.7589 10.380
20.7741 10.304
20.7892 10.489
20.8044 10.371
20.8196 10.405
20.8348 10.242
20.8499 10.018
20.8651 10.238
20.8803 10.336
20.8955 10.246
20.9106 10.245
20.9258 10.393
20.9410 10.197
20.9562 10.239
20.9713 10.165
20.9865 9.911
21.0017 9.939
21.0169 10.108
21.0320 10.019
21.0472 9.789
21.0624 9.899
21.0776 9.895
21.0927 10.005
21.1079 10.100
21.1231 9.487
21.1383 9.761
21.1534 9.990
21.1686 9.776
21.1838 9.693
21.1990 9.628
21.2141 9.877
21.2293 9.598
21.2445 9.553
21.2597 9.796
21.2748 9.521
21.2900 9.746
21.3052 9.810
21.3204 9.507
21.3355 9.589
21.3507 9.688
21.3659 9.337
21.3811 9.407
21.3962 9.347
21.4114 9.433
21.4266 9.521
21.4418 9.505
21.4569 9.503
21.4721 9.352
21.4873 9.058
21.5025 9.374
21.5176 9.274
21.5328 9.579
21.5480 9.383
21.5632 9.477
21.5783 9.544
21.5935 9.086
21.6087 9.189
21.6239 9.346
21.6390 9.133
21.6542 9.203
21.6694 9.292
21.6846 9.385
21.6997 9.121
21.7149 9.266
21.7301 8.989
21.7453 9.163
21.7604 9.181
21.7756 9.201
21.7908 9.228
21.8060 9.033
21.8211 8.889
21.8363 9.092
21.8515 9.020
21.8667 8.935
21.8818 8.968
21.8970 9.048
21.9122 9.159
21.9274 9.074
21.9425 9.033
21.9577 8.965
21.9729 9.036
21.9881 8.928
22.0032 8.847
22.0184 8.807
22.0336 8.742
22.0488 8.924
22.0639 9.017
22.0791 8.781
22.0943 8.527
22.1095 8.556
22.1246 8.671
22.1398 8.822
22.1550 8.726
22.1702 8.590
22.1853 8.703
22.2005 8.607
22.2157 8.622
22.2309 8.509
22.2460 8.655
22.2612 8.351
22.2764 8.358
22.2916 8.373
22.3067 8.570
22.3219 8.547
22.3371 8.620
22.3523 8.800
22.3674 8.526
22.3826 8.703
22.3978 8.640
22.4130 8.471
22.4281 8.553
22.4433 8.568
22.4585 8.570
22.4737 8.172
22.4888 8.286
22.5040 8.375
22.5192 8.525
22.5344 8.471
22.5495 8.258
22.5647 8.131
22.5799 8.384
22.5951 8.497
22.6102 8.682
22.6254 8.432
22.6406 8.343
22.6558 8.634
22.6709 8.631
22.6861 8.410
22.7013 8.362
22.7165 7.932
22.7316 6.415
