'Id: "" Comment: "" Operator: "Lab Manager" Anode: "Mo" Scantype: "Still (Eiger2R_500K (1D mode))" TimePerStep: "300" X: "11.8" Y: "9.4" Z: "11.284" 
7.2532 18.720
7.2684 18.835
7.2836 18.861
7.2987 19.170
7.3139 19.021
7.3291 18.805
7.3443 18.889
7.3594 19.407
7.3746 18.973
7.3898 19.182
7.4050 19.448
7.4201 19.440
7.4353 19.209
7.4505 19.375
7.4657 19.588
7.4808 19.981
7.4960 19.668
7.5112 19.726
7.5264 19.591
7.5415 19.767
7.5567 19.748
7.5719 19.628
7.5871 19.818
7.6022 20.024
7.6174 20.291
7.6326 20.129
7.6478 19.921
7.6629 20.078
7.6781 19.940
7.6933 20.075
7.7085 20.793
7.7236 20.993
7.7388 20.834
7.7540 20.961
7.7692 20.974
7.7843 20.757
7.7995 20.777
7.8147 20.441
7.8299 20.678
7.8450 20.986
7.8602 20.857
7.8754 21.102
7.8905 21.332
7.9057 20.983
7.9209 20.755
7.9361 20.940
7.9512 20.976
7.9664 20.878
7.9816 21.182
7.9968 21.374
8.0119 21.108
8.0271 21.329
8.0423 21.678
8.0575 21.323
8.0726 21.260
8.0878 21.570
8.1030 21.653
8.1182 21.234
8.1333 21.615
8.1485 21.370
8.1637 21.437
8.1789 21.414
8.1940 21.382
8.2092 21.711
8.2244 21.271
8.2396 21.775
8.2547 21.561
8.2699 21.743
8.2851 21.449
8.3003 21.978
8.3154 21.894
8.3306 21.363
8.3458 21.866
8.3610 21.976
8.3761 21.923
8.3913 21.763
8.4065 21.734
8.4217 21.732
8.4368 22.151
8.4520 22.125
8.4672 22.054
8.4824 21.719
8.4975 22.099
8.5127 21.895
8.5279 22.241
8.5431 22.190
8.5582 22.083
8.5734 22.785
8.5886 22.047
8.6038 22.075
8.6189 22.794
8.6341 22.919
8.6493 22.826
8.6645 22.638
8.6796 22.624
8.6948 22.905
8.7100 22.980
8.7252 23.166
8.7403 23.123
8.7555 22.938
8.7707 22.366
8.7859 22.419
8.8010 22.229
8.8162 22.631
8.8314 22.320
8.8466 22.786
8.8617 22.666
8.8769 22.600
8.8921 22.623
8.9073 22.326
8.9224 22.480
8.9376 22.869
8.9528 22.777
8.9680 22.553
8.9831 22.605
8.9983 22.741
9.0135 23.127
9.0287 22.617
9.0438 22.376
9.0590 22.648
9.0742 22.830
9.0894 22.872
9.1045 22.760
9.1197 23.073
9.1349 22.839
9.1501 22.934
9.1652 23.062
9.1804 22.920
9.1956 23.029
9.2108 22.965
9.2259 22.969
9.2411 23.115
9.2563 23.109
9.2715 23.243
9.2866 23.264
9.3018 23.171
9.3170 23.643
9.3322 23.537
9.3473 23.313
9.3625 23.132
9.3777 23.150
9.3929 23.296
9.4080 23.178
9.4232 23.499
9.4384 23.279
9.4536 23.083
9.4687 23.370
9.4839 23.349
9.4991 23.475
9.5143 23.404
9.5294 23.197
9.5446 23.434
9.5598 23.403
9.5750 23.072
9.5901 23.302
9.6053 23.567
9.6205 23.526
9.6357 23.543
9.6508 23.840
9.6660 23.946
9.6812 23.643
9.6964 23.704
9.7115 24.070
9.7267 24.093
9.7419 23.764
9.7571 23.649
9.7722 23.698
9.7874 24.012
9.8026 23.725
9.8178 23.391
9.8329 23.498
9.8481 23.542
9.8633 23.334
9.8785 23.310
9.8936 23.290
9.9088 23.042
9.9240 23.156
9.9392 23.226
9.9543 23.299
9.9695 23.556
9.9847 23.454
9.9999 23.241
10.0150 23.106
10.0302 23.196
10.0454 23.223
10.0606 23.109
10.0757 23.072
10.0909 23.252
10.1061 23.316
10.1213 23.372
10.1364 23.219
10.1516 23.427
10.1668 23.639
10.1820 23.475
10.1971 23.208
10.2123 23.661
10.2275 23.850
10.2427 23.853
10.2578 23.783
10.2730 23.391
10.2882 23.245
10.3034 23.445
10.3185 23.292
10.3337 23.477
10.3489 23.641
10.3641 23.283
10.3792 23.267
10.3944 23.298
10.4096 23.061
10.4248 22.800
10.4399 22.987
10.4551 22.862
10.4703 22.726
10.4855 22.567
10.5006 22.729
10.5158 22.842
10.5310 22.890
10.5462 22.662
10.5613 22.351
10.5765 22.509
10.5917 23.196
10.6069 22.998
10.6220 23.193
10.6372 22.562
10.6524 22.527
10.6676 23.009
10.6827 22.847
10.6979 22.493
10.7131 22.557
10.7283 22.704
10.7434 22.578
10.7586 22.217
10.7738 22.264
10.7890 22.149
10.8041 22.142
10.8193 22.224
10.8345 22.496
10.8497 22.312
10.8648 22.223
10.8800 22.349
10.8952 22.184
10.9104 22.248
10.9255 22.350
10.9407 22.010
10.9559 21.876
10.9711 22.123
10.9862 22.307
11.0014 22.301
11.0166 22.172
11.0318 22.399
11.0469 22.140
11.0621 21.545
11.0773 22.055
11.0925 21.945
11.1076 21.553
11.1228 21.876
11.1380 21.940
11.1532 22.099
11.1683 21.905
11.1835 21.783
11.1987 21.902
11.2139 22.483
11.2290 22.408
11.2442 21.755
11.2594 22.271
11.2746 21.945
11.2897 22.004
11.3049 21.985
11.3201 22.291
11.3353 21.946
11.3504 21.415
11.3656 21.437
11.3808 21.711
11.3960 21.399
11.4111 21.349
11.4263 21.027
11.4415 20.933
11.4567 21.166
11.4718 21.630
11.4870 21.271
11.5022 20.998
11.5174 21.258
11.5325 21.188
11.5477 21.036
11.5629 20.862
11.5781 20.922
11.5932 21.034
11.6084 20.811
11.6236 20.812
11.6388 20.600
11.6539 20.501
11.6691 20.632
11.6843 21.071
11.6995 20.610
11.7146 20.536
11.7298 20.664
11.7450 20.355
11.7602 20.650
11.7753 20.769
11.7905 20.437
11.8057 20.051
11.8209 19.987
11.8360 19.925
11.8512 20.032
11.8664 19.994
11.8816 19.922
11.8967 19.928
11.9119 19.716
11.9271 19.708
11.9423 19.753
11.9574 19.479
11.9726 19.367
11.9878 19.362
12.0030 19.184
12.0181 19.216
12.0333 19.164
12.0485 18.934
12.0637 18.916
12.0788 18.918
12.0940 18.947
12.1092 18.936
12.1244 18.612
12.1395 18.448
12.1547 18.582
12.1699 18.738
12.1851 18.541
12.2002 18.427
12.2154 18.396
12.2306 18.193
12.2458 18.221
12.2609 17.853
12.2761 17.968
12.2913 17.948
12.3065 17.657
12.3216 17.662
12.3368 17.720
12.3520 17.586
12.3672 17.451
12.3823 17.326
12.3975 17.300
12.4127 17.123
12.4279 17.168
12.4430 17.058
12.4582 16.887
12.4734 17.057
12.4886 17.265
12.5037 17.150
12.5189 17.050
12.5341 17.059
12.5493 16.416
12.5644 16.204
12.5796 16.350
12.5948 16.247
12.6100 16.128
12.6251 16.039
12.6403 16.001
12.6555 16.085
12.6707 15.984
12.6858 15.868
12.7010 15.732
12.7162 15.731
12.7314 15.742
12.7465 15.876
12.7617 15.551
12.7769 15.265
12.7921 15.628
12.8072 15.521
12.8224 15.195
12.8376 15.161
12.8528 15.211
12.8679 15.032
12.8831 15.112
12.8983 15.063
12.9135 14.606
12.9286 14.733
12.9438 14.671
12.9590 14.656
12.9742 14.807
12.9893 14.691
13.0045 14.719
13.0197 14.564
13.0349 14.444
13.0500 14.148
13.0652 13.822
13.0804 14.108
13.0956 14.183
13.1107 14.142
13.1259 13.879
13.1411 13.817
13.1563 14.117
13.1714 13.803
13.1866 13.623
13.2018 13.537
13.2170 13.537
13.2321 13.654
13.2473 13.478
13.2625 13.212
13.2777 13.178
13.2928 13.420
13.3080 13.293
13.3232 13.028
13.3384 13.178
13.3535 13.436
13.3687 13.372
13.3839 13.044
13.3991 12.889
13.4142 13.148
13.4294 12.958
13.4446 12.861
13.4598 12.911
13.4749 12.621
13.4901 12.739
13.5053 12.862
13.5205 12.851
13.5356 12.790
13.5508 12.669
13.5660 12.591
13.5812 12.507
13.5963 12.373
13.6115 12.293
13.6267 12.284
13.6419 12.069
13.6570 12.114
13.6722 12.234
13.6874 12.167
13.7026 12.328
13.7177 12.336
13.7329 12.393
13.7481 12.352
13.7633 12.205
13.7784 12.208
13.7936 12.125
13.8088 12.330
13.8239 12.460
13.8391 12.377
13.8543 12.343
13.8695 12.229
13.8846 12.177
13.8998 12.190
13.9150 12.438
13.9302 12.046
13.9453 11.815
13.9605 12.100
13.9757 11.888
13.9909 11.551
14.0060 11.616
14.0212 11.662
14.0364 11.596
14.0516 11.771
14.0667 11.785
14.0819 11.713
14.0971 11.625
14.1123 11.733
14.1274 11.521
14.1426 11.569
14.1578 11.748
14.1730 11.596
14.1881 11.744
14.2033 11.558
14.2185 11.739
14.2337 11.488
14.2488 11.756
14.2640 11.559
14.2792 11.621
14.2944 11.765
14.3095 11.964
14.3247 12.290
14.3399 12.206
14.3551 12.444
14.3702 12.538
14.3854 12.555
14.4006 12.821
14.4158 13.027
14.4309 12.285
14.4461 12.394
14.4613 12.311
14.4765 11.715
14.4916 12.062
14.5068 11.875
14.5220 11.505
14.5372 11.275
14.5523 11.216
14.5675 11.000
14.5827 10.846
14.5979 10.994
14.6130 11.035
14.6282 11.119
14.6434 10.860
14.6586 10.893
14.6737 11.252
14.6889 10.837
14.7041 10.888
14.7193 10.812
14.7344 11.044
14.7496 10.854
14.7648 10.929
14.7800 10.941
14.7951 10.822
14.8103 10.615
14.8255 10.723
14.8407 10.691
14.8558 10.444
14.8710 10.609
14.8862 10.951
14.9014 10.754
14.9165 11.130
14.9317 10.754
14.9469 10.887
14.9621 10.682
14.9772 10.655
14.9924 10.313
15.0076 10.685
15.0228 10.575
15.0379 10.565
15.0531 10.586
15.0683 10.558
15.0835 10.135
15.0986 10.158
15.1138 10.774
15.1290 10.552
15.1442 10.611
15.1593 10.370
15.1745 10.754
15.1897 10.276
15.2049 10.423
15.2200 10.039
15.2352 10.305
15.2504 10.368
15.2656 10.061
15.2807 10.409
15.2959 10.347
15.3111 10.410
15.3263 9.935
15.3414 10.148
15.3566 10.620
15.3718 10.363
15.3870 10.371
15.4021 10.302
15.4173 10.365
15.4325 10.694
15.4477 10.474
15.4628 10.272
15.4780 10.684
15.4932 10.439
15.5084 10.024
15.5235 10.165
15.5387 10.486
15.5539 10.409
15.5691 10.552
15.5842 10.520
15.5994 10.217
15.6146 10.305
15.6298 10.379
15.6449 9.893
15.6601 9.944
15.6753 10.014
15.6905 9.814
15.7056 9.884
15.7208 9.985
15.7360 9.891
15.7512 10.090
15.7663 10.047
15.7815 9.925
15.7967 9.683
15.8119 9.797
15.8270 9.819
15.8422 9.996
15.8574 9.942
15.8726 9.745
15.8877 9.607
15.9029 9.783
15.9181 9.914
15.9333 9.884
15.9484 10.063
15.9636 9.881
15.9788 9.781
15.9940 9.737
16.0091 9.938
16.0243 9.988
16.0395 10.019
16.0547 9.970
16.0698 9.785
16.0850 9.781
16.1002 9.720
16.1154 9.501
16.1305 9.571
16.1457 9.754
16.1609 9.909
16.1761 9.837
16.1912 9.586
16.2064 10.000
16.2216 9.474
16.2368 9.879
16.2519 9.842
16.2671 9.840
16.2823 9.910
16.2975 10.174
16.3126 10.174
16.3278 9.934
16.3430 9.928
16.3582 10.156
16.3733 10.191
16.3885 10.190
16.4037 10.101
16.4189 10.174
16.4340 9.928
16.4492 9.845
16.4644 10.111
16.4796 9.947
16.4947 9.830
16.5099 9.743
16.5251 9.471
16.5403 9.768
16.5554 9.792
16.5706 9.765
16.5858 9.864
16.6010 9.934
16.6161 9.946
16.6313 10.082
16.6465 9.871
16.6617 9.830
16.6768 9.873
16.6920 9.925
16.7072 9.945
16.7224 10.139
16.7375 10.154
16.7527 10.054
16.7679 9.813
16.7831 9.890
16.7982 9.964
16.8134 9.718
16.8286 9.955
16.8438 9.861
16.8589 9.771
16.8741 10.001
16.8893 9.874
16.9045 9.747
16.9196 9.944
16.9348 9.877
16.9500 9.666
16.9652 9.910
16.9803 10.081
16.9955 10.349
17.0107 10.133
17.0259 9.823
17.0410 10.011
17.0562 10.108
17.0714 10.176
17.0866 10.336
17.1017 10.522
17.1169 10.753
17.1321 11.236
17.1473 11.414
17.1624 11.748
17.1776 12.411
17.1928 13.367
17.2080 14.369
17.2231 15.175
17.2383 16.296
17.2535 17.519
17.2687 18.652
17.2838 18.989
17.2990 18.035
17.3142 16.943
17.3294 16.545
17.3445 16.307
17.3597 16.005
17.3749 16.060
17.3901 15.496
17.4052 14.389
17.4204 13.360
17.4356 12.248
17.4508 12.012
17.4659 11.960
17.4811 11.499
17.4963 11.503
17.5115 11.487
17.5266 11.073
17.5418 10.761
17.5570 10.873
17.5722 11.170
17.5873 11.267
17.6025 11.178
17.6177 11.073
17.6329 11.065
17.6480 10.831
17.6632 10.626
17.6784 10.650
17.6936 10.506
17.7087 10.590
17.7239 10.804
17.7391 10.412
17.7543 10.189
17.7694 10.244
17.7846 10.238
17.7998 10.147
17.8150 10.059
17.8301 9.988
17.8453 9.856
17.8605 10.204
17.8757 10.428
17.8908 10.311
17.9060 10.328
17.9212 10.243
17.9364 10.064
17.9515 10.072
17.9667 10.320
17.9819 10.555
17.9971 10.441
18.0122 10.206
18.0274 10.332
18.0426 10.317
18.0578 10.297
18.0729 10.192
18.0881 10.158
18.1033 10.156
18.1185 10.175
18.1336 10.084
18.1488 9.961
18.1640 9.967
18.1792 9.936
18.1943 9.911
18.2095 10.122
18.2247 10.074
18.2399 10.016
18.2550 10.067
18.2702 10.055
18.2854 10.015
18.3006 9.929
18.3157 10.053
18.3309 10.036
18.3461 9.812
18.3613 9.877
18.3764 9.791
18.3916 9.748
18.4068 9.898
18.4220 9.809
18.4371 9.682
18.4523 9.938
18.4675 9.845
18.4827 9.731
18.4978 9.424
18.5130 9.613
18.5282 9.900
18.5434 9.963
18.5585 9.902
18.5737 9.681
18.5889 9.480
18.6041 9.548
18.6192 9.643
18.6344 9.638
18.6496 9.758
18.6648 9.956
18.6799 9.806
18.6951 9.624
18.7103 9.470
18.7255 9.674
18.7406 9.927
18.7558 9.855
18.7710 9.658
18.7862 9.738
18.8013 9.821
18.8165 9.708
18.8317 9.657
18.8469 9.753
18.8620 9.814
18.8772 9.874
18.8924 9.945
18.9076 9.912
18.9227 10.054
18.9379 10.156
18.9531 10.168
18.9683 10.166
18.9834 10.118
18.9986 10.330
19.0138 10.241
19.0290 10.040
19.0441 10.119
19.0593 10.276
19.0745 10.369
19.0897 10.371
19.1048 10.442
19.1200 10.265
19.1352 10.157
19.1504 10.447
19.1655 10.631
19.1807 10.783
19.1959 10.766
19.2111 10.543
19.2262 10.742
19.2414 10.954
19.2566 10.963
19.2718 10.899
19.2869 10.861
19.3021 10.922
19.3173 10.970
19.3325 11.167
19.3476 11.164
19.3628 11.095
19.3780 11.297
19.3932 11.381
19.4083 11.292
19.4235 11.429
19.4387 11.483
19.4539 11.246
19.4690 11.325
19.4842 11.533
19.4994 11.529
19.5146 11.421
19.5297 11.433
19.5449 11.751
19.5601 11.641
19.5753 11.761
19.5904 11.811
19.6056 11.640
19.6208 11.635
19.6360 11.704
19.6511 11.914
19.6663 11.897
19.6815 11.902
19.6967 11.856
19.7118 11.705
19.7270 11.662
19.7422 11.778
19.7574 11.806
19.7725 11.922
19.7877 11.951
19.8029 11.874
19.8180 11.999
19.8332 12.260
19.8484 12.430
19.8636 12.482
19.8787 12.725
19.8939 12.765
19.9091 13.041
19.9243 13.503
19.9394 13.515
19.9546 13.946
19.9698 14.255
19.9850 14.348
20.0001 14.436
20.0153 14.180
20.0305 14.005
20.0457 13.769
20.0608 13.845
20.0760 13.850
20.0912 13.779
20.1064 13.682
20.1215 13.547
20.1367 13.263
20.1519 13.154
20.1671 13.008
20.1822 13.024
20.1974 12.906
20.2126 13.021
20.2278 13.112
20.2429 12.759
20.2581 12.477
20.2733 12.049
20.2885 11.924
20.3036 11.897
20.3188 11.629
20.3340 11.666
20.3492 11.536
20.3643 11.508
20.3795 11.405
20.3947 11.265
20.4099 11.063
20.4250 11.004
20.4402 10.708
20.4554 10.548
20.4706 10.545
20.4857 10.682
20.5009 10.500
20.5161 10.624
20.5313 10.570
20.5464 10.564
20.5616 10.435
20.5768 10.823
20.5920 10.609
20.6071 10.592
20.6223 10.662
20.6375 10.834
20.6527 10.737
20.6678 10.405
20.6830 10.378
20.6982 10.681
20.7134 10.508
20.7285 10.400
20.7437 10.572
20.7589 10.242
20.7741 10.355
20.7892 10.290
20.8044 10.717
20.8196 10.584
20.8348 10.363
20.8499 10.136
20.8651 10.032
20.8803 10.131
20.8955 10.040
20.9106 9.798
20.9258 10.241
20.9410 10.315
20.9562 10.271
20.9713 10.390
20.9865 10.131
21.0017 10.286
21.0169 10.096
21.0320 9.954
21.0472 10.303
21.0624 10.198
21.0776 9.724
21.0927 9.574
21.1079 9.702
21.1231 10.164
21.1383 9.727
21.1534 9.619
21.1686 9.872
21.1838 9.673
21.1990 9.976
21.2141 9.857
21.2293 9.557
21.2445 9.578
21.2597 9.539
21.2748 9.241
21.2900 9.571
21.3052 9.389
21.3204 9.365
21.3355 9.555
21.3507 9.403
21.3659 10.039
21.3811 9.502
21.3962 9.485
21.4114 9.668
21.4266 9.567
21.4418 9.205
21.4569 9.485
21.4721 9.535
21.4873 9.323
21.5025 9.380
21.5176 9.480
21.5328 9.469
21.5480 9.567
21.5632 9.185
21.5783 9.262
21.5935 9.010
21.6087 8.994
21.6239 9.225
21.6390 9.174
21.6542 9.265
21.6694 9.179
21.6846 9.078
21.6997 9.126
21.7149 9.134
21.7301 8.940
21.7453 9.056
21.7604 8.999
21.7756 9.263
21.7908 8.997
21.8060 9.011
21.8211 9.170
21.8363 8.957
21.8515 9.058
21.8667 9.034
21.8818 9.050
21.8970 9.250
21.9122 9.097
21.9274 8.923
21.9425 8.855
21.9577 8.775
21.9729 9.101
21.9881 9.297
22.0032 8.926
22.0184 8.765
22.0336 8.855
22.0488 9.018
22.0639 8.836
22.0791 8.576
22.0943 8.530
22.1095 8.879
22.1246 8.928
22.1398 8.596
22.1550 8.542
22.1702 8.835
22.1853 8.679
22.2005 8.508
22.2157 8.537
22.2309 8.656
22.2460 8.885
22.2612 8.914
22.2764 8.912
22.2916 8.773
22.3067 8.520
22.3219 8.598
22.3371 8.664
22.3523 8.509
22.3674 8.533
22.3826 8.608
22.3978 8.602
22.4130 8.613
22.4281 8.491
22.4433 8.446
22.4585 8.820
22.4737 8.585
22.4888 8.275
22.5040 8.609
22.5192 8.390
22.5344 8.465
22.5495 8.701
22.5647 8.471
22.5799 8.652
22.5951 8.373
22.6102 8.522
22.6254 8.778
22.6406 8.599
22.6558 8.614
22.6709 8.603
22.6861 8.413
22.7013 8.160
22.7165 7.999
22.7316 6.512
