'Id: "" Comment: "" Operator: "Lab Manager" Anode: "Mo" Scantype: "Still (Eiger2R_500K (1D mode))" TimePerStep: "300" X: "11.8" Y: "9.4" Z: "11.284" 
7.2532 18.927
7.2684 19.446
7.2836 18.794
7.2987 18.655
7.3139 19.226
7.3291 19.542
7.3443 19.721
7.3594 19.403
7.3746 19.549
7.3898 19.724
7.4050 19.428
7.4201 19.574
7.4353 19.491
7.4505 19.206
7.4657 19.725
7.4808 19.583
7.4960 19.664
7.5112 19.480
7.5264 19.476
7.5415 19.653
7.5567 19.777
7.5719 20.194
7.5871 19.973
7.6022 20.081
7.6174 20.103
7.6326 19.978
7.6478 19.749
7.6629 20.231
7.6781 20.507
7.6933 20.016
7.7085 19.957
7.7236 20.647
7.7388 20.776
7.7540 20.633
7.7692 20.760
7.7843 20.695
7.7995 20.577
7.8147 20.428
7.8299 20.367
7.8450 20.393
7.8602 20.531
7.8754 20.767
7.8905 21.076
7.9057 20.889
7.9209 20.839
7.9361 21.140
7.9512 20.953
7.9664 20.951
7.9816 20.847
7.9968 21.157
8.0119 21.585
8.0271 21.291
8.0423 21.419
8.0575 21.237
8.0726 21.308
8.0878 21.494
8.1030 21.555
8.1182 21.398
8.1333 21.650
8.1485 21.782
8.1637 21.698
8.1789 21.460
8.1940 21.802
8.2092 21.970
8.2244 21.825
8.2396 22.015
8.2547 21.525
8.2699 21.815
8.2851 22.202
8.3003 21.865
8.3154 21.994
8.3306 22.199
8.3458 21.562
8.3610 22.091
8.3761 21.743
8.3913 21.681
8.4065 21.944
8.4217 21.735
8.4368 21.797
8.4520 22.157
8.4672 22.158
8.4824 22.303
8.4975 22.385
8.5127 21.871
8.5279 22.239
8.5431 21.898
8.5582 22.459
8.5734 21.993
8.5886 22.174
8.6038 22.063
8.6189 22.111
8.6341 22.049
8.6493 22.415
8.6645 22.729
8.6796 22.563
8.6948 22.304
8.7100 22.011
8.7252 22.474
8.7403 22.390
8.7555 22.062
8.7707 22.750
8.7859 22.580
8.8010 22.349
8.8162 22.461
8.8314 22.404
8.8466 22.747
8.8617 22.696
8.8769 22.365
8.8921 22.281
8.9073 22.570
8.9224 22.830
8.9376 22.436
8.9528 22.623
8.9680 22.440
8.9831 22.389
8.9983 22.676
9.0135 22.892
9.0287 22.175
9.0438 22.524
9.0590 22.719
9.0742 22.425
9.0894 22.291
9.1045 22.969
9.1197 22.547
9.1349 22.694
9.1501 22.768
9.1652 23.015
9.1804 22.860
9.1956 22.578
9.2108 23.170
9.2259 22.973
9.2411 23.089
9.2563 23.085
9.2715 22.798
9.2866 22.635
9.3018 22.758
9.3170 23.167
9.3322 23.194
9.3473 23.293
9.3625 22.888
9.3777 22.909
9.3929 23.329
9.4080 23.542
9.4232 23.359
9.4384 23.124
9.4536 22.992
9.4687 22.846
9.4839 23.176
9.4991 23.142
9.5143 23.090
9.5294 23.235
9.5446 23.286
9.5598 23.345
9.5750 23.354
9.5901 23.216
9.6053 23.484
9.6205 23.563
9.6357 23.300
9.6508 23.381
9.6660 23.780
9.6812 24.016
9.6964 23.863
9.7115 23.960
9.7267 24.380
9.7419 24.569
9.7571 24.095
9.7722 23.662
9.7874 23.901
9.8026 23.978
9.8178 23.846
9.8329 23.758
9.8481 23.767
9.8633 23.916
9.8785 24.041
9.8936 24.234
9.9088 24.260
9.9240 24.176
9.9392 24.187
9.9543 24.059
9.9695 23.984
9.9847 23.782
9.9999 23.633
10.0150 23.533
10.0302 23.604
10.0454 23.636
10.0606 23.650
10.0757 23.563
10.0909 23.369
10.1061 23.432
10.1213 23.463
10.1364 23.635
10.1516 23.508
10.1668 23.872
10.1820 24.052
10.1971 23.769
10.2123 23.696
10.2275 23.856
10.2427 23.613
10.2578 23.632
10.2730 23.880
10.2882 23.666
10.3034 23.673
10.3185 23.492
10.3337 23.446
10.3489 23.769
10.3641 23.531
10.3792 23.168
10.3944 23.099
10.4096 22.996
10.4248 23.209
10.4399 23.612
10.4551 23.363
10.4703 23.183
10.4855 23.038
10.5006 22.798
10.5158 22.801
10.5310 23.102
10.5462 23.161
10.5613 23.085
10.5765 22.686
10.5917 22.290
10.6069 22.443
10.6220 22.756
10.6372 22.586
10.6524 22.530
10.6676 22.773
10.6827 22.777
10.6979 22.513
10.7131 22.486
10.7283 22.569
10.7434 22.710
10.7586 22.891
10.7738 22.953
10.7890 22.377
10.8041 22.119
10.8193 22.288
10.8345 22.204
10.8497 22.365
10.8648 22.505
10.8800 22.288
10.8952 22.365
10.9104 22.313
10.9255 22.479
10.9407 22.218
10.9559 22.025
10.9711 22.136
10.9862 22.085
11.0014 21.847
11.0166 21.983
11.0318 22.259
11.0469 21.933
11.0621 21.888
11.0773 21.948
11.0925 21.758
11.1076 21.973
11.1228 22.175
11.1380 21.872
11.1532 21.771
11.1683 21.629
11.1835 21.889
11.1987 21.681
11.2139 21.502
11.2290 21.100
11.2442 21.064
11.2594 21.619
11.2746 21.776
11.2897 21.610
11.3049 21.798
11.3201 21.721
11.3353 21.287
11.3504 21.144
11.3656 21.446
11.3808 21.180
11.3960 21.402
11.4111 21.203
11.4263 21.254
11.4415 21.195
11.4567 21.139
11.4718 21.316
11.4870 21.113
11.5022 21.036
11.5174 21.233
11.5325 21.364
11.5477 21.322
11.5629 21.253
11.5781 21.186
11.5932 20.861
11.6084 20.590
11.6236 20.749
11.6388 20.870
11.6539 20.813
11.6691 20.557
11.6843 20.444
11.6995 20.386
11.7146 20.569
11.7298 20.443
11.7450 20.295
11.7602 20.324
11.7753 20.543
11.7905 20.183
11.8057 19.920
11.8209 20.322
11.8360 20.248
11.8512 20.113
11.8664 19.751
11.8816 19.747
11.8967 19.792
11.9119 19.727
11.9271 19.489
11.9423 19.200
11.9574 19.253
11.9726 19.357
11.9878 19.148
12.0030 19.094
12.0181 18.976
12.0333 19.127
12.0485 19.057
12.0637 18.595
12.0788 18.804
12.0940 18.842
12.1092 18.803
12.1244 18.647
12.1395 18.598
12.1547 18.278
12.1699 18.229
12.1851 18.170
12.2002 18.115
12.2154 18.119
12.2306 18.485
12.2458 18.333
12.2609 17.898
12.2761 17.923
12.2913 17.877
12.3065 17.647
12.3216 17.654
12.3368 17.511
12.3520 17.533
12.3672 17.741
12.3823 17.403
12.3975 17.102
12.4127 17.095
12.4279 16.954
12.4430 16.803
12.4582 16.809
12.4734 16.681
12.4886 16.455
12.5037 16.578
12.5189 16.365
12.5341 16.602
12.5493 16.458
12.5644 16.053
12.5796 16.194
12.5948 16.260
12.6100 16.351
12.6251 16.047
12.6403 16.074
12.6555 15.741
12.6707 15.517
12.6858 15.731
12.7010 15.833
12.7162 15.662
12.7314 15.504
12.7465 15.438
12.7617 15.297
12.7769 15.130
12.7921 14.922
12.8072 14.898
12.8224 14.856
12.8376 14.877
12.8528 14.910
12.8679 14.856
12.8831 14.737
12.8983 14.595
12.9135 14.509
12.9286 14.677
12.9438 14.586
12.9590 14.358
12.9742 14.500
12.9893 14.172
13.0045 14.009
13.0197 14.238
13.0349 14.264
13.0500 14.027
13.0652 13.987
13.0804 13.848
13.0956 13.666
13.1107 13.803
13.1259 13.796
13.1411 13.612
13.1563 13.582
13.1714 13.583
13.1866 13.288
13.2018 13.277
13.2170 13.392
13.2321 13.261
13.2473 13.231
13.2625 13.224
13.2777 13.162
13.2928 13.183
13.3080 13.169
13.3232 13.088
13.3384 13.122
13.3535 13.087
13.3687 13.125
13.3839 13.284
13.3991 13.027
13.4142 12.910
13.4294 12.908
13.4446 12.720
13.4598 12.702
13.4749 12.796
13.4901 12.629
13.5053 12.427
13.5205 12.397
13.5356 12.399
13.5508 12.404
13.5660 12.292
13.5812 12.179
13.5963 12.001
13.6115 11.885
13.6267 12.088
13.6419 12.240
13.6570 12.250
13.6722 12.144
13.6874 12.255
13.7026 12.002
13.7177 11.951
13.7329 12.064
13.7481 12.140
13.7633 12.217
13.7784 11.986
13.7936 11.858
13.8088 12.038
13.8239 12.418
13.8391 12.489
13.8543 12.113
13.8695 12.143
13.8846 11.948
13.8998 11.992
13.9150 11.945
13.9302 11.672
13.9453 11.831
13.9605 11.666
13.9757 11.597
13.9909 11.595
14.0060 11.597
14.0212 11.663
14.0364 11.514
14.0516 11.296
14.0667 11.274
14.0819 11.390
14.0971 11.198
14.1123 11.416
14.1274 11.336
14.1426 11.287
14.1578 11.382
14.1730 11.230
14.1881 11.110
14.2033 11.022
14.2185 11.374
14.2337 11.379
14.2488 11.425
14.2640 11.327
14.2792 11.396
14.2944 11.555
14.3095 11.718
14.3247 11.726
14.3399 11.902
14.3551 12.049
14.3702 12.641
14.3854 12.615
14.4006 12.898
14.4158 13.199
14.4309 13.067
14.4461 13.689
14.4613 13.740
14.4765 13.493
14.4916 13.277
14.5068 13.464
14.5220 13.302
14.5372 13.325
14.5523 13.187
14.5675 12.867
14.5827 12.856
14.5979 12.634
14.6130 12.476
14.6282 11.803
14.6434 11.947
14.6586 11.973
14.6737 11.684
14.6889 12.111
14.7041 11.657
14.7193 11.614
14.7344 11.462
14.7496 11.363
14.7648 11.437
14.7800 11.164
14.7951 11.060
14.8103 11.140
14.8255 11.038
14.8407 11.353
14.8558 11.093
14.8710 10.972
14.8862 11.193
14.9014 11.159
14.9165 11.469
14.9317 11.455
14.9469 11.080
14.9621 10.817
14.9772 10.819
14.9924 10.934
15.0076 10.907
15.0228 10.473
15.0379 10.720
15.0531 10.372
15.0683 10.615
15.0835 10.293
15.0986 10.702
15.1138 10.642
15.1290 10.688
15.1442 10.488
15.1593 10.497
15.1745 10.503
15.1897 10.561
15.2049 10.744
15.2200 10.387
15.2352 10.569
15.2504 10.635
15.2656 10.501
15.2807 10.330
15.2959 10.394
15.3111 10.444
15.3263 10.758
15.3414 10.386
15.3566 10.441
15.3718 9.981
15.3870 10.360
15.4021 10.237
15.4173 10.557
15.4325 10.455
15.4477 10.254
15.4628 10.410
15.4780 10.394
15.4932 10.684
15.5084 10.440
15.5235 10.337
15.5387 10.251
15.5539 10.433
15.5691 10.266
15.5842 10.361
15.5994 10.222
15.6146 10.385
15.6298 9.959
15.6449 9.865
15.6601 9.857
15.6753 10.167
15.6905 10.236
15.7056 10.194
15.7208 9.749
15.7360 9.917
15.7512 9.686
15.7663 9.890
15.7815 9.734
15.7967 9.993
15.8119 9.810
15.8270 10.065
15.8422 9.862
15.8574 9.803
15.8726 9.949
15.8877 9.615
15.9029 9.747
15.9181 9.818
15.9333 9.808
15.9484 9.965
15.9636 9.785
15.9788 9.667
15.9940 9.798
16.0091 9.873
16.0243 9.829
16.0395 9.640
16.0547 9.853
16.0698 9.962
16.0850 9.632
16.1002 9.705
16.1154 9.811
16.1305 9.617
16.1457 9.754
16.1609 9.599
16.1761 9.733
16.1912 9.759
16.2064 9.683
16.2216 9.869
16.2368 9.797
16.2519 9.736
16.2671 9.780
16.2823 10.076
16.2975 10.048
16.3126 10.202
16.3278 10.329
16.3430 10.164
16.3582 10.043
16.3733 9.970
16.3885 10.064
16.4037 10.256
16.4189 10.231
16.4340 10.139
16.4492 10.176
16.4644 9.922
16.4796 9.915
16.4947 9.942
16.5099 9.932
16.5251 9.812
16.5403 9.716
16.5554 9.632
16.5706 9.770
16.5858 9.637
16.6010 9.508
16.6161 9.728
16.6313 9.984
16.6465 10.102
16.6617 9.924
16.6768 10.025
16.6920 9.948
16.7072 9.885
16.7224 10.167
16.7375 10.311
16.7527 9.988
16.7679 9.994
16.7831 10.017
16.7982 9.915
16.8134 10.102
16.8286 10.045
16.8438 9.888
16.8589 9.701
16.8741 10.091
16.8893 10.168
16.9045 9.897
16.9196 9.949
16.9348 10.132
16.9500 10.187
16.9652 9.940
16.9803 9.925
16.9955 9.914
17.0107 9.897
17.0259 10.092
17.0410 10.297
17.0562 10.441
17.0714 10.360
17.0866 10.240
17.1017 10.535
17.1169 10.911
17.1321 11.078
17.1473 11.308
17.1624 11.993
17.1776 12.351
17.1928 12.852
17.2080 13.702
17.2231 14.882
17.2383 16.276
17.2535 17.500
17.2687 18.475
17.2838 18.676
17.2990 18.162
17.3142 17.172
17.3294 16.404
17.3445 16.167
17.3597 15.967
17.3749 16.000
17.3901 15.317
17.4052 14.198
17.4204 13.328
17.4356 12.178
17.4508 11.787
17.4659 11.613
17.4811 11.157
17.4963 11.120
17.5115 10.954
17.5266 10.657
17.5418 10.522
17.5570 10.475
17.5722 10.525
17.5873 10.371
17.6025 10.255
17.6177 10.195
17.6329 10.097
17.6480 10.148
17.6632 10.309
17.6784 10.511
17.6936 10.468
17.7087 10.240
17.7239 10.313
17.7391 10.575
17.7543 10.767
17.7694 10.890
17.7846 11.011
17.7998 11.306
17.8150 11.739
17.8301 12.241
17.8453 12.314
17.8605 12.686
17.8757 12.871
17.8908 12.582
17.9060 12.425
17.9212 12.282
17.9364 12.130
17.9515 12.062
17.9667 11.989
17.9819 11.751
17.9971 11.364
18.0122 10.996
18.0274 10.782
18.0426 10.866
18.0578 10.658
18.0729 10.274
18.0881 10.374
18.1033 10.390
18.1185 10.033
18.1336 10.211
18.1488 10.479
18.1640 10.288
18.1792 10.001
18.1943 9.982
18.2095 9.903
18.2247 10.002
18.2399 9.987
18.2550 9.868
18.2702 9.923
18.2854 10.212
18.3006 10.109
18.3157 9.995
18.3309 9.815
18.3461 9.643
18.3613 9.827
18.3764 10.102
18.3916 10.133
18.4068 9.990
18.4220 10.007
18.4371 9.947
18.4523 9.824
18.4675 9.899
18.4827 9.972
18.4978 9.957
18.5130 9.669
18.5282 9.712
18.5434 9.617
18.5585 9.574
18.5737 9.799
18.5889 9.886
18.6041 9.782
18.6192 9.677
18.6344 9.798
18.6496 9.753
18.6648 9.867
18.6799 9.927
18.6951 9.896
18.7103 9.801
18.7255 9.823
18.7406 9.683
18.7558 9.524
18.7710 9.716
18.7862 9.867
18.8013 9.762
18.8165 9.686
18.8317 9.841
18.8469 10.094
18.8620 10.261
18.8772 10.094
18.8924 10.095
18.9076 10.073
18.9227 10.037
18.9379 10.093
18.9531 10.032
18.9683 9.889
18.9834 9.880
18.9986 10.071
19.0138 10.165
19.0290 10.205
19.0441 10.191
19.0593 10.300
19.0745 10.530
19.0897 10.395
19.1048 10.263
19.1200 10.350
19.1352 10.396
19.1504 10.479
19.1655 10.581
19.1807 10.670
19.1959 10.510
19.2111 10.287
19.2262 10.515
19.2414 10.565
19.2566 10.658
19.2718 10.891
19.2869 11.084
19.3021 11.117
19.3173 11.042
19.3325 10.852
19.3476 10.963
19.3628 11.073
19.3780 11.013
19.3932 11.225
19.4083 11.268
19.4235 11.022
19.4387 11.107
19.4539 11.373
19.4690 11.345
19.4842 11.513
19.4994 11.487
19.5146 11.343
19.5297 11.431
19.5449 11.544
19.5601 11.614
19.5753 11.677
19.5904 11.491
19.6056 11.501
19.6208 11.700
19.6360 11.630
19.6511 11.697
19.6663 11.686
19.6815 11.581
19.6967 11.816
19.7118 11.784
19.7270 11.499
19.7422 11.447
19.7574 11.497
19.7725 11.669
19.7877 11.877
19.8029 12.126
19.8180 12.389
19.8332 12.417
19.8484 12.179
19.8636 11.950
19.8787 12.438
19.8939 13.097
19.9091 13.204
19.9243 13.266
19.9394 13.692
19.9546 14.038
19.9698 14.383
19.9850 14.714
20.0001 14.807
20.0153 14.515
20.0305 14.168
20.0457 13.838
20.0608 13.763
20.0760 13.747
20.0912 13.403
20.1064 13.679
20.1215 13.472
20.1367 13.218
20.1519 12.889
20.1671 12.661
20.1822 12.594
20.1974 12.730
20.2126 12.754
20.2278 12.556
20.2429 12.322
20.2581 12.043
20.2733 11.808
20.2885 11.670
20.3036 11.630
20.3188 11.611
20.3340 11.743
20.3492 11.649
20.3643 11.604
20.3795 11.357
20.3947 11.108
20.4099 11.198
20.4250 11.101
20.4402 10.853
20.4554 10.934
20.4706 10.744
20.4857 10.982
20.5009 11.089
20.5161 11.073
20.5313 10.873
20.5464 10.814
20.5616 10.781
20.5768 10.703
20.5920 10.663
20.6071 10.884
20.6223 11.002
20.6375 10.951
20.6527 10.793
20.6678 10.855
20.6830 10.798
20.6982 11.027
20.7134 10.775
20.7285 10.947
20.7437 10.771
20.7589 10.855
20.7741 10.825
20.7892 10.859
20.8044 10.903
20.8196 10.814
20.8348 10.513
20.8499 10.481
20.8651 10.622
20.8803 10.626
20.8955 10.451
20.9106 10.496
20.9258 10.347
20.9410 10.790
20.9562 10.671
20.9713 10.720
20.9865 10.503
21.0017 10.806
21.0169 10.707
21.0320 10.450
21.0472 10.729
21.0624 10.600
21.0776 10.488
21.0927 10.596
21.1079 10.437
21.1231 10.215
21.1383 10.240
21.1534 9.947
21.1686 10.463
21.1838 9.835
21.1990 9.910
21.2141 9.890
21.2293 9.867
21.2445 9.347
21.2597 10.001
21.2748 10.021
21.2900 9.527
21.3052 9.638
21.3204 9.747
21.3355 9.444
21.3507 9.447
21.3659 9.414
21.3811 9.440
21.3962 9.452
21.4114 9.491
21.4266 9.295
21.4418 9.520
21.4569 9.205
21.4721 9.534
21.4873 9.363
21.5025 9.476
21.5176 9.346
21.5328 9.317
21.5480 9.213
21.5632 9.186
21.5783 9.126
21.5935 8.851
21.6087 9.072
21.6239 9.086
21.6390 9.126
21.6542 9.274
21.6694 9.259
21.6846 9.008
21.6997 9.219
21.7149 9.146
21.7301 9.103
21.7453 9.112
21.7604 9.175
21.7756 9.085
21.7908 9.080
21.8060 9.230
21.8211 8.846
21.8363 8.895
21.8515 8.997
21.8667 9.237
21.8818 9.096
21.8970 8.870
21.9122 8.982
21.9274 8.946
21.9425 8.819
21.9577 8.842
21.9729 8.924
21.9881 8.830
22.0032 8.795
22.0184 8.906
22.0336 8.938
22.0488 8.764
22.0639 8.679
22.0791 8.695
22.0943 8.808
22.1095 8.689
22.1246 8.690
22.1398 8.835
22.1550 8.572
22.1702 8.426
22.1853 8.276
22.2005 8.323
22.2157 8.681
22.2309 8.513
22.2460 8.386
22.2612 8.745
22.2764 8.633
22.2916 8.465
22.3067 8.489
22.3219 8.677
22.3371 8.465
22.3523 8.429
22.3674 8.472
22.3826 8.251
22.3978 8.192
22.4130 8.584
22.4281 8.332
22.4433 8.723
22.4585 8.483
22.4737 8.317
22.4888 8.583
22.5040 8.428
22.5192 8.575
22.5344 8.250
22.5495 8.515
22.5647 8.570
22.5799 8.626
22.5951 8.448
22.6102 8.677
22.6254 8.555
22.6406 8.166
22.6558 8.216
22.6709 8.417
22.6861 8.021
22.7013 8.153
22.7165 8.459
22.7316 6.556
