'Id: "" Comment: "" Operator: "Lab Manager" Anode: "Mo" Scantype: "Still (Eiger2R_500K (1D mode))" TimePerStep: "300" X: "11.8" Y: "9.4" Z: "11.284" 
7.2532 19.256
7.2684 19.112
7.2836 19.094
7.2987 19.596
7.3139 19.596
7.3291 19.530
7.3443 19.733
7.3594 19.699
7.3746 19.825
7.3898 19.397
7.4050 19.479
7.4201 19.895
7.4353 19.691
7.4505 19.737
7.4657 20.010
7.4808 19.645
7.4960 19.347
7.5112 19.529
7.5264 19.871
7.5415 20.124
7.5567 20.076
7.5719 20.221
7.5871 20.278
7.6022 20.183
7.6174 20.154
7.6326 20.017
7.6478 20.103
7.6629 20.291
7.6781 20.288
7.6933 20.371
7.7085 20.297
7.7236 20.427
7.7388 20.741
7.7540 20.489
7.7692 20.717
7.7843 20.742
7.7995 20.629
7.8147 20.682
7.8299 20.864
7.8450 20.836
7.8602 20.965
7.8754 20.990
7.8905 20.857
7.9057 20.901
7.9209 21.133
7.9361 21.248
7.9512 21.164
7.9664 21.297
7.9816 21.350
7.9968 21.435
8.0119 21.307
8.0271 21.594
8.0423 21.386
8.0575 21.235
8.0726 21.483
8.0878 21.863
8.1030 21.623
8.1182 21.655
8.1333 21.652
8.1485 21.733
8.1637 22.013
8.1789 22.280
8.1940 22.093
8.2092 22.058
8.2244 21.981
8.2396 22.153
8.2547 21.877
8.2699 21.966
8.2851 21.820
8.3003 21.825
8.3154 22.128
8.3306 21.800
8.3458 21.876
8.3610 22.264
8.3761 22.277
8.3913 21.757
8.4065 22.091
8.4217 22.299
8.4368 22.078
8.4520 21.830
8.4672 22.337
8.4824 22.189
8.4975 22.502
8.5127 21.749
8.5279 22.503
8.5431 22.359
8.5582 22.361
8.5734 22.096
8.5886 22.397
8.6038 22.681
8.6189 22.713
8.6341 21.826
8.6493 22.508
8.6645 22.316
8.6796 22.238
8.6948 22.479
8.7100 22.701
8.7252 22.789
8.7403 22.388
8.7555 22.712
8.7707 22.317
8.7859 22.862
8.8010 22.567
8.8162 22.633
8.8314 22.885
8.8466 23.106
8.8617 22.938
8.8769 22.678
8.8921 22.691
8.9073 22.952
8.9224 23.296
8.9376 22.981
8.9528 22.707
8.9680 22.884
8.9831 22.863
8.9983 22.242
9.0135 22.302
9.0287 22.579
9.0438 22.769
9.0590 22.574
9.0742 22.753
9.0894 22.960
9.1045 23.419
9.1197 23.003
9.1349 23.179
9.1501 22.956
9.1652 23.073
9.1804 23.065
9.1956 22.974
9.2108 22.837
9.2259 23.210
9.2411 23.341
9.2563 23.559
9.2715 23.101
9.2866 23.110
9.3018 22.894
9.3170 22.955
9.3322 23.411
9.3473 22.959
9.3625 22.773
9.3777 23.455
9.3929 23.867
9.4080 23.460
9.4232 23.024
9.4384 22.978
9.4536 23.456
9.4687 23.486
9.4839 23.152
9.4991 22.944
9.5143 23.291
9.5294 23.107
9.5446 22.906
9.5598 23.175
9.5750 23.532
9.5901 23.332
9.6053 23.180
9.6205 23.471
9.6357 24.049
9.6508 23.777
9.6660 23.416
9.6812 23.696
9.6964 23.939
9.7115 24.197
9.7267 24.311
9.7419 24.257
9.7571 24.145
9.7722 24.476
9.7874 24.350
9.8026 24.057
9.8178 24.191
9.8329 24.291
9.8481 24.262
9.8633 24.472
9.8785 24.153
9.8936 24.067
9.9088 24.327
9.9240 24.596
9.9392 24.558
9.9543 24.168
9.9695 23.866
9.9847 24.001
9.9999 23.956
10.0150 23.621
10.0302 23.511
10.0454 23.489
10.0606 23.408
10.0757 23.342
10.0909 23.351
10.1061 23.558
10.1213 23.783
10.1364 23.960
10.1516 23.873
10.1668 23.708
10.1820 23.974
10.1971 23.950
10.2123 24.165
10.2275 24.043
10.2427 23.631
10.2578 23.593
10.2730 23.764
10.2882 23.577
10.3034 23.227
10.3185 23.158
10.3337 23.309
10.3489 23.171
10.3641 23.193
10.3792 23.310
10.3944 23.184
10.4096 22.791
10.4248 23.143
10.4399 23.747
10.4551 23.240
10.4703 22.830
10.4855 23.215
10.5006 22.959
10.5158 22.788
10.5310 22.823
10.5462 22.954
10.5613 22.849
10.5765 22.840
10.5917 22.896
10.6069 22.768
10.6220 22.443
10.6372 22.443
10.6524 22.459
10.6676 22.355
10.6827 22.372
10.6979 22.580
10.7131 22.863
10.7283 22.751
10.7434 22.545
10.7586 22.502
10.7738 22.691
10.7890 22.348
10.8041 22.206
10.8193 22.081
10.8345 22.077
10.8497 22.462
10.8648 22.289
10.8800 22.512
10.8952 22.777
10.9104 22.134
10.9255 22.039
10.9407 22.159
10.9559 22.450
10.9711 22.189
10.9862 22.197
11.0014 22.143
11.0166 21.917
11.0318 22.044
11.0469 21.880
11.0621 21.761
11.0773 21.651
11.0925 22.006
11.1076 21.944
11.1228 21.820
11.1380 21.915
11.1532 21.699
11.1683 21.918
11.1835 22.126
11.1987 21.960
11.2139 21.612
11.2290 21.894
11.2442 22.289
11.2594 21.902
11.2746 21.866
11.2897 21.583
11.3049 21.169
11.3201 21.706
11.3353 21.744
11.3504 21.531
11.3656 21.720
11.3808 21.387
11.3960 21.747
11.4111 21.421
11.4263 21.229
11.4415 21.359
11.4567 21.361
11.4718 21.654
11.4870 21.108
11.5022 21.041
11.5174 21.169
11.5325 21.492
11.5477 21.074
11.5629 21.462
11.5781 21.460
11.5932 21.456
11.6084 20.992
11.6236 21.150
11.6388 20.938
11.6539 20.706
11.6691 20.699
11.6843 20.823
11.6995 20.799
11.7146 20.769
11.7298 20.575
11.7450 20.370
11.7602 20.287
11.7753 20.130
11.7905 20.356
11.8057 20.324
11.8209 19.866
11.8360 19.803
11.8512 19.545
11.8664 19.967
11.8816 20.112
11.8967 20.064
11.9119 19.988
11.9271 19.638
11.9423 19.262
11.9574 19.193
11.9726 19.140
11.9878 19.245
12.0030 19.356
12.0181 19.213
12.0333 19.028
12.0485 18.852
12.0637 18.910
12.0788 18.725
12.0940 18.748
12.1092 18.716
12.1244 18.715
12.1395 18.617
12.1547 18.809
12.1699 18.956
12.1851 18.537
12.2002 18.373
12.2154 18.102
12.2306 18.258
12.2458 18.260
12.2609 18.014
12.2761 18.000
12.2913 17.777
12.3065 18.140
12.3216 17.562
12.3368 17.400
12.3520 17.618
12.3672 17.328
12.3823 17.391
12.3975 17.206
12.4127 17.208
12.4279 17.226
12.4430 17.109
12.4582 16.893
12.4734 16.945
12.4886 16.992
12.5037 16.622
12.5189 16.559
12.5341 16.353
12.5493 16.318
12.5644 16.227
12.5796 16.100
12.5948 16.067
12.6100 16.130
12.6251 16.000
12.6403 15.771
12.6555 15.945
12.6707 16.079
12.6858 16.114
12.7010 16.081
12.7162 15.505
12.7314 15.520
12.7465 15.641
12.7617 15.323
12.7769 15.113
12.7921 15.289
12.8072 15.440
12.8224 15.255
12.8376 15.058
12.8528 15.155
12.8679 15.175
12.8831 14.946
12.8983 14.707
12.9135 14.581
12.9286 14.567
12.9438 14.489
12.9590 14.306
12.9742 14.513
12.9893 14.380
13.0045 14.121
13.0197 14.350
13.0349 14.275
13.0500 14.007
13.0652 13.887
13.0804 13.851
13.0956 13.836
13.1107 13.831
13.1259 13.784
13.1411 13.636
13.1563 13.389
13.1714 13.330
13.1866 13.469
13.2018 13.378
13.2170 13.440
13.2321 13.456
13.2473 13.418
13.2625 13.332
13.2777 13.071
13.2928 13.131
13.3080 13.022
13.3232 13.098
13.3384 13.355
13.3535 13.282
13.3687 13.213
13.3839 13.238
13.3991 13.370
13.4142 13.104
13.4294 12.688
13.4446 12.728
13.4598 12.703
13.4749 12.854
13.4901 12.936
13.5053 12.846
13.5205 12.682
13.5356 12.469
13.5508 12.272
13.5660 12.177
13.5812 12.182
13.5963 12.150
13.6115 11.926
13.6267 11.770
13.6419 12.058
13.6570 12.041
13.6722 11.952
13.6874 12.183
13.7026 12.221
13.7177 12.015
13.7329 12.088
13.7481 12.074
13.7633 12.295
13.7784 12.225
13.7936 12.148
13.8088 12.054
13.8239 11.931
13.8391 12.074
13.8543 12.272
13.8695 12.384
13.8846 12.231
13.8998 12.251
13.9150 12.148
13.9302 12.084
13.9453 12.160
13.9605 11.995
13.9757 11.514
13.9909 11.432
14.0060 11.554
14.0212 11.437
14.0364 11.661
14.0516 11.595
14.0667 11.784
14.0819 11.428
14.0971 11.171
14.1123 11.294
14.1274 11.342
14.1426 11.540
14.1578 11.334
14.1730 11.222
14.1881 11.056
14.2033 11.270
14.2185 11.490
14.2337 11.486
14.2488 11.271
14.2640 11.464
14.2792 11.617
14.2944 11.373
14.3095 11.620
14.3247 12.033
14.3399 11.683
14.3551 11.975
14.3702 12.621
14.3854 13.225
14.4006 13.492
14.4158 13.674
14.4309 13.773
14.4461 14.142
14.4613 14.239
14.4765 14.160
14.4916 13.922
14.5068 14.034
14.5220 14.151
14.5372 13.832
14.5523 12.817
14.5675 12.469
14.5827 12.345
14.5979 11.910
14.6130 11.547
14.6282 11.335
14.6434 11.578
14.6586 11.544
14.6737 11.240
14.6889 11.295
14.7041 11.022
14.7193 10.978
14.7344 11.259
14.7496 11.166
14.7648 11.253
14.7800 11.305
14.7951 11.269
14.8103 10.974
14.8255 11.131
14.8407 11.205
14.8558 10.930
14.8710 11.365
14.8862 10.881
14.9014 10.925
14.9165 11.209
14.9317 11.200
14.9469 10.790
14.9621 11.051
14.9772 10.800
14.9924 10.552
15.0076 10.689
15.0228 10.795
15.0379 10.643
15.0531 10.717
15.0683 10.480
15.0835 10.681
15.0986 10.844
15.1138 10.839
15.1290 10.581
15.1442 10.197
15.1593 10.480
15.1745 10.790
15.1897 10.636
15.2049 10.329
15.2200 10.412
15.2352 10.638
15.2504 10.526
15.2656 10.000
15.2807 10.382
15.2959 10.386
15.3111 10.533
15.3263 10.644
15.3414 10.231
15.3566 10.730
15.3718 10.492
15.3870 10.593
15.4021 10.406
15.4173 10.624
15.4325 10.572
15.4477 10.268
15.4628 10.547
15.4780 10.565
15.4932 10.219
15.5084 10.285
15.5235 10.567
15.5387 10.223
15.5539 10.407
15.5691 10.358
15.5842 10.329
15.5994 10.174
15.6146 10.183
15.6298 10.269
15.6449 10.228
15.6601 10.187
15.6753 10.332
15.6905 9.863
15.7056 10.045
15.7208 10.085
15.7360 9.909
15.7512 9.764
15.7663 9.910
15.7815 9.872
15.7967 9.894
15.8119 9.927
15.8270 10.057
15.8422 9.882
15.8574 9.734
15.8726 9.879
15.8877 9.919
15.9029 9.765
15.9181 9.555
15.9333 9.973
15.9484 10.019
15.9636 10.043
15.9788 9.845
15.9940 9.845
16.0091 10.030
16.0243 9.984
16.0395 9.911
16.0547 9.994
16.0698 9.683
16.0850 9.636
16.1002 9.774
16.1154 9.842
16.1305 9.521
16.1457 9.677
16.1609 9.709
16.1761 9.708
16.1912 9.767
16.2064 9.816
16.2216 9.772
16.2368 9.976
16.2519 10.119
16.2671 10.220
16.2823 10.306
16.2975 10.302
16.3126 10.170
16.3278 10.335
16.3430 10.215
16.3582 10.310
16.3733 10.522
16.3885 10.457
16.4037 10.197
16.4189 10.104
16.4340 9.730
16.4492 9.739
16.4644 9.994
16.4796 9.977
16.4947 10.032
16.5099 9.907
16.5251 9.800
16.5403 9.852
16.5554 9.938
16.5706 9.953
16.5858 9.755
16.6010 10.033
16.6161 10.063
16.6313 9.937
16.6465 9.899
16.6617 9.811
16.6768 10.004
16.6920 10.199
16.7072 10.194
16.7224 10.108
16.7375 10.136
16.7527 10.164
16.7679 10.075
16.7831 10.182
16.7982 10.144
16.8134 10.125
16.8286 10.061
16.8438 9.989
16.8589 9.786
16.8741 9.902
16.8893 10.113
16.9045 9.773
16.9196 9.758
16.9348 10.154
16.9500 10.025
16.9652 9.830
16.9803 9.962
16.9955 9.980
17.0107 10.042
17.0259 10.057
17.0410 10.040
17.0562 10.341
17.0714 10.594
17.0866 10.710
17.1017 10.770
17.1169 10.877
17.1321 11.022
17.1473 11.339
17.1624 11.926
17.1776 12.514
17.1928 13.168
17.2080 14.186
17.2231 15.270
17.2383 16.366
17.2535 17.694
17.2687 18.889
17.2838 18.921
17.2990 17.941
17.3142 16.963
17.3294 16.323
17.3445 16.150
17.3597 16.039
17.3749 15.852
17.3901 15.219
17.4052 14.194
17.4204 13.264
17.4356 12.606
17.4508 12.004
17.4659 11.377
17.4811 11.261
17.4963 11.334
17.5115 11.079
17.5266 10.828
17.5418 10.722
17.5570 10.388
17.5722 10.422
17.5873 10.726
17.6025 10.680
17.6177 10.518
17.6329 10.535
17.6480 10.753
17.6632 10.684
17.6784 10.593
17.6936 10.956
17.7087 11.264
17.7239 11.238
17.7391 11.212
17.7543 11.655
17.7694 12.073
17.7846 12.178
17.7998 12.474
17.8150 12.933
17.8301 12.881
17.8453 12.494
17.8605 12.281
17.8757 12.275
17.8908 12.243
17.9060 12.519
17.9212 12.463
17.9364 11.834
17.9515 11.472
17.9667 11.299
17.9819 11.216
17.9971 11.093
18.0122 10.939
18.0274 10.845
18.0426 10.743
18.0578 10.478
18.0729 10.304
18.0881 10.295
18.1033 10.109
18.1185 10.090
18.1336 10.384
18.1488 10.437
18.1640 10.206
18.1792 9.936
18.1943 9.916
18.2095 10.000
18.2247 9.965
18.2399 10.073
18.2550 10.155
18.2702 9.942
18.2854 10.160
18.3006 10.019
18.3157 9.909
18.3309 10.019
18.3461 9.965
18.3613 10.113
18.3764 10.124
18.3916 9.883
18.4068 9.856
18.4220 9.998
18.4371 10.129
18.4523 10.085
18.4675 9.866
18.4827 9.683
18.4978 9.799
18.5130 9.855
18.5282 9.927
18.5434 10.028
18.5585 9.935
18.5737 9.894
18.5889 9.791
18.6041 9.802
18.6192 9.839
18.6344 9.799
18.6496 9.807
18.6648 10.031
18.6799 9.784
18.6951 9.695
18.7103 9.637
18.7255 9.641
18.7406 9.841
18.7558 10.127
18.7710 10.084
18.7862 9.761
18.8013 9.610
18.8165 9.822
18.8317 10.100
18.8469 10.098
18.8620 9.852
18.8772 10.025
18.8924 10.190
18.9076 10.196
18.9227 10.035
18.9379 10.043
18.9531 10.087
18.9683 10.120
18.9834 10.165
18.9986 10.166
19.0138 10.371
19.0290 10.355
19.0441 10.260
19.0593 10.224
19.0745 10.273
19.0897 10.452
19.1048 10.517
19.1200 10.400
19.1352 10.482
19.1504 10.439
19.1655 10.408
19.1807 10.595
19.1959 10.697
19.2111 10.792
19.2262 10.786
19.2414 10.845
19.2566 10.852
19.2718 10.945
19.2869 10.925
19.3021 10.842
19.3173 11.002
19.3325 11.002
19.3476 11.188
19.3628 11.323
19.3780 11.180
19.3932 11.284
19.4083 11.365
19.4235 11.367
19.4387 11.366
19.4539 11.421
19.4690 11.452
19.4842 11.545
19.4994 11.576
19.5146 11.635
19.5297 11.601
19.5449 11.596
19.5601 11.533
19.5753 11.489
19.5904 11.684
19.6056 11.858
19.6208 11.811
19.6360 11.635
19.6511 11.772
19.6663 11.611
19.6815 11.594
19.6967 11.878
19.7118 11.704
19.7270 11.502
19.7422 11.742
19.7574 11.782
19.7725 11.745
19.7877 11.896
19.8029 12.023
19.8180 12.076
19.8332 12.097
19.8484 12.350
19.8636 12.680
19.8787 12.481
19.8939 12.497
19.9091 13.039
19.9243 13.326
19.9394 13.723
19.9546 14.147
19.9698 14.604
19.9850 14.768
20.0001 14.683
20.0153 14.401
20.0305 14.098
20.0457 14.028
20.0608 13.891
20.0760 13.881
20.0912 13.681
20.1064 13.584
20.1215 13.449
20.1367 13.229
20.1519 13.114
20.1671 13.061
20.1822 12.863
20.1974 12.731
20.2126 12.726
20.2278 12.502
20.2429 12.491
20.2581 12.218
20.2733 11.701
20.2885 11.851
20.3036 11.771
20.3188 11.570
20.3340 11.574
20.3492 11.388
20.3643 11.328
20.3795 11.228
20.3947 11.117
20.4099 10.994
20.4250 11.072
20.4402 10.869
20.4554 11.084
20.4706 11.088
20.4857 11.433
20.5009 11.319
20.5161 11.212
20.5313 11.438
20.5464 11.232
20.5616 11.320
20.5768 11.137
20.5920 11.246
20.6071 11.163
20.6223 11.317
20.6375 11.076
20.6527 11.157
20.6678 10.918
20.6830 10.966
20.6982 11.142
20.7134 10.947
20.7285 10.790
20.7437 10.742
20.7589 10.870
20.7741 10.363
20.7892 10.385
20.8044 10.563
20.8196 10.774
20.8348 10.434
20.8499 10.321
20.8651 10.349
20.8803 10.281
20.8955 10.741
20.9106 10.484
20.9258 10.682
20.9410 10.624
20.9562 10.598
20.9713 10.656
20.9865 10.377
21.0017 10.806
21.0169 10.480
21.0320 10.510
21.0472 10.481
21.0624 10.617
21.0776 10.695
21.0927 10.376
21.1079 10.303
21.1231 10.543
21.1383 10.107
21.1534 10.336
21.1686 10.215
21.1838 10.108
21.1990 9.930
21.2141 9.732
21.2293 9.974
21.2445 9.890
21.2597 9.992
21.2748 9.823
21.2900 9.799
21.3052 9.960
21.3204 9.677
21.3355 9.540
21.3507 9.510
21.3659 9.567
21.3811 9.707
21.3962 9.888
21.4114 9.486
21.4266 9.270
21.4418 9.550
21.4569 9.941
21.4721 9.383
21.4873 9.320
21.5025 9.370
21.5176 9.234
21.5328 9.133
21.5480 9.340
21.5632 9.266
21.5783 9.285
21.5935 9.254
21.6087 9.384
21.6239 9.728
21.6390 9.441
21.6542 9.213
21.6694 9.087
21.6846 9.103
21.6997 9.017
21.7149 8.991
21.7301 9.031
21.7453 8.933
21.7604 8.933
21.7756 9.000
21.7908 9.061
21.8060 9.122
21.8211 9.195
21.8363 8.916
21.8515 8.871
21.8667 8.939
21.8818 9.054
21.8970 9.137
21.9122 9.042
21.9274 8.988
21.9425 9.018
21.9577 8.902
21.9729 8.722
21.9881 8.638
22.0032 8.669
22.0184 8.908
22.0336 9.044
22.0488 9.138
22.0639 9.043
22.0791 8.838
22.0943 8.696
22.1095 8.607
22.1246 8.845
22.1398 8.625
22.1550 8.400
22.1702 8.637
22.1853 8.863
22.2005 8.972
22.2157 8.794
22.2309 8.633
22.2460 8.599
22.2612 8.332
22.2764 8.214
22.2916 8.530
22.3067 8.520
22.3219 8.651
22.3371 8.424
22.3523 8.617
22.3674 8.615
22.3826 8.807
22.3978 8.804
22.4130 8.475
22.4281 8.284
22.4433 8.535
22.4585 8.466
22.4737 8.655
22.4888 8.737
22.5040 8.589
22.5192 8.638
22.5344 8.512
22.5495 8.464
22.5647 8.200
22.5799 8.339
22.5951 8.407
22.6102 8.223
22.6254 8.890
22.6406 8.241
22.6558 8.367
22.6709 8.324
22.6861 8.459
22.7013 8.100
22.7165 7.830
22.7316 6.446
