'Id: "" Comment: "" Operator: "Lab Manager" Anode: "Mo" Scantype: "Still (Eiger2R_500K (1D mode))" TimePerStep: "300" X: "11.8" Y: "9.4" Z: "11.284" 
7.2532 18.896
7.2684 18.744
7.2836 18.645
7.2987 19.016
7.3139 19.116
7.3291 19.164
7.3443 19.099
7.3594 19.134
7.3746 19.050
7.3898 18.776
7.4050 19.374
7.4201 19.156
7.4353 19.346
7.4505 19.435
7.4657 19.213
7.4808 19.613
7.4960 19.456
7.5112 19.476
7.5264 19.447
7.5415 19.682
7.5567 19.980
7.5719 19.911
7.5871 19.857
7.6022 19.884
7.6174 20.069
7.6326 19.930
7.6478 20.071
7.6629 19.936
7.6781 20.098
7.6933 20.228
7.7085 19.977
7.7236 20.005
7.7388 20.214
7.7540 20.187
7.7692 20.448
7.7843 20.611
7.7995 20.534
7.8147 20.472
7.8299 20.579
7.8450 20.490
7.8602 20.701
7.8754 20.638
7.8905 20.419
7.9057 20.407
7.9209 20.581
7.9361 20.585
7.9512 20.695
7.9664 20.667
7.9816 20.649
7.9968 20.831
8.0119 20.776
8.0271 20.965
8.0423 21.389
8.0575 20.919
8.0726 21.240
8.0878 21.078
8.1030 21.302
8.1182 20.957
8.1333 20.789
8.1485 20.984
8.1637 21.024
8.1789 20.993
8.1940 21.137
8.2092 21.194
8.2244 21.375
8.2396 21.701
8.2547 21.180
8.2699 21.153
8.2851 21.692
8.3003 21.471
8.3154 21.648
8.3306 21.378
8.3458 21.591
8.3610 21.820
8.3761 21.981
8.3913 21.710
8.4065 22.048
8.4217 22.201
8.4368 21.711
8.4520 21.936
8.4672 22.040
8.4824 21.562
8.4975 21.785
8.5127 21.882
8.5279 21.661
8.5431 22.048
8.5582 22.206
8.5734 22.296
8.5886 21.616
8.6038 22.527
8.6189 21.997
8.6341 21.824
8.6493 22.063
8.6645 22.138
8.6796 22.325
8.6948 22.054
8.7100 22.260
8.7252 22.480
8.7403 22.421
8.7555 22.440
8.7707 22.317
8.7859 22.434
8.8010 22.070
8.8162 22.108
8.8314 22.408
8.8466 22.605
8.8617 22.899
8.8769 22.376
8.8921 22.756
8.9073 22.466
8.9224 22.644
8.9376 22.697
8.9528 22.403
8.9680 22.346
8.9831 22.312
8.9983 22.205
9.0135 22.290
9.0287 22.306
9.0438 22.342
9.0590 22.425
9.0742 22.404
9.0894 22.802
9.1045 23.101
9.1197 22.786
9.1349 22.738
9.1501 22.657
9.1652 22.900
9.1804 22.842
9.1956 23.028
9.2108 22.522
9.2259 22.744
9.2411 22.800
9.2563 22.569
9.2715 22.588
9.2866 22.490
9.3018 22.737
9.3170 22.926
9.3322 23.001
9.3473 23.081
9.3625 23.067
9.3777 22.753
9.3929 22.798
9.4080 22.535
9.4232 22.731
9.4384 23.300
9.4536 23.143
9.4687 23.268
9.4839 23.450
9.4991 23.468
9.5143 23.266
9.5294 23.362
9.5446 23.264
9.5598 23.189
9.5750 23.103
9.5901 23.043
9.6053 23.022
9.6205 23.096
9.6357 23.453
9.6508 23.343
9.6660 23.330
9.6812 23.636
9.6964 23.571
9.7115 23.641
9.7267 24.082
9.7419 24.050
9.7571 23.737
9.7722 23.798
9.7874 23.718
9.8026 23.812
9.8178 23.858
9.8329 23.466
9.8481 23.099
9.8633 23.076
9.8785 22.942
9.8936 22.941
9.9088 23.050
9.9240 23.116
9.9392 23.087
9.9543 23.283
9.9695 23.271
9.9847 23.162
9.9999 23.356
10.0150 23.294
10.0302 23.389
10.0454 23.461
10.0606 23.344
10.0757 23.294
10.0909 23.013
10.1061 22.945
10.1213 23.280
10.1364 23.326
10.1516 23.573
10.1668 23.491
10.1820 23.109
10.1971 23.177
10.2123 23.197
10.2275 22.974
10.2427 22.704
10.2578 22.640
10.2730 22.595
10.2882 22.638
10.3034 22.781
10.3185 22.892
10.3337 22.753
10.3489 22.352
10.3641 22.388
10.3792 22.773
10.3944 22.541
10.4096 22.503
10.4248 22.814
10.4399 22.525
10.4551 22.687
10.4703 22.511
10.4855 22.689
10.5006 22.478
10.5158 22.463
10.5310 22.684
10.5462 22.714
10.5613 22.443
10.5765 22.176
10.5917 22.359
10.6069 22.582
10.6220 22.147
10.6372 22.248
10.6524 22.278
10.6676 22.462
10.6827 22.577
10.6979 22.720
10.7131 22.071
10.7283 22.297
10.7434 22.144
10.7586 22.410
10.7738 22.022
10.7890 21.829
10.8041 22.281
10.8193 22.180
10.8345 21.888
10.8497 22.203
10.8648 22.253
10.8800 22.144
10.8952 22.284
10.9104 22.171
10.9255 22.517
10.9407 22.298
10.9559 22.066
10.9711 21.918
10.9862 21.758
11.0014 21.877
11.0166 21.829
11.0318 21.828
11.0469 21.793
11.0621 21.633
11.0773 21.724
11.0925 21.704
11.1076 21.775
11.1228 21.913
11.1380 21.757
11.1532 21.507
11.1683 21.435
11.1835 21.495
11.1987 21.921
11.2139 21.640
11.2290 21.492
11.2442 21.585
11.2594 21.621
11.2746 21.507
11.2897 21.580
11.3049 21.553
11.3201 21.418
11.3353 21.254
11.3504 21.470
11.3656 21.651
11.3808 21.281
11.3960 21.129
11.4111 20.897
11.4263 21.214
11.4415 20.860
11.4567 20.995
11.4718 21.406
11.4870 21.041
11.5022 20.784
11.5174 21.149
11.5325 21.248
11.5477 21.069
11.5629 20.475
11.5781 20.541
11.5932 20.674
11.6084 21.025
11.6236 21.051
11.6388 20.476
11.6539 20.320
11.6691 20.300
11.6843 20.244
11.6995 20.292
11.7146 20.833
11.7298 20.699
11.7450 20.174
11.7602 20.542
11.7753 20.215
11.7905 20.291
11.8057 20.128
11.8209 20.001
11.8360 20.268
11.8512 19.890
11.8664 19.837
11.8816 19.782
11.8967 19.544
11.9119 19.545
11.9271 19.663
11.9423 19.452
11.9574 19.443
11.9726 19.456
11.9878 19.475
12.0030 19.107
12.0181 18.742
12.0333 18.601
12.0485 18.794
12.0637 18.824
12.0788 18.707
12.0940 18.817
12.1092 18.624
12.1244 18.545
12.1395 18.484
12.1547 18.384
12.1699 18.557
12.1851 18.526
12.2002 18.264
12.2154 18.229
12.2306 17.984
12.2458 17.889
12.2609 17.441
12.2761 17.505
12.2913 17.724
12.3065 17.708
12.3216 17.830
12.3368 17.741
12.3520 17.356
12.3672 17.148
12.3823 17.175
12.3975 17.395
12.4127 17.427
12.4279 17.128
12.4430 17.025
12.4582 16.788
12.4734 16.765
12.4886 16.531
12.5037 16.509
12.5189 16.522
12.5341 16.326
12.5493 16.258
12.5644 16.231
12.5796 16.180
12.5948 16.095
12.6100 15.967
12.6251 16.011
12.6403 16.016
12.6555 15.855
12.6707 15.762
12.6858 15.525
12.7010 15.594
12.7162 15.572
12.7314 15.349
12.7465 15.384
12.7617 15.404
12.7769 15.381
12.7921 15.357
12.8072 15.129
12.8224 15.095
12.8376 14.992
12.8528 14.994
12.8679 14.887
12.8831 14.976
12.8983 14.857
12.9135 14.647
12.9286 14.556
12.9438 14.488
12.9590 14.597
12.9742 14.413
12.9893 14.304
13.0045 14.243
13.0197 14.037
13.0349 14.009
13.0500 14.020
13.0652 13.921
13.0804 14.003
13.0956 13.977
13.1107 13.879
13.1259 13.839
13.1411 13.662
13.1563 13.616
13.1714 13.538
13.1866 13.390
13.2018 13.395
13.2170 13.443
13.2321 13.263
13.2473 13.252
13.2625 13.297
13.2777 13.208
13.2928 13.087
13.3080 12.812
13.3232 12.907
13.3384 13.091
13.3535 13.029
13.3687 13.020
13.3839 13.170
13.3991 13.165
13.4142 12.985
13.4294 13.003
13.4446 13.125
13.4598 12.815
13.4749 12.677
13.4901 12.616
13.5053 12.426
13.5205 12.294
13.5356 12.265
13.5508 12.377
13.5660 12.314
13.5812 12.409
13.5963 12.301
13.6115 12.298
13.6267 12.238
13.6419 12.205
13.6570 12.165
13.6722 12.091
13.6874 11.933
13.7026 11.886
13.7177 12.168
13.7329 12.034
13.7481 11.916
13.7633 12.156
13.7784 12.330
13.7936 12.372
13.8088 12.131
13.8239 12.273
13.8391 12.397
13.8543 12.086
13.8695 12.149
13.8846 12.356
13.8998 12.099
13.9150 12.080
13.9302 11.863
13.9453 12.029
13.9605 12.028
13.9757 11.685
13.9909 11.580
14.0060 11.683
14.0212 11.719
14.0364 11.871
14.0516 11.501
14.0667 11.582
14.0819 11.910
14.0971 11.858
14.1123 11.544
14.1274 11.451
14.1426 11.577
14.1578 11.855
14.1730 11.701
14.1881 11.935
14.2033 12.063
14.2185 12.003
14.2337 11.600
14.2488 11.450
14.2640 12.057
14.2792 12.048
14.2944 11.797
14.3095 11.904
14.3247 12.080
14.3399 12.431
14.3551 12.714
14.3702 12.581
14.3854 13.179
14.4006 13.181
14.4158 13.304
14.4309 12.971
14.4461 12.776
14.4613 12.575
14.4765 12.413
14.4916 12.223
14.5068 12.079
14.5220 11.554
14.5372 11.324
14.5523 11.130
14.5675 11.081
14.5827 11.138
14.5979 10.940
14.6130 11.422
14.6282 10.884
14.6434 10.714
14.6586 10.572
14.6737 10.749
14.6889 10.888
14.7041 10.591
14.7193 10.829
14.7344 10.520
14.7496 10.797
14.7648 10.855
14.7800 10.352
14.7951 10.401
14.8103 10.658
14.8255 10.717
14.8407 10.423
14.8558 10.583
14.8710 10.260
14.8862 10.356
14.9014 10.630
14.9165 10.812
14.9317 10.341
14.9469 10.158
14.9621 10.415
14.9772 10.488
14.9924 10.256
15.0076 10.423
15.0228 10.497
15.0379 10.184
15.0531 10.478
15.0683 10.312
15.0835 10.176
15.0986 10.424
15.1138 10.193
15.1290 10.004
15.1442 10.142
15.1593 10.414
15.1745 10.008
15.1897 10.069
15.2049 9.904
15.2200 10.088
15.2352 10.225
15.2504 9.694
15.2656 10.204
15.2807 10.111
15.2959 10.167
15.3111 10.163
15.3263 10.239
15.3414 9.982
15.3566 10.291
15.3718 10.100
15.3870 9.986
15.4021 10.051
15.4173 10.268
15.4325 10.140
15.4477 10.474
15.4628 10.389
15.4780 10.190
15.4932 10.070
15.5084 10.149
15.5235 10.034
15.5387 9.892
15.5539 10.324
15.5691 9.989
15.5842 9.827
15.5994 9.932
15.6146 9.935
15.6298 9.919
15.6449 9.872
15.6601 10.237
15.6753 9.875
15.6905 9.508
15.7056 9.574
15.7208 9.636
15.7360 9.582
15.7512 9.452
15.7663 9.342
15.7815 9.736
15.7967 9.593
15.8119 9.853
15.8270 10.014
15.8422 10.021
15.8574 9.934
15.8726 9.742
15.8877 9.652
15.9029 9.402
15.9181 9.400
15.9333 9.411
15.9484 9.540
15.9636 9.695
15.9788 9.683
15.9940 9.665
16.0091 9.595
16.0243 9.589
16.0395 9.581
16.0547 9.448
16.0698 9.666
16.0850 9.637
16.1002 9.634
16.1154 9.682
16.1305 9.624
16.1457 9.636
16.1609 9.617
16.1761 9.659
16.1912 9.601
16.2064 9.478
16.2216 9.553
16.2368 9.934
16.2519 10.030
16.2671 9.617
16.2823 9.627
16.2975 9.600
16.3126 9.736
16.3278 9.750
16.3430 9.629
16.3582 9.657
16.3733 9.757
16.3885 9.672
16.4037 9.815
16.4189 9.529
16.4340 9.678
16.4492 9.680
16.4644 9.654
16.4796 9.859
16.4947 9.715
16.5099 9.965
16.5251 9.677
16.5403 9.566
16.5554 9.676
16.5706 9.644
16.5858 9.509
16.6010 9.584
16.6161 9.730
16.6313 9.698
16.6465 9.730
16.6617 9.807
16.6768 9.870
16.6920 9.926
16.7072 10.057
16.7224 10.029
16.7375 9.866
16.7527 9.947
16.7679 9.855
16.7831 9.659
16.7982 9.891
16.8134 9.892
16.8286 9.781
16.8438 10.082
16.8589 9.802
16.8741 9.465
16.8893 9.715
16.9045 9.631
16.9196 9.549
16.9348 9.505
16.9500 9.589
16.9652 9.933
16.9803 9.872
16.9955 9.994
17.0107 10.090
17.0259 9.953
17.0410 10.149
17.0562 10.244
17.0714 10.059
17.0866 10.131
17.1017 10.471
17.1169 10.718
17.1321 10.946
17.1473 11.339
17.1624 11.611
17.1776 11.991
17.1928 12.833
17.2080 14.015
17.2231 15.006
17.2383 16.272
17.2535 17.417
17.2687 18.093
17.2838 18.572
17.2990 18.113
17.3142 17.030
17.3294 16.249
17.3445 16.058
17.3597 16.211
17.3749 16.118
17.3901 15.397
17.4052 14.373
17.4204 13.597
17.4356 12.952
17.4508 12.118
17.4659 11.647
17.4811 11.407
17.4963 11.124
17.5115 11.225
17.5266 11.159
17.5418 10.880
17.5570 10.927
17.5722 11.063
17.5873 11.153
17.6025 11.265
17.6177 11.324
17.6329 11.270
17.6480 11.245
17.6632 11.398
17.6784 11.586
17.6936 11.758
17.7087 11.572
17.7239 11.086
17.7391 11.000
17.7543 11.255
17.7694 11.068
17.7846 10.789
17.7998 10.686
17.8150 10.620
17.8301 10.510
17.8453 10.237
17.8605 10.201
17.8757 10.130
17.8908 9.911
17.9060 9.998
17.9212 10.120
17.9364 10.142
17.9515 10.009
17.9667 10.198
17.9819 10.229
17.9971 10.199
18.0122 10.263
18.0274 10.092
18.0426 10.114
18.0578 10.126
18.0729 9.943
18.0881 9.960
18.1033 9.952
18.1185 9.945
18.1336 9.946
18.1488 9.943
18.1640 10.082
18.1792 10.182
18.1943 10.083
18.2095 9.748
18.2247 9.830
18.2399 9.899
18.2550 9.712
18.2702 9.912
18.2854 9.966
18.3006 9.809
18.3157 9.730
18.3309 9.801
18.3461 9.803
18.3613 9.901
18.3764 9.874
18.3916 9.981
18.4068 10.170
18.4220 9.966
18.4371 9.705
18.4523 9.691
18.4675 9.695
18.4827 9.658
18.4978 9.675
18.5130 9.841
18.5282 9.894
18.5434 9.825
18.5585 9.906
18.5737 10.063
18.5889 9.956
18.6041 9.921
18.6192 9.872
18.6344 9.654
18.6496 9.891
18.6648 10.151
18.6799 9.770
18.6951 9.776
18.7103 9.915
18.7255 9.691
18.7406 9.741
18.7558 9.788
18.7710 9.745
18.7862 9.883
18.8013 9.840
18.8165 9.628
18.8317 9.822
18.8469 9.850
18.8620 9.736
18.8772 9.887
18.8924 9.968
18.9076 9.869
18.9227 9.917
18.9379 10.157
18.9531 10.046
18.9683 10.033
18.9834 10.071
18.9986 9.945
19.0138 9.979
19.0290 10.067
19.0441 10.120
19.0593 10.291
19.0745 10.249
19.0897 10.293
19.1048 10.426
19.1200 10.349
19.1352 10.354
19.1504 10.399
19.1655 10.237
19.1807 10.575
19.1959 10.748
19.2111 10.682
19.2262 10.947
19.2414 11.085
19.2566 11.047
19.2718 10.816
19.2869 10.775
19.3021 11.085
19.3173 11.153
19.3325 10.950
19.3476 11.042
19.3628 10.913
19.3780 10.844
19.3932 10.925
19.4083 11.068
19.4235 11.248
19.4387 11.244
19.4539 11.304
19.4690 11.335
19.4842 11.473
19.4994 11.270
19.5146 11.206
19.5297 11.521
19.5449 11.694
19.5601 11.613
19.5753 11.526
19.5904 11.597
19.6056 11.662
19.6208 11.761
19.6360 11.894
19.6511 11.693
19.6663 11.646
19.6815 11.681
19.6967 11.630
19.7118 11.795
19.7270 11.852
19.7422 11.774
19.7574 11.708
19.7725 11.649
19.7877 11.727
19.8029 11.835
19.8180 12.175
19.8332 12.336
19.8484 12.418
19.8636 12.352
19.8787 12.571
19.8939 12.779
19.9091 12.823
19.9243 13.135
19.9394 13.512
19.9546 14.120
19.9698 14.284
19.9850 14.503
20.0001 14.759
20.0153 14.383
20.0305 13.953
20.0457 13.673
20.0608 13.706
20.0760 13.606
20.0912 13.592
20.1064 13.611
20.1215 13.592
20.1367 13.429
20.1519 13.214
20.1671 13.081
20.1822 12.856
20.1974 12.785
20.2126 12.652
20.2278 12.629
20.2429 12.662
20.2581 12.449
20.2733 12.271
20.2885 12.129
20.3036 11.917
20.3188 12.108
20.3340 12.074
20.3492 11.998
20.3643 11.996
20.3795 11.874
20.3947 11.830
20.4099 11.752
20.4250 11.972
20.4402 12.033
20.4554 11.886
20.4706 11.753
20.4857 11.444
20.5009 11.495
20.5161 11.589
20.5313 11.663
20.5464 11.504
20.5616 11.179
20.5768 11.249
20.5920 11.098
20.6071 10.951
20.6223 10.964
20.6375 10.742
20.6527 10.867
20.6678 10.767
20.6830 10.800
20.6982 10.710
20.7134 10.493
20.7285 10.658
20.7437 10.636
20.7589 10.476
20.7741 10.385
20.7892 10.340
20.8044 10.220
20.8196 10.373
20.8348 10.365
20.8499 10.069
20.8651 10.368
20.8803 10.092
20.8955 9.986
20.9106 10.155
20.9258 10.280
20.9410 10.364
20.9562 10.186
20.9713 10.045
20.9865 9.861
21.0017 9.965
21.0169 9.812
21.0320 9.667
21.0472 10.185
21.0624 10.006
21.0776 10.015
21.0927 9.796
21.1079 9.943
21.1231 9.851
21.1383 9.514
21.1534 9.478
21.1686 9.678
21.1838 10.017
21.1990 9.759
21.2141 9.951
21.2293 9.730
21.2445 9.750
21.2597 9.491
21.2748 9.574
21.2900 9.528
21.3052 9.614
21.3204 9.409
21.3355 9.365
21.3507 9.499
21.3659 9.538
21.3811 9.631
21.3962 9.683
21.4114 9.211
21.4266 9.416
21.4418 9.666
21.4569 9.501
21.4721 9.522
21.4873 9.215
21.5025 9.308
21.5176 9.314
21.5328 9.501
21.5480 9.362
21.5632 9.392
21.5783 9.203
21.5935 9.293
21.6087 9.511
21.6239 9.315
21.6390 9.222
21.6542 9.217
21.6694 9.103
21.6846 9.029
21.6997 9.041
21.7149 9.145
21.7301 9.296
21.7453 9.301
21.7604 9.347
21.7756 9.152
21.7908 8.874
21.8060 8.874
21.8211 8.878
21.8363 9.006
21.8515 9.034
21.8667 9.012
21.8818 9.085
21.8970 8.992
21.9122 8.954
21.9274 9.037
21.9425 9.033
21.9577 8.918
21.9729 8.832
21.9881 8.922
22.0032 8.831
22.0184 8.848
22.0336 8.973
22.0488 9.012
22.0639 8.924
22.0791 8.785
22.0943 8.746
22.1095 8.679
22.1246 8.704
22.1398 8.734
22.1550 8.690
22.1702 8.713
22.1853 8.730
22.2005 8.422
22.2157 8.397
22.2309 8.443
22.2460 8.358
22.2612 8.330
22.2764 8.294
22.2916 8.518
22.3067 8.684
22.3219 8.483
22.3371 8.512
22.3523 8.620
22.3674 8.587
22.3826 8.484
22.3978 8.496
22.4130 8.522
22.4281 8.296
22.4433 8.428
22.4585 8.501
22.4737 8.307
22.4888 8.160
22.5040 8.695
22.5192 8.191
22.5344 8.529
22.5495 8.421
22.5647 8.569
22.5799 8.374
22.5951 8.477
22.6102 8.180
22.6254 8.222
22.6406 8.687
22.6558 8.610
22.6709 8.450
22.6861 8.192
22.7013 8.256
22.7165 7.846
22.7316 6.243
