'Id: "" Comment: "" Operator: "Lab Manager" Anode: "Mo" Scantype: "Still (Eiger2R_500K (1D mode))" TimePerStep: "300" X: "11.8" Y: "9.4" Z: "11.284" 
7.2532 18.642
7.2684 18.676
7.2836 19.112
7.2987 19.115
7.3139 18.661
7.3291 19.043
7.3443 19.161
7.3594 19.079
7.3746 19.034
7.3898 19.236
7.4050 19.008
7.4201 19.436
7.4353 19.636
7.4505 19.723
7.4657 19.399
7.4808 19.063
7.4960 19.469
7.5112 19.952
7.5264 19.961
7.5415 20.095
7.5567 19.696
7.5719 20.169
7.5871 19.671
7.6022 19.731
7.6174 19.966
7.6326 20.016
7.6478 20.101
7.6629 19.928
7.6781 20.176
7.6933 20.055
7.7085 20.275
7.7236 20.107
7.7388 20.071
7.7540 20.162
7.7692 20.370
7.7843 20.258
7.7995 20.175
7.8147 20.547
7.8299 20.513
7.8450 20.464
7.8602 20.367
7.8754 20.357
7.8905 20.540
7.9057 20.603
7.9209 20.865
7.9361 20.958
7.9512 20.677
7.9664 20.734
7.9816 20.896
7.9968 20.799
8.0119 20.888
8.0271 20.932
8.0423 20.965
8.0575 21.019
8.0726 20.889
8.0878 20.977
8.1030 21.316
8.1182 21.386
8.1333 21.420
8.1485 21.264
8.1637 21.498
8.1789 21.546
8.1940 21.067
8.2092 21.580
8.2244 21.446
8.2396 21.202
8.2547 21.361
8.2699 21.495
8.2851 21.639
8.3003 21.694
8.3154 21.316
8.3306 21.943
8.3458 21.402
8.3610 21.695
8.3761 21.657
8.3913 21.429
8.4065 21.936
8.4217 22.174
8.4368 22.064
8.4520 21.573
8.4672 21.678
8.4824 21.684
8.4975 21.723
8.5127 22.074
8.5279 21.837
8.5431 21.876
8.5582 22.504
8.5734 22.021
8.5886 22.507
8.6038 22.044
8.6189 21.657
8.6341 22.412
8.6493 21.849
8.6645 22.193
8.6796 22.409
8.6948 22.098
8.7100 22.625
8.7252 21.690
8.7403 22.425
8.7555 22.319
8.7707 21.737
8.7859 21.998
8.8010 22.551
8.8162 22.372
8.8314 22.516
8.8466 22.298
8.8617 22.506
8.8769 22.418
8.8921 22.676
8.9073 22.619
8.9224 22.557
8.9376 22.600
8.9528 22.080
8.9680 22.376
8.9831 22.749
8.9983 23.003
9.0135 22.749
9.0287 22.641
9.0438 22.714
9.0590 22.791
9.0742 22.611
9.0894 22.578
9.1045 23.169
9.1197 22.957
9.1349 22.768
9.1501 22.789
9.1652 22.741
9.1804 22.542
9.1956 22.787
9.2108 22.684
9.2259 22.823
9.2411 23.148
9.2563 23.164
9.2715 23.061
9.2866 23.215
9.3018 22.750
9.3170 22.994
9.3322 23.118
9.3473 22.531
9.3625 22.492
9.3777 22.851
9.3929 22.683
9.4080 23.069
9.4232 23.151
9.4384 22.838
9.4536 23.044
9.4687 23.037
9.4839 22.852
9.4991 23.014
9.5143 22.978
9.5294 22.609
9.5446 22.619
9.5598 23.247
9.5750 23.421
9.5901 23.387
9.6053 23.333
9.6205 23.221
9.6357 23.378
9.6508 23.203
9.6660 23.219
9.6812 23.689
9.6964 23.878
9.7115 23.790
9.7267 23.728
9.7419 23.620
9.7571 23.598
9.7722 23.666
9.7874 23.888
9.8026 23.804
9.8178 23.558
9.8329 23.236
9.8481 23.072
9.8633 23.157
9.8785 23.066
9.8936 23.051
9.9088 23.234
9.9240 23.185
9.9392 23.213
9.9543 23.370
9.9695 23.215
9.9847 23.016
9.9999 22.811
10.0150 23.076
10.0302 23.363
10.0454 23.175
10.0606 22.869
10.0757 22.933
10.0909 23.176
10.1061 23.278
10.1213 23.340
10.1364 23.395
10.1516 23.483
10.1668 23.170
10.1820 22.996
10.1971 23.153
10.2123 23.024
10.2275 22.794
10.2427 22.967
10.2578 23.118
10.2730 23.094
10.2882 22.611
10.3034 22.688
10.3185 22.946
10.3337 22.824
10.3489 22.423
10.3641 22.583
10.3792 22.659
10.3944 22.667
10.4096 22.340
10.4248 22.409
10.4399 22.382
10.4551 22.396
10.4703 22.123
10.4855 22.161
10.5006 22.294
10.5158 22.490
10.5310 22.602
10.5462 22.594
10.5613 22.159
10.5765 22.031
10.5917 22.528
10.6069 22.511
10.6220 22.369
10.6372 22.486
10.6524 22.391
10.6676 22.770
10.6827 22.448
10.6979 22.188
10.7131 22.732
10.7283 22.543
10.7434 22.210
10.7586 22.082
10.7738 21.972
10.7890 22.050
10.8041 22.483
10.8193 22.603
10.8345 22.084
10.8497 21.930
10.8648 21.928
10.8800 22.117
10.8952 22.011
10.9104 21.977
10.9255 21.447
10.9407 21.935
10.9559 21.526
10.9711 21.818
10.9862 22.166
11.0014 22.172
11.0166 21.971
11.0318 22.290
11.0469 21.870
11.0621 22.032
11.0773 21.821
11.0925 21.848
11.1076 21.541
11.1228 21.529
11.1380 21.828
11.1532 22.048
11.1683 21.543
11.1835 21.558
11.1987 21.918
11.2139 21.460
11.2290 21.422
11.2442 21.427
11.2594 21.275
11.2746 21.483
11.2897 21.565
11.3049 21.369
11.3201 21.329
11.3353 21.761
11.3504 21.283
11.3656 21.134
11.3808 21.156
11.3960 21.184
11.4111 21.237
11.4263 21.332
11.4415 21.218
11.4567 21.075
11.4718 20.826
11.4870 20.444
11.5022 20.806
11.5174 20.985
11.5325 20.881
11.5477 21.165
11.5629 21.038
11.5781 20.733
11.5932 20.388
11.6084 20.595
11.6236 20.874
11.6388 20.551
11.6539 20.600
11.6691 20.416
11.6843 20.463
11.6995 20.419
11.7146 20.629
11.7298 20.360
11.7450 20.172
11.7602 20.188
11.7753 20.200
11.7905 20.146
11.8057 20.253
11.8209 19.820
11.8360 19.756
11.8512 19.869
11.8664 19.919
11.8816 20.015
11.8967 19.667
11.9119 19.594
11.9271 19.461
11.9423 19.458
11.9574 19.399
11.9726 19.326
11.9878 19.104
12.0030 19.216
12.0181 19.125
12.0333 19.085
12.0485 19.003
12.0637 19.027
12.0788 18.964
12.0940 18.848
12.1092 19.054
12.1244 19.069
12.1395 18.839
12.1547 18.329
12.1699 17.970
12.1851 18.199
12.2002 17.833
12.2154 18.014
12.2306 17.941
12.2458 17.892
12.2609 17.670
12.2761 17.474
12.2913 17.820
12.3065 17.908
12.3216 17.656
12.3368 17.624
12.3520 17.632
12.3672 17.284
12.3823 17.227
12.3975 17.166
12.4127 17.117
12.4279 17.249
12.4430 16.998
12.4582 16.707
12.4734 16.811
12.4886 16.698
12.5037 16.757
12.5189 16.501
12.5341 16.244
12.5493 16.214
12.5644 16.174
12.5796 16.135
12.5948 15.911
12.6100 15.966
12.6251 16.151
12.6403 15.878
12.6555 15.658
12.6707 15.629
12.6858 15.774
12.7010 15.880
12.7162 15.778
12.7314 15.649
12.7465 15.418
12.7617 15.264
12.7769 15.220
12.7921 15.288
12.8072 15.213
12.8224 15.042
12.8376 15.012
12.8528 14.806
12.8679 14.685
12.8831 14.522
12.8983 14.355
12.9135 14.534
12.9286 14.354
12.9438 14.262
12.9590 14.565
12.9742 14.579
12.9893 14.440
13.0045 14.345
13.0197 14.352
13.0349 14.305
13.0500 13.825
13.0652 13.654
13.0804 13.828
13.0956 13.785
13.1107 13.625
13.1259 13.543
13.1411 13.672
13.1563 13.638
13.1714 13.435
13.1866 13.465
13.2018 13.607
13.2170 13.699
13.2321 13.586
13.2473 13.497
13.2625 13.333
13.2777 13.407
13.2928 13.431
13.3080 13.103
13.3232 13.197
13.3384 13.221
13.3535 13.007
13.3687 12.888
13.3839 13.004
13.3991 12.801
13.4142 12.849
13.4294 12.889
13.4446 12.790
13.4598 12.858
13.4749 12.971
13.4901 12.774
13.5053 12.720
13.5205 12.661
13.5356 12.364
13.5508 12.047
13.5660 12.060
13.5812 12.220
13.5963 12.332
13.6115 12.142
13.6267 11.965
13.6419 12.015
13.6570 12.377
13.6722 12.309
13.6874 12.174
13.7026 12.212
13.7177 12.864
13.7329 13.308
13.7481 13.031
13.7633 12.427
13.7784 12.289
13.7936 12.734
13.8088 12.487
13.8239 12.173
13.8391 12.242
13.8543 12.369
13.8695 12.001
13.8846 12.097
13.8998 12.420
13.9150 12.169
13.9302 12.073
13.9453 12.109
13.9605 11.609
13.9757 11.438
13.9909 11.888
14.0060 11.900
14.0212 11.683
14.0364 11.840
14.0516 11.650
14.0667 11.695
14.0819 11.636
14.0971 11.510
14.1123 11.584
14.1274 11.689
14.1426 11.699
14.1578 11.612
14.1730 11.580
14.1881 11.840
14.2033 12.010
14.2185 11.892
14.2337 11.645
14.2488 11.745
14.2640 11.991
14.2792 11.910
14.2944 11.792
14.3095 11.893
14.3247 12.108
14.3399 12.377
14.3551 12.564
14.3702 12.773
14.3854 13.061
14.4006 13.389
14.4158 13.290
14.4309 13.253
14.4461 12.725
14.4613 12.783
14.4765 12.269
14.4916 12.381
14.5068 11.656
14.5220 11.890
14.5372 11.626
14.5523 11.534
14.5675 11.161
14.5827 11.051
14.5979 11.233
14.6130 10.796
14.6282 10.897
14.6434 11.040
14.6586 11.097
14.6737 10.574
14.6889 10.649
14.7041 10.446
14.7193 10.682
14.7344 10.716
14.7496 10.595
14.7648 10.607
14.7800 10.636
14.7951 10.587
14.8103 10.720
14.8255 10.572
14.8407 10.699
14.8558 10.693
14.8710 10.650
14.8862 10.044
14.9014 10.646
14.9165 10.778
14.9317 10.664
14.9469 10.489
14.9621 10.449
14.9772 10.413
14.9924 10.326
15.0076 10.373
15.0228 10.404
15.0379 9.850
15.0531 9.770
15.0683 10.344
15.0835 10.070
15.0986 10.282
15.1138 10.198
15.1290 10.126
15.1442 9.920
15.1593 10.156
15.1745 10.124
15.1897 9.975
15.2049 10.014
15.2200 10.235
15.2352 9.959
15.2504 10.046
15.2656 10.397
15.2807 10.446
15.2959 9.990
15.3111 10.040
15.3263 10.133
15.3414 10.224
15.3566 10.231
15.3718 9.996
15.3870 10.223
15.4021 9.953
15.4173 10.088
15.4325 10.349
15.4477 10.429
15.4628 10.421
15.4780 10.163
15.4932 10.608
15.5084 10.291
15.5235 10.224
15.5387 10.017
15.5539 10.200
15.5691 10.210
15.5842 10.316
15.5994 9.925
15.6146 9.737
15.6298 9.920
15.6449 9.663
15.6601 9.854
15.6753 9.801
15.6905 9.921
15.7056 9.960
15.7208 9.704
15.7360 9.831
15.7512 9.724
15.7663 9.635
15.7815 10.068
15.7967 9.801
15.8119 9.583
15.8270 9.497
15.8422 9.623
15.8574 9.692
15.8726 9.864
15.8877 9.412
15.9029 9.265
15.9181 9.755
15.9333 9.494
15.9484 9.667
15.9636 9.797
15.9788 9.657
15.9940 9.808
16.0091 9.579
16.0243 9.902
16.0395 9.646
16.0547 9.425
16.0698 9.684
16.0850 9.677
16.1002 9.392
16.1154 9.467
16.1305 9.803
16.1457 9.604
16.1609 9.708
16.1761 9.539
16.1912 9.616
16.2064 9.657
16.2216 9.594
16.2368 9.703
16.2519 9.786
16.2671 9.746
16.2823 9.724
16.2975 10.051
16.3126 9.978
16.3278 9.886
16.3430 9.555
16.3582 9.655
16.3733 9.630
16.3885 9.545
16.4037 9.793
16.4189 9.536
16.4340 9.624
16.4492 9.618
16.4644 9.712
16.4796 9.714
16.4947 9.675
16.5099 9.565
16.5251 9.649
16.5403 9.489
16.5554 9.753
16.5706 9.684
16.5858 9.674
16.6010 9.615
16.6161 9.586
16.6313 9.523
16.6465 9.528
16.6617 9.768
16.6768 9.683
16.6920 9.641
16.7072 9.857
16.7224 10.085
16.7375 9.934
16.7527 9.789
16.7679 9.967
16.7831 10.051
16.7982 9.838
16.8134 9.923
16.8286 9.711
16.8438 9.633
16.8589 9.748
16.8741 9.648
16.8893 9.788
16.9045 9.697
16.9196 9.574
16.9348 9.754
16.9500 9.766
16.9652 9.616
16.9803 9.747
16.9955 9.870
17.0107 9.856
17.0259 10.006
17.0410 10.296
17.0562 10.331
17.0714 10.272
17.0866 10.471
17.1017 10.576
17.1169 10.522
17.1321 10.806
17.1473 11.258
17.1624 11.688
17.1776 12.366
17.1928 13.172
17.2080 13.964
17.2231 14.798
17.2383 16.264
17.2535 17.730
17.2687 18.471
17.2838 18.657
17.2990 18.045
17.3142 17.120
17.3294 16.449
17.3445 15.944
17.3597 16.066
17.3749 16.055
17.3901 15.225
17.4052 14.371
17.4204 13.477
17.4356 12.672
17.4508 12.027
17.4659 11.699
17.4811 11.567
17.4963 11.429
17.5115 11.310
17.5266 10.977
17.5418 10.935
17.5570 10.954
17.5722 10.831
17.5873 10.933
17.6025 10.979
17.6177 10.923
17.6329 11.075
17.6480 11.357
17.6632 11.546
17.6784 11.538
17.6936 11.379
17.7087 11.350
17.7239 11.287
17.7391 10.977
17.7543 10.900
17.7694 11.133
17.7846 11.026
17.7998 10.708
17.8150 10.565
17.8301 10.561
17.8453 10.409
17.8605 10.041
17.8757 10.212
17.8908 10.179
17.9060 10.245
17.9212 10.355
17.9364 10.185
17.9515 9.980
17.9667 9.729
17.9819 9.920
17.9971 10.178
18.0122 10.174
18.0274 10.302
18.0426 10.326
18.0578 10.110
18.0729 10.195
18.0881 10.171
18.1033 10.016
18.1185 9.949
18.1336 9.972
18.1488 9.903
18.1640 9.755
18.1792 9.620
18.1943 9.694
18.2095 9.783
18.2247 9.906
18.2399 9.887
18.2550 9.771
18.2702 9.905
18.2854 9.935
18.3006 9.761
18.3157 9.724
18.3309 10.026
18.3461 9.993
18.3613 9.953
18.3764 9.819
18.3916 9.833
18.4068 9.967
18.4220 9.945
18.4371 9.659
18.4523 9.755
18.4675 9.939
18.4827 9.735
18.4978 9.651
18.5130 9.625
18.5282 9.698
18.5434 9.682
18.5585 9.770
18.5737 9.885
18.5889 9.850
18.6041 9.620
18.6192 9.395
18.6344 9.602
18.6496 9.665
18.6648 9.636
18.6799 9.503
18.6951 9.673
18.7103 9.747
18.7255 9.643
18.7406 9.806
18.7558 10.029
18.7710 9.812
18.7862 9.708
18.8013 9.856
18.8165 9.747
18.8317 9.754
18.8469 10.085
18.8620 10.064
18.8772 10.098
18.8924 9.982
18.9076 9.680
18.9227 9.847
18.9379 9.917
18.9531 9.863
18.9683 9.780
18.9834 9.743
18.9986 9.976
19.0138 9.947
19.0290 10.021
19.0441 10.123
19.0593 10.062
19.0745 10.217
19.0897 10.365
19.1048 10.369
19.1200 10.418
19.1352 10.497
19.1504 10.639
19.1655 10.460
19.1807 10.587
19.1959 10.704
19.2111 10.686
19.2262 10.568
19.2414 10.500
19.2566 10.632
19.2718 10.792
19.2869 10.858
19.3021 10.865
19.3173 10.798
19.3325 10.894
19.3476 11.062
19.3628 11.038
19.3780 11.031
19.3932 10.965
19.4083 11.082
19.4235 11.158
19.4387 11.179
19.4539 11.434
19.4690 11.272
19.4842 11.230
19.4994 11.338
19.5146 11.305
19.5297 11.321
19.5449 11.252
19.5601 11.406
19.5753 11.589
19.5904 11.397
19.6056 11.368
19.6208 11.624
19.6360 11.797
19.6511 11.706
19.6663 11.502
19.6815 11.433
19.6967 11.506
19.7118 11.695
19.7270 11.680
19.7422 11.565
19.7574 11.902
19.7725 11.898
19.7877 11.723
19.8029 11.719
19.8180 11.907
19.8332 12.220
19.8484 12.239
19.8636 12.344
19.8787 12.791
19.8939 13.072
19.9091 13.140
19.9243 13.333
19.9394 13.855
19.9546 14.381
19.9698 14.364
19.9850 14.343
20.0001 14.342
20.0153 14.158
20.0305 13.924
20.0457 13.708
20.0608 13.529
20.0760 13.588
20.0912 13.578
20.1064 13.574
20.1215 13.776
20.1367 13.285
20.1519 12.961
20.1671 13.020
20.1822 13.018
20.1974 13.031
20.2126 12.911
20.2278 12.614
20.2429 12.220
20.2581 12.288
20.2733 12.047
20.2885 11.943
20.3036 11.918
20.3188 11.843
20.3340 11.946
20.3492 11.853
20.3643 11.799
20.3795 11.765
20.3947 11.832
20.4099 11.791
20.4250 11.835
20.4402 12.062
20.4554 12.032
20.4706 12.085
20.4857 11.974
20.5009 11.779
20.5161 11.880
20.5313 11.659
20.5464 11.479
20.5616 11.506
20.5768 11.729
20.5920 11.266
20.6071 11.308
20.6223 10.917
20.6375 11.008
20.6527 10.799
20.6678 10.728
20.6830 10.889
20.6982 10.614
20.7134 10.592
20.7285 10.219
20.7437 10.435
20.7589 10.185
20.7741 10.674
20.7892 10.392
20.8044 9.973
20.8196 10.155
20.8348 10.406
20.8499 10.364
20.8651 10.274
20.8803 10.449
20.8955 10.497
20.9106 10.209
20.9258 10.122
20.9410 10.330
20.9562 10.031
20.9713 9.792
20.9865 9.768
21.0017 10.098
21.0169 10.143
21.0320 10.038
21.0472 9.965
21.0624 9.894
21.0776 9.879
21.0927 9.994
21.1079 9.885
21.1231 9.688
21.1383 9.858
21.1534 9.664
21.1686 9.620
21.1838 9.871
21.1990 9.815
21.2141 9.991
21.2293 9.403
21.2445 9.485
21.2597 9.616
21.2748 9.762
21.2900 9.631
21.3052 9.469
21.3204 9.425
21.3355 9.492
21.3507 9.705
21.3659 9.725
21.3811 9.628
21.3962 9.454
21.4114 9.489
21.4266 9.427
21.4418 9.462
21.4569 9.473
21.4721 9.457
21.4873 9.114
21.5025 9.136
21.5176 9.257
21.5328 9.328
21.5480 9.382
21.5632 9.054
21.5783 9.273
21.5935 9.306
21.6087 9.234
21.6239 9.338
21.6390 9.101
21.6542 9.108
21.6694 9.309
21.6846 9.235
21.6997 9.245
21.7149 9.023
21.7301 9.007
21.7453 9.082
21.7604 9.166
21.7756 9.213
21.7908 8.968
21.8060 8.727
21.8211 8.990
21.8363 9.051
21.8515 8.989
21.8667 8.986
21.8818 8.889
21.8970 9.142
21.9122 9.067
21.9274 9.117
21.9425 9.139
21.9577 8.991
21.9729 8.879
21.9881 8.910
22.0032 8.994
22.0184 8.919
22.0336 8.840
22.0488 8.640
22.0639 8.720
22.0791 8.786
22.0943 8.676
22.1095 8.458
22.1246 8.590
22.1398 8.731
22.1550 8.580
22.1702 8.633
22.1853 8.591
22.2005 8.709
22.2157 8.707
22.2309 8.568
22.2460 8.556
22.2612 8.309
22.2764 8.194
22.2916 8.500
22.3067 8.580
22.3219 8.663
22.3371 8.379
22.3523 8.286
22.3674 8.172
22.3826 8.225
22.3978 7.983
22.4130 8.302
22.4281 8.349
22.4433 8.507
22.4585 8.445
22.4737 8.287
22.4888 8.608
22.5040 8.283
22.5192 8.497
22.5344 8.616
22.5495 8.656
22.5647 8.308
22.5799 8.234
22.5951 8.188
22.6102 8.490
22.6254 8.173
22.6406 8.534
22.6558 8.286
22.6709 8.493
22.6861 8.234
22.7013 8.217
22.7165 8.001
22.7316 6.346
