'Id: "" Comment: "" Operator: "Lab Manager" Anode: "Mo" Scantype: "Still (Eiger2R_500K (1D mode))" TimePerStep: "300" X: "11.8" Y: "9.4" Z: "11.284" 
7.2532 18.812
7.2684 18.534
7.2836 19.226
7.2987 19.270
7.3139 18.915
7.3291 19.067
7.3443 19.108
7.3594 19.459
7.3746 19.456
7.3898 19.081
7.4050 19.303
7.4201 19.692
7.4353 19.380
7.4505 19.506
7.4657 19.545
7.4808 19.576
7.4960 19.257
7.5112 19.152
7.5264 19.744
7.5415 19.904
7.5567 19.482
7.5719 19.462
7.5871 20.010
7.6022 20.314
7.6174 20.244
7.6326 20.041
7.6478 19.942
7.6629 20.144
7.6781 20.316
7.6933 20.331
7.7085 20.532
7.7236 20.720
7.7388 20.143
7.7540 20.065
7.7692 20.173
7.7843 20.163
7.7995 20.212
7.8147 20.112
7.8299 20.436
7.8450 20.766
7.8602 20.855
7.8754 20.533
7.8905 20.347
7.9057 20.672
7.9209 20.637
7.9361 20.584
7.9512 20.732
7.9664 20.639
7.9816 20.719
7.9968 20.807
8.0119 20.870
8.0271 21.286
8.0423 21.280
8.0575 21.022
8.0726 20.909
8.0878 21.125
8.1030 21.128
8.1182 21.464
8.1333 21.620
8.1485 21.302
8.1637 21.250
8.1789 21.167
8.1940 21.063
8.2092 21.723
8.2244 21.589
8.2396 21.639
8.2547 21.632
8.2699 21.576
8.2851 21.588
8.3003 21.355
8.3154 21.585
8.3306 21.875
8.3458 22.006
8.3610 21.538
8.3761 21.640
8.3913 21.808
8.4065 21.920
8.4217 21.882
8.4368 21.405
8.4520 21.622
8.4672 21.873
8.4824 22.144
8.4975 22.069
8.5127 22.012
8.5279 22.224
8.5431 21.436
8.5582 22.829
8.5734 22.053
8.5886 22.512
8.6038 21.863
8.6189 21.717
8.6341 22.556
8.6493 22.064
8.6645 21.767
8.6796 22.118
8.6948 22.101
8.7100 22.242
8.7252 21.948
8.7403 22.110
8.7555 22.219
8.7707 22.017
8.7859 22.672
8.8010 22.237
8.8162 22.475
8.8314 22.236
8.8466 22.606
8.8617 22.194
8.8769 21.908
8.8921 22.468
8.9073 22.383
8.9224 22.440
8.9376 22.387
8.9528 22.355
8.9680 22.031
8.9831 22.458
8.9983 22.712
9.0135 22.626
9.0287 23.055
9.0438 22.897
9.0590 22.436
9.0742 22.514
9.0894 23.207
9.1045 22.993
9.1197 22.878
9.1349 22.694
9.1501 23.157
9.1652 23.084
9.1804 23.207
9.1956 23.101
9.2108 22.828
9.2259 22.685
9.2411 22.819
9.2563 23.236
9.2715 23.097
9.2866 23.108
9.3018 22.701
9.3170 22.779
9.3322 23.213
9.3473 23.046
9.3625 23.016
9.3777 22.996
9.3929 23.123
9.4080 23.270
9.4232 23.168
9.4384 23.233
9.4536 23.330
9.4687 23.236
9.4839 23.078
9.4991 23.155
9.5143 23.345
9.5294 22.911
9.5446 22.945
9.5598 23.154
9.5750 22.982
9.5901 22.946
9.6053 23.246
9.6205 23.219
9.6357 23.078
9.6508 23.460
9.6660 23.746
9.6812 23.728
9.6964 23.920
9.7115 24.090
9.7267 23.974
9.7419 24.091
9.7571 24.145
9.7722 23.994
9.7874 23.994
9.8026 23.533
9.8178 23.431
9.8329 23.554
9.8481 23.332
9.8633 23.170
9.8785 23.158
9.8936 23.246
9.9088 23.526
9.9240 23.549
9.9392 23.268
9.9543 23.364
9.9695 23.359
9.9847 23.310
9.9999 23.290
10.0150 23.513
10.0302 23.483
10.0454 23.479
10.0606 23.509
10.0757 23.339
10.0909 23.004
10.1061 23.176
10.1213 23.540
10.1364 23.465
10.1516 23.208
10.1668 23.076
10.1820 23.089
10.1971 23.360
10.2123 23.552
10.2275 23.525
10.2427 22.994
10.2578 22.855
10.2730 22.939
10.2882 23.027
10.3034 23.174
10.3185 23.221
10.3337 23.028
10.3489 22.532
10.3641 22.500
10.3792 22.721
10.3944 22.427
10.4096 22.315
10.4248 22.824
10.4399 22.537
10.4551 22.614
10.4703 22.623
10.4855 22.932
10.5006 22.675
10.5158 22.323
10.5310 22.125
10.5462 22.283
10.5613 22.373
10.5765 22.404
10.5917 22.400
10.6069 22.297
10.6220 22.555
10.6372 22.531
10.6524 22.468
10.6676 22.706
10.6827 22.686
10.6979 22.713
10.7131 22.613
10.7283 22.215
10.7434 22.199
10.7586 22.329
10.7738 22.332
10.7890 22.263
10.8041 22.568
10.8193 22.203
10.8345 22.347
10.8497 22.419
10.8648 22.178
10.8800 22.142
10.8952 22.076
10.9104 21.906
10.9255 21.750
10.9407 22.090
10.9559 22.025
10.9711 22.175
10.9862 22.235
11.0014 21.941
11.0166 22.240
11.0318 22.318
11.0469 21.971
11.0621 21.740
11.0773 21.588
11.0925 21.569
11.1076 21.450
11.1228 21.552
11.1380 21.821
11.1532 21.870
11.1683 22.143
11.1835 21.663
11.1987 21.705
11.2139 21.714
11.2290 21.650
11.2442 21.557
11.2594 21.708
11.2746 21.642
11.2897 21.778
11.3049 21.387
11.3201 21.552
11.3353 21.796
11.3504 21.714
11.3656 21.398
11.3808 21.039
11.3960 21.186
11.4111 21.572
11.4263 21.697
11.4415 21.465
11.4567 21.569
11.4718 21.279
11.4870 21.306
11.5022 21.137
11.5174 21.422
11.5325 21.262
11.5477 20.846
11.5629 20.762
11.5781 20.929
11.5932 20.963
11.6084 20.762
11.6236 20.926
11.6388 20.665
11.6539 20.492
11.6691 20.503
11.6843 20.319
11.6995 20.387
11.7146 20.346
11.7298 20.465
11.7450 20.449
11.7602 20.106
11.7753 19.998
11.7905 20.154
11.8057 20.128
11.8209 20.244
11.8360 20.474
11.8512 20.003
11.8664 19.750
11.8816 19.626
11.8967 19.756
11.9119 20.134
11.9271 19.787
11.9423 19.496
11.9574 19.557
11.9726 19.420
11.9878 19.280
12.0030 19.150
12.0181 19.055
12.0333 19.358
12.0485 19.177
12.0637 18.717
12.0788 18.558
12.0940 18.990
12.1092 18.884
12.1244 18.508
12.1395 18.462
12.1547 18.151
12.1699 18.143
12.1851 18.117
12.2002 18.283
12.2154 18.260
12.2306 18.202
12.2458 17.911
12.2609 17.901
12.2761 17.789
12.2913 17.880
12.3065 17.690
12.3216 17.509
12.3368 17.635
12.3520 17.469
12.3672 17.216
12.3823 17.148
12.3975 17.188
12.4127 17.294
12.4279 16.749
12.4430 16.616
12.4582 16.715
12.4734 16.776
12.4886 16.645
12.5037 16.977
12.5189 16.809
12.5341 16.516
12.5493 16.434
12.5644 16.157
12.5796 16.056
12.5948 16.203
12.6100 15.941
12.6251 16.149
12.6403 16.375
12.6555 15.960
12.6707 15.854
12.6858 15.865
12.7010 15.700
12.7162 15.328
12.7314 15.061
12.7465 15.287
12.7617 15.339
12.7769 15.313
12.7921 15.522
12.8072 15.370
12.8224 14.897
12.8376 14.835
12.8528 14.926
12.8679 14.851
12.8831 14.800
12.8983 14.733
12.9135 14.651
12.9286 14.639
12.9438 14.348
12.9590 14.204
12.9742 14.659
12.9893 14.773
13.0045 14.348
13.0197 14.091
13.0349 14.167
13.0500 14.351
13.0652 14.127
13.0804 13.923
13.0956 13.985
13.1107 13.765
13.1259 13.838
13.1411 13.902
13.1563 13.608
13.1714 13.463
13.1866 13.475
13.2018 13.541
13.2170 13.404
13.2321 13.302
13.2473 13.345
13.2625 13.143
13.2777 13.098
13.2928 13.008
13.3080 12.805
13.3232 13.067
13.3384 13.264
13.3535 13.215
13.3687 13.097
13.3839 12.972
13.3991 12.889
13.4142 13.008
13.4294 13.039
13.4446 13.026
13.4598 12.785
13.4749 12.531
13.4901 12.633
13.5053 12.560
13.5205 12.357
13.5356 12.515
13.5508 12.555
13.5660 12.499
13.5812 12.307
13.5963 12.374
13.6115 12.261
13.6267 12.096
13.6419 12.349
13.6570 12.480
13.6722 12.293
13.6874 12.038
13.7026 11.955
13.7177 12.120
13.7329 12.014
13.7481 11.961
13.7633 11.998
13.7784 11.927
13.7936 11.977
13.8088 12.027
13.8239 12.294
13.8391 12.155
13.8543 12.245
13.8695 12.502
13.8846 12.387
13.8998 12.168
13.9150 12.217
13.9302 12.205
13.9453 12.132
13.9605 11.796
13.9757 11.706
13.9909 11.575
14.0060 11.464
14.0212 11.697
14.0364 11.625
14.0516 11.475
14.0667 11.676
14.0819 11.500
14.0971 11.649
14.1123 11.736
14.1274 11.541
14.1426 11.499
14.1578 11.601
14.1730 11.453
14.1881 11.474
14.2033 11.354
14.2185 11.454
14.2337 11.571
14.2488 11.680
14.2640 11.948
14.2792 11.885
14.2944 12.217
14.3095 12.010
14.3247 12.120
14.3399 12.119
14.3551 12.436
14.3702 12.665
14.3854 13.043
14.4006 13.534
14.4158 13.732
14.4309 13.695
14.4461 13.008
14.4613 13.052
14.4765 12.698
14.4916 12.746
14.5068 12.585
14.5220 12.204
14.5372 11.873
14.5523 11.367
14.5675 11.278
14.5827 11.241
14.5979 11.159
14.6130 10.832
14.6282 10.765
14.6434 10.864
14.6586 10.897
14.6737 10.769
14.6889 10.913
14.7041 10.939
14.7193 10.708
14.7344 10.531
14.7496 10.428
14.7648 10.654
14.7800 10.829
14.7951 10.569
14.8103 10.569
14.8255 10.643
14.8407 10.455
14.8558 10.423
14.8710 10.565
14.8862 10.538
14.9014 10.644
14.9165 10.598
14.9317 10.531
14.9469 10.530
14.9621 10.654
14.9772 10.280
14.9924 10.119
15.0076 9.982
15.0228 10.274
15.0379 10.724
15.0531 10.595
15.0683 10.054
15.0835 10.263
15.0986 10.424
15.1138 9.991
15.1290 10.136
15.1442 10.382
15.1593 10.405
15.1745 10.329
15.1897 10.130
15.2049 9.908
15.2200 10.195
15.2352 10.108
15.2504 10.085
15.2656 10.270
15.2807 10.241
15.2959 10.217
15.3111 10.438
15.3263 10.184
15.3414 10.212
15.3566 9.877
15.3718 10.009
15.3870 10.148
15.4021 9.849
15.4173 10.229
15.4325 10.233
15.4477 10.402
15.4628 10.215
15.4780 10.135
15.4932 10.011
15.5084 9.810
15.5235 9.891
15.5387 9.899
15.5539 9.807
15.5691 9.901
15.5842 9.852
15.5994 9.920
15.6146 9.949
15.6298 9.977
15.6449 9.950
15.6601 9.788
15.6753 9.823
15.6905 9.675
15.7056 9.868
15.7208 9.866
15.7360 9.604
15.7512 9.641
15.7663 9.987
15.7815 9.886
15.7967 9.661
15.8119 9.522
15.8270 9.903
15.8422 9.914
15.8574 9.798
15.8726 9.827
15.8877 9.446
15.9029 9.547
15.9181 9.711
15.9333 9.719
15.9484 9.569
15.9636 9.775
15.9788 9.712
15.9940 9.477
16.0091 9.766
16.0243 9.727
16.0395 9.719
16.0547 9.761
16.0698 9.593
16.0850 9.513
16.1002 9.492
16.1154 9.564
16.1305 9.688
16.1457 9.690
16.1609 9.642
16.1761 9.693
16.1912 9.686
16.2064 9.687
16.2216 9.482
16.2368 9.528
16.2519 9.791
16.2671 9.725
16.2823 9.579
16.2975 9.722
16.3126 9.671
16.3278 9.885
16.3430 9.942
16.3582 9.873
16.3733 10.017
16.3885 9.903
16.4037 9.780
16.4189 9.858
16.4340 9.653
16.4492 9.636
16.4644 9.738
16.4796 9.706
16.4947 9.882
16.5099 9.697
16.5251 9.729
16.5403 9.696
16.5554 9.769
16.5706 9.684
16.5858 9.644
16.6010 9.590
16.6161 9.451
16.6313 9.563
16.6465 9.600
16.6617 9.800
16.6768 9.906
16.6920 9.930
16.7072 9.905
16.7224 9.830
16.7375 9.598
16.7527 9.724
16.7679 9.744
16.7831 9.866
16.7982 9.914
16.8134 9.988
16.8286 10.149
16.8438 9.860
16.8589 9.777
16.8741 10.000
16.8893 10.034
16.9045 9.685
16.9196 9.697
16.9348 9.876
16.9500 9.687
16.9652 9.534
16.9803 9.595
16.9955 9.810
17.0107 9.924
17.0259 9.687
17.0410 9.792
17.0562 10.170
17.0714 10.293
17.0866 10.278
17.1017 10.381
17.1169 10.648
17.1321 11.012
17.1473 11.176
17.1624 11.505
17.1776 12.321
17.1928 12.991
17.2080 13.952
17.2231 15.128
17.2383 16.165
17.2535 17.354
17.2687 18.205
17.2838 18.496
17.2990 17.993
17.3142 16.931
17.3294 16.267
17.3445 16.155
17.3597 16.232
17.3749 15.836
17.3901 14.880
17.4052 13.908
17.4204 12.932
17.4356 12.217
17.4508 11.805
17.4659 11.468
17.4811 11.365
17.4963 11.293
17.5115 11.221
17.5266 10.943
17.5418 10.614
17.5570 10.686
17.5722 10.990
17.5873 11.135
17.6025 10.985
17.6177 10.960
17.6329 10.924
17.6480 11.209
17.6632 11.747
17.6784 12.019
17.6936 12.289
17.7087 12.095
17.7239 11.714
17.7391 11.879
17.7543 11.642
17.7694 11.064
17.7846 11.268
17.7998 11.398
17.8150 11.170
17.8301 11.087
17.8453 10.809
17.8605 10.538
17.8757 10.602
17.8908 10.610
17.9060 10.610
17.9212 10.451
17.9364 10.223
17.9515 10.246
17.9667 10.302
17.9819 10.196
17.9971 10.175
18.0122 10.287
18.0274 10.225
18.0426 10.195
18.0578 10.119
18.0729 10.127
18.0881 10.099
18.1033 10.013
18.1185 10.087
18.1336 9.885
18.1488 9.732
18.1640 9.962
18.1792 10.010
18.1943 9.844
18.2095 9.857
18.2247 9.806
18.2399 9.962
18.2550 9.846
18.2702 9.893
18.2854 9.925
18.3006 9.683
18.3157 9.607
18.3309 10.015
18.3461 9.988
18.3613 9.765
18.3764 9.717
18.3916 9.710
18.4068 9.675
18.4220 9.580
18.4371 9.699
18.4523 9.820
18.4675 9.792
18.4827 9.798
18.4978 9.921
18.5130 9.961
18.5282 10.003
18.5434 9.776
18.5585 9.619
18.5737 9.817
18.5889 9.987
18.6041 10.057
18.6192 9.835
18.6344 9.848
18.6496 9.700
18.6648 9.718
18.6799 9.705
18.6951 9.571
18.7103 9.632
18.7255 9.708
18.7406 9.893
18.7558 9.966
18.7710 9.925
18.7862 9.977
18.8013 9.866
18.8165 9.895
18.8317 10.028
18.8469 9.865
18.8620 9.979
18.8772 9.947
18.8924 9.681
18.9076 9.798
18.9227 9.895
18.9379 9.994
18.9531 10.090
18.9683 9.904
18.9834 9.949
18.9986 10.259
19.0138 10.231
19.0290 9.969
19.0441 10.107
19.0593 10.128
19.0745 10.055
19.0897 10.246
19.1048 10.315
19.1200 10.293
19.1352 10.352
19.1504 10.280
19.1655 10.259
19.1807 10.504
19.1959 10.514
19.2111 10.426
19.2262 10.606
19.2414 10.776
19.2566 10.973
19.2718 10.846
19.2869 10.757
19.3021 10.998
19.3173 10.807
19.3325 10.686
19.3476 11.013
19.3628 11.143
19.3780 11.121
19.3932 11.327
19.4083 11.049
19.4235 10.946
19.4387 11.424
19.4539 11.355
19.4690 11.321
19.4842 11.280
19.4994 11.097
19.5146 11.258
19.5297 11.255
19.5449 11.334
19.5601 11.421
19.5753 11.464
19.5904 11.542
19.6056 11.575
19.6208 11.686
19.6360 11.845
19.6511 11.657
19.6663 11.442
19.6815 11.564
19.6967 11.582
19.7118 11.654
19.7270 11.537
19.7422 11.481
19.7574 11.655
19.7725 12.043
19.7877 12.136
19.8029 11.906
19.8180 12.204
19.8332 12.282
19.8484 12.160
19.8636 12.426
19.8787 12.707
19.8939 12.973
19.9091 13.035
19.9243 13.111
19.9394 13.529
19.9546 13.723
19.9698 14.147
19.9850 14.550
20.0001 14.313
20.0153 14.131
20.0305 14.070
20.0457 13.977
20.0608 13.896
20.0760 13.854
20.0912 13.799
20.1064 13.469
20.1215 13.441
20.1367 13.309
20.1519 12.980
20.1671 12.877
20.1822 12.710
20.1974 12.442
20.2126 12.644
20.2278 12.790
20.2429 12.706
20.2581 12.465
20.2733 12.127
20.2885 11.947
20.3036 11.923
20.3188 11.973
20.3340 11.928
20.3492 11.689
20.3643 11.819
20.3795 11.730
20.3947 11.523
20.4099 11.853
20.4250 11.942
20.4402 12.063
20.4554 12.182
20.4706 12.091
20.4857 12.040
20.5009 12.305
20.5161 11.979
20.5313 11.679
20.5464 11.599
20.5616 11.345
20.5768 11.681
20.5920 11.457
20.6071 11.534
20.6223 11.224
20.6375 11.068
20.6527 10.992
20.6678 10.843
20.6830 10.690
20.6982 10.627
20.7134 10.536
20.7285 10.410
20.7437 10.602
20.7589 10.555
20.7741 10.419
20.7892 10.499
20.8044 10.271
20.8196 10.385
20.8348 10.136
20.8499 10.018
20.8651 10.175
20.8803 10.350
20.8955 10.230
20.9106 10.123
20.9258 10.175
20.9410 10.146
20.9562 10.240
20.9713 10.045
20.9865 10.010
21.0017 9.984
21.0169 10.011
21.0320 9.897
21.0472 9.874
21.0624 10.027
21.0776 9.870
21.0927 9.681
21.1079 9.803
21.1231 9.538
21.1383 9.654
21.1534 9.805
21.1686 9.913
21.1838 9.847
21.1990 9.690
21.2141 9.508
21.2293 9.722
21.2445 9.735
21.2597 9.927
21.2748 9.583
21.2900 10.044
21.3052 9.716
21.3204 9.399
21.3355 9.470
21.3507 9.601
21.3659 9.841
21.3811 9.621
21.3962 9.480
21.4114 9.504
21.4266 9.194
21.4418 9.658
21.4569 9.399
21.4721 9.453
21.4873 9.434
21.5025 9.326
21.5176 9.560
21.5328 9.446
21.5480 9.404
21.5632 9.566
21.5783 9.447
21.5935 9.444
21.6087 9.298
21.6239 9.287
21.6390 8.968
21.6542 9.058
21.6694 9.210
21.6846 9.230
21.6997 8.977
21.7149 8.892
21.7301 9.293
21.7453 9.039
21.7604 8.898
21.7756 9.018
21.7908 8.967
21.8060 8.959
21.8211 9.191
21.8363 9.112
21.8515 9.015
21.8667 9.084
21.8818 8.911
21.8970 9.009
21.9122 9.158
21.9274 9.105
21.9425 8.891
21.9577 8.861
21.9729 8.947
21.9881 8.925
22.0032 8.973
22.0184 8.757
22.0336 8.607
22.0488 8.723
22.0639 8.734
22.0791 8.799
22.0943 8.691
22.1095 8.635
22.1246 8.749
22.1398 8.678
22.1550 8.486
22.1702 8.613
22.1853 8.579
22.2005 8.375
22.2157 8.558
22.2309 8.759
22.2460 8.586
22.2612 8.461
22.2764 8.515
22.2916 8.549
22.3067 8.576
22.3219 8.626
22.3371 8.439
22.3523 8.525
22.3674 8.374
22.3826 8.292
22.3978 8.443
22.4130 8.304
22.4281 8.472
22.4433 8.375
22.4585 8.463
22.4737 8.328
22.4888 8.313
22.5040 8.380
22.5192 8.217
22.5344 8.262
22.5495 8.391
22.5647 8.418
22.5799 8.515
22.5951 8.504
22.6102 8.440
22.6254 8.639
22.6406 8.583
22.6558 8.045
22.6709 8.362
22.6861 8.211
22.7013 8.203
22.7165 7.884
22.7316 6.296
