'Id: "" Comment: "" Operator: "Lab Manager" Anode: "Mo" Scantype: "Still (Eiger2R_500K (1D mode))" TimePerStep: "300" X: "11.8" Y: "9.4" Z: "11.284" 
7.2532 19.008
7.2684 18.514
7.2836 19.387
7.2987 18.887
7.3139 18.764
7.3291 19.495
7.3443 19.176
7.3594 19.700
7.3746 19.449
7.3898 19.793
7.4050 19.799
7.4201 19.340
7.4353 19.429
7.4505 19.849
7.4657 19.645
7.4808 19.170
7.4960 19.241
7.5112 19.592
7.5264 19.936
7.5415 19.779
7.5567 19.962
7.5719 19.696
7.5871 19.737
7.6022 20.169
7.6174 20.109
7.6326 19.999
7.6478 19.935
7.6629 19.995
7.6781 20.029
7.6933 20.287
7.7085 20.634
7.7236 20.582
7.7388 20.391
7.7540 20.511
7.7692 20.457
7.7843 20.561
7.7995 20.487
7.8147 20.581
7.8299 20.782
7.8450 20.648
7.8602 20.804
7.8754 20.989
7.8905 21.233
7.9057 20.851
7.9209 20.459
7.9361 20.901
7.9512 21.234
7.9664 20.901
7.9816 21.158
7.9968 21.167
8.0119 20.873
8.0271 20.715
8.0423 20.920
8.0575 21.170
8.0726 20.985
8.0878 21.116
8.1030 21.179
8.1182 21.718
8.1333 21.757
8.1485 21.401
8.1637 21.628
8.1789 21.737
8.1940 22.061
8.2092 21.803
8.2244 21.622
8.2396 21.864
8.2547 21.708
8.2699 21.428
8.2851 21.891
8.3003 21.646
8.3154 22.030
8.3306 21.937
8.3458 21.625
8.3610 22.163
8.3761 22.169
8.3913 22.117
8.4065 21.866
8.4217 21.831
8.4368 22.018
8.4520 21.628
8.4672 21.868
8.4824 22.150
8.4975 22.361
8.5127 22.152
8.5279 22.086
8.5431 22.101
8.5582 22.081
8.5734 22.039
8.5886 22.140
8.6038 22.553
8.6189 22.280
8.6341 22.241
8.6493 22.077
8.6645 22.512
8.6796 22.676
8.6948 22.624
8.7100 22.710
8.7252 22.420
8.7403 22.301
8.7555 22.846
8.7707 22.288
8.7859 23.009
8.8010 22.145
8.8162 22.483
8.8314 22.694
8.8466 22.265
8.8617 22.500
8.8769 22.536
8.8921 22.443
8.9073 22.686
8.9224 22.879
8.9376 22.997
8.9528 22.792
8.9680 22.356
8.9831 22.179
8.9983 22.767
9.0135 23.277
9.0287 23.074
9.0438 22.877
9.0590 23.008
9.0742 22.932
9.0894 23.069
9.1045 22.473
9.1197 22.552
9.1349 23.110
9.1501 22.727
9.1652 22.642
9.1804 23.081
9.1956 23.120
9.2108 22.696
9.2259 22.811
9.2411 22.995
9.2563 22.976
9.2715 23.081
9.2866 22.969
9.3018 23.163
9.3170 22.951
9.3322 22.788
9.3473 23.161
9.3625 23.301
9.3777 23.480
9.3929 23.535
9.4080 22.861
9.4232 22.728
9.4384 23.335
9.4536 23.432
9.4687 22.767
9.4839 22.769
9.4991 23.296
9.5143 23.474
9.5294 23.058
9.5446 22.918
9.5598 23.177
9.5750 23.473
9.5901 23.771
9.6053 23.515
9.6205 23.370
9.6357 23.335
9.6508 23.235
9.6660 23.554
9.6812 23.580
9.6964 23.457
9.7115 23.579
9.7267 23.887
9.7419 24.063
9.7571 24.081
9.7722 23.845
9.7874 23.926
9.8026 23.838
9.8178 23.629
9.8329 23.580
9.8481 23.562
9.8633 23.811
9.8785 23.847
9.8936 23.766
9.9088 23.844
9.9240 23.942
9.9392 23.630
9.9543 23.558
9.9695 23.823
9.9847 23.767
9.9999 23.388
10.0150 23.287
10.0302 23.431
10.0454 22.974
10.0606 23.029
10.0757 23.229
10.0909 23.046
10.1061 23.282
10.1213 23.355
10.1364 23.266
10.1516 23.120
10.1668 23.289
10.1820 23.386
10.1971 23.375
10.2123 23.076
10.2275 23.077
10.2427 23.209
10.2578 23.201
10.2730 23.209
10.2882 23.178
10.3034 22.940
10.3185 22.901
10.3337 23.133
10.3489 23.173
10.3641 22.843
10.3792 22.678
10.3944 22.849
10.4096 22.791
10.4248 22.810
10.4399 22.650
10.4551 22.692
10.4703 23.012
10.4855 23.110
10.5006 22.702
10.5158 22.321
10.5310 22.379
10.5462 22.367
10.5613 22.550
10.5765 22.446
10.5917 22.566
10.6069 22.748
10.6220 22.634
10.6372 22.620
10.6524 22.843
10.6676 22.941
10.6827 22.646
10.6979 22.246
10.7131 22.576
10.7283 22.443
10.7434 22.356
10.7586 22.483
10.7738 22.544
10.7890 22.303
10.8041 22.381
10.8193 22.158
10.8345 22.044
10.8497 22.054
10.8648 22.638
10.8800 22.457
10.8952 22.370
10.9104 22.003
10.9255 21.903
10.9407 22.242
10.9559 22.248
10.9711 21.874
10.9862 22.459
11.0014 22.201
11.0166 22.405
11.0318 22.303
11.0469 22.099
11.0621 22.070
11.0773 22.030
11.0925 21.995
11.1076 22.009
11.1228 21.961
11.1380 21.966
11.1532 22.102
11.1683 21.879
11.1835 21.850
11.1987 21.950
11.2139 21.741
11.2290 21.411
11.2442 21.270
11.2594 21.406
11.2746 21.875
11.2897 21.936
11.3049 21.604
11.3201 21.518
11.3353 21.411
11.3504 21.355
11.3656 21.144
11.3808 21.344
11.3960 21.519
11.4111 21.339
11.4263 21.263
11.4415 21.406
11.4567 21.180
11.4718 21.044
11.4870 21.040
11.5022 21.160
11.5174 21.223
11.5325 21.425
11.5477 21.545
11.5629 21.126
11.5781 20.996
11.5932 21.214
11.6084 20.819
11.6236 21.062
11.6388 21.084
11.6539 20.567
11.6691 20.703
11.6843 20.350
11.6995 20.327
11.7146 20.454
11.7298 20.554
11.7450 20.693
11.7602 20.446
11.7753 20.171
11.7905 19.786
11.8057 20.236
11.8209 20.201
11.8360 19.903
11.8512 20.027
11.8664 19.813
11.8816 19.684
11.8967 19.762
11.9119 19.685
11.9271 19.721
11.9423 19.765
11.9574 19.445
11.9726 19.507
11.9878 19.262
12.0030 19.287
12.0181 19.516
12.0333 19.312
12.0485 19.457
12.0637 19.223
12.0788 18.960
12.0940 19.047
12.1092 18.828
12.1244 18.738
12.1395 18.644
12.1547 18.841
12.1699 18.599
12.1851 18.362
12.2002 18.084
12.2154 18.033
12.2306 18.095
12.2458 17.961
12.2609 17.707
12.2761 17.858
12.2913 18.004
12.3065 17.509
12.3216 17.667
12.3368 17.789
12.3520 17.543
12.3672 17.419
12.3823 17.106
12.3975 17.099
12.4127 17.266
12.4279 17.251
12.4430 16.978
12.4582 16.792
12.4734 16.797
12.4886 16.677
12.5037 16.756
12.5189 16.821
12.5341 16.449
12.5493 16.483
12.5644 16.454
12.5796 16.002
12.5948 16.170
12.6100 16.136
12.6251 15.927
12.6403 15.980
12.6555 15.709
12.6707 15.912
12.6858 16.010
12.7010 15.909
12.7162 15.741
12.7314 15.584
12.7465 15.540
12.7617 15.449
12.7769 15.396
12.7921 15.480
12.8072 15.289
12.8224 15.315
12.8376 15.274
12.8528 14.739
12.8679 14.611
12.8831 14.885
12.8983 14.866
12.9135 14.663
12.9286 14.747
12.9438 14.538
12.9590 14.441
12.9742 14.536
12.9893 14.649
13.0045 14.468
13.0197 14.143
13.0349 13.875
13.0500 13.975
13.0652 14.156
13.0804 13.970
13.0956 13.853
13.1107 14.018
13.1259 14.102
13.1411 13.786
13.1563 13.875
13.1714 13.819
13.1866 13.443
13.2018 13.560
13.2170 13.481
13.2321 13.291
13.2473 13.405
13.2625 13.339
13.2777 13.267
13.2928 13.220
13.3080 13.301
13.3232 13.517
13.3384 13.526
13.3535 13.555
13.3687 13.559
13.3839 13.416
13.3991 13.127
13.4142 13.136
13.4294 13.092
13.4446 12.812
13.4598 12.726
13.4749 12.768
13.4901 12.809
13.5053 12.623
13.5205 12.586
13.5356 12.688
13.5508 12.661
13.5660 12.615
13.5812 12.293
13.5963 12.132
13.6115 12.419
13.6267 12.447
13.6419 12.315
13.6570 12.092
13.6722 12.077
13.6874 12.266
13.7026 12.200
13.7177 12.146
13.7329 12.079
13.7481 12.338
13.7633 12.239
13.7784 12.092
13.7936 12.107
13.8088 12.446
13.8239 12.314
13.8391 12.399
13.8543 12.358
13.8695 12.307
13.8846 12.518
13.8998 12.295
13.9150 12.368
13.9302 12.532
13.9453 12.237
13.9605 11.888
13.9757 11.794
13.9909 11.725
14.0060 11.789
14.0212 11.561
14.0364 11.592
14.0516 11.702
14.0667 11.575
14.0819 11.470
14.0971 11.644
14.1123 11.766
14.1274 11.585
14.1426 11.422
14.1578 11.279
14.1730 11.513
14.1881 11.540
14.2033 11.185
14.2185 11.076
14.2337 11.204
14.2488 11.412
14.2640 11.565
14.2792 11.485
14.2944 11.520
14.3095 11.666
14.3247 12.052
14.3399 11.805
14.3551 11.980
14.3702 12.243
14.3854 12.682
14.4006 13.129
14.4158 13.012
14.4309 13.108
14.4461 12.848
14.4613 12.771
14.4765 12.609
14.4916 12.424
14.5068 12.286
14.5220 12.127
14.5372 11.899
14.5523 11.779
14.5675 11.319
14.5827 11.227
14.5979 11.077
14.6130 11.263
14.6282 11.211
14.6434 11.017
14.6586 11.224
14.6737 10.956
14.6889 10.919
14.7041 11.016
14.7193 11.022
14.7344 11.076
14.7496 11.157
14.7648 11.057
14.7800 10.818
14.7951 11.100
14.8103 11.063
14.8255 10.774
14.8407 11.273
14.8558 10.982
14.8710 10.840
14.8862 10.812
14.9014 10.623
14.9165 10.845
14.9317 11.157
14.9469 10.646
14.9621 10.462
14.9772 10.534
14.9924 10.487
15.0076 10.518
15.0228 10.444
15.0379 10.803
15.0531 10.555
15.0683 10.522
15.0835 10.345
15.0986 10.535
15.1138 10.435
15.1290 10.142
15.1442 10.398
15.1593 10.810
15.1745 10.644
15.1897 10.180
15.2049 10.138
15.2200 10.566
15.2352 10.537
15.2504 10.488
15.2656 10.217
15.2807 10.299
15.2959 10.093
15.3111 10.257
15.3263 10.132
15.3414 10.359
15.3566 10.407
15.3718 10.556
15.3870 10.329
15.4021 10.532
15.4173 10.609
15.4325 10.659
15.4477 10.239
15.4628 10.484
15.4780 10.258
15.4932 10.212
15.5084 10.487
15.5235 10.358
15.5387 10.393
15.5539 10.631
15.5691 10.215
15.5842 10.201
15.5994 10.241
15.6146 10.032
15.6298 10.008
15.6449 10.354
15.6601 10.311
15.6753 10.074
15.6905 9.730
15.7056 9.991
15.7208 10.182
15.7360 9.948
15.7512 9.864
15.7663 9.980
15.7815 10.139
15.7967 9.942
15.8119 9.775
15.8270 9.709
15.8422 9.996
15.8574 9.915
15.8726 9.871
15.8877 9.818
15.9029 9.592
15.9181 9.736
15.9333 9.990
15.9484 10.008
15.9636 9.653
15.9788 9.469
15.9940 9.851
16.0091 9.729
16.0243 9.851
16.0395 9.974
16.0547 9.827
16.0698 9.583
16.0850 9.492
16.1002 9.534
16.1154 9.619
16.1305 9.748
16.1457 9.560
16.1609 9.678
16.1761 9.760
16.1912 9.780
16.2064 9.754
16.2216 9.722
16.2368 9.663
16.2519 9.869
16.2671 9.869
16.2823 10.085
16.2975 9.803
16.3126 10.044
16.3278 10.000
16.3430 10.027
16.3582 9.709
16.3733 9.717
16.3885 10.052
16.4037 10.099
16.4189 10.129
16.4340 9.970
16.4492 10.003
16.4644 9.964
16.4796 10.101
16.4947 10.059
16.5099 9.850
16.5251 9.871
16.5403 9.754
16.5554 9.635
16.5706 9.750
16.5858 9.855
16.6010 9.957
16.6161 10.166
16.6313 9.928
16.6465 9.919
16.6617 9.637
16.6768 9.813
16.6920 9.968
16.7072 10.102
16.7224 10.477
16.7375 10.355
16.7527 10.029
16.7679 9.919
16.7831 9.929
16.7982 9.930
16.8134 10.095
16.8286 10.010
16.8438 10.121
16.8589 10.082
16.8741 9.905
16.8893 10.120
16.9045 10.210
16.9196 10.053
16.9348 10.029
16.9500 9.971
16.9652 9.824
16.9803 9.743
16.9955 10.000
17.0107 10.176
17.0259 10.214
17.0410 10.236
17.0562 10.406
17.0714 10.519
17.0866 10.529
17.1017 10.775
17.1169 11.021
17.1321 11.073
17.1473 11.177
17.1624 11.653
17.1776 12.397
17.1928 13.179
17.2080 14.232
17.2231 15.182
17.2383 16.313
17.2535 17.729
17.2687 18.989
17.2838 19.026
17.2990 18.339
17.3142 17.438
17.3294 16.435
17.3445 16.460
17.3597 16.387
17.3749 15.662
17.3901 14.972
17.4052 13.987
17.4204 13.229
17.4356 12.625
17.4508 11.807
17.4659 11.354
17.4811 11.175
17.4963 11.199
17.5115 10.861
17.5266 10.486
17.5418 10.483
17.5570 10.472
17.5722 10.418
17.5873 10.487
17.6025 10.551
17.6177 10.376
17.6329 10.553
17.6480 10.661
17.6632 10.488
17.6784 10.488
17.6936 10.481
17.7087 10.462
17.7239 10.676
17.7391 10.778
17.7543 10.652
17.7694 10.649
17.7846 10.652
17.7998 10.877
17.8150 11.034
17.8301 10.855
17.8453 10.872
17.8605 10.881
17.8757 10.830
17.8908 11.050
17.9060 11.018
17.9212 10.920
17.9364 10.857
17.9515 10.569
17.9667 10.628
17.9819 10.616
17.9971 10.610
18.0122 10.386
18.0274 10.231
18.0426 10.310
18.0578 10.521
18.0729 10.381
18.0881 10.048
18.1033 10.197
18.1185 10.103
18.1336 10.009
18.1488 9.803
18.1640 9.931
18.1792 10.008
18.1943 9.829
18.2095 9.850
18.2247 10.034
18.2399 10.037
18.2550 9.968
18.2702 10.032
18.2854 10.008
18.3006 9.878
18.3157 9.925
18.3309 10.094
18.3461 10.129
18.3613 9.914
18.3764 9.928
18.3916 9.785
18.4068 9.701
18.4220 9.696
18.4371 9.807
18.4523 9.809
18.4675 9.838
18.4827 9.633
18.4978 9.748
18.5130 9.774
18.5282 9.815
18.5434 9.609
18.5585 9.611
18.5737 9.830
18.5889 9.842
18.6041 9.813
18.6192 9.744
18.6344 9.689
18.6496 9.887
18.6648 9.930
18.6799 9.976
18.6951 10.052
18.7103 9.635
18.7255 9.449
18.7406 9.591
18.7558 9.763
18.7710 9.811
18.7862 9.864
18.8013 9.814
18.8165 9.754
18.8317 9.856
18.8469 9.997
18.8620 9.987
18.8772 9.805
18.8924 9.820
18.9076 9.971
18.9227 10.016
18.9379 10.013
18.9531 10.196
18.9683 10.095
18.9834 9.886
18.9986 10.152
19.0138 10.184
19.0290 9.959
19.0441 10.122
19.0593 10.220
19.0745 10.194
19.0897 10.453
19.1048 10.427
19.1200 10.346
19.1352 10.498
19.1504 10.547
19.1655 10.497
19.1807 10.665
19.1959 10.656
19.2111 10.690
19.2262 10.811
19.2414 10.763
19.2566 10.715
19.2718 10.981
19.2869 11.141
19.3021 10.860
19.3173 10.885
19.3325 11.131
19.3476 11.230
19.3628 11.122
19.3780 11.078
19.3932 11.207
19.4083 11.338
19.4235 11.248
19.4387 11.474
19.4539 11.721
19.4690 11.532
19.4842 11.367
19.4994 11.460
19.5146 11.567
19.5297 11.596
19.5449 11.626
19.5601 11.573
19.5753 11.536
19.5904 11.636
19.6056 11.597
19.6208 11.870
19.6360 12.036
19.6511 11.673
19.6663 11.658
19.6815 11.752
19.6967 11.639
19.7118 11.648
19.7270 11.713
19.7422 11.789
19.7574 11.822
19.7725 11.835
19.7877 11.927
19.8029 12.198
19.8180 12.280
19.8332 12.122
19.8484 12.431
19.8636 12.494
19.8787 12.513
19.8939 12.784
19.9091 12.969
19.9243 13.522
19.9394 14.109
19.9546 14.289
19.9698 14.546
19.9850 14.673
20.0001 14.578
20.0153 14.507
20.0305 14.180
20.0457 14.090
20.0608 14.019
20.0760 13.731
20.0912 13.754
20.1064 13.794
20.1215 13.551
20.1367 13.251
20.1519 13.164
20.1671 12.815
20.1822 12.438
20.1974 12.562
20.2126 12.660
20.2278 12.777
20.2429 12.490
20.2581 11.896
20.2733 11.734
20.2885 11.922
20.3036 11.700
20.3188 11.556
20.3340 11.612
20.3492 11.387
20.3643 11.400
20.3795 11.626
20.3947 11.233
20.4099 10.854
20.4250 11.071
20.4402 10.911
20.4554 10.718
20.4706 10.808
20.4857 10.787
20.5009 10.823
20.5161 10.464
20.5313 10.746
20.5464 10.907
20.5616 10.693
20.5768 10.881
20.5920 10.887
20.6071 10.541
20.6223 10.221
20.6375 10.528
20.6527 10.671
20.6678 10.584
20.6830 10.626
20.6982 10.888
20.7134 10.484
20.7285 10.167
20.7437 10.454
20.7589 10.770
20.7741 10.474
20.7892 10.358
20.8044 10.340
20.8196 10.311
20.8348 10.234
20.8499 10.238
20.8651 10.455
20.8803 10.477
20.8955 10.325
20.9106 10.252
20.9258 10.374
20.9410 10.272
20.9562 10.412
20.9713 10.468
20.9865 10.044
21.0017 10.442
21.0169 10.617
21.0320 10.693
21.0472 10.040
21.0624 10.403
21.0776 10.566
21.0927 10.086
21.1079 9.882
21.1231 10.053
21.1383 10.104
21.1534 10.089
21.1686 9.559
21.1838 9.611
21.1990 9.901
21.2141 9.757
21.2293 9.841
21.2445 9.645
21.2597 10.050
21.2748 9.717
21.2900 9.309
21.3052 9.847
21.3204 9.505
21.3355 9.399
21.3507 9.662
21.3659 9.808
21.3811 9.368
21.3962 9.643
21.4114 9.860
21.4266 9.692
21.4418 9.478
21.4569 9.467
21.4721 9.304
21.4873 9.305
21.5025 9.543
21.5176 9.339
21.5328 9.333
21.5480 9.141
21.5632 9.272
21.5783 9.331
21.5935 9.202
21.6087 9.097
21.6239 9.271
21.6390 9.191
21.6542 9.152
21.6694 8.986
21.6846 9.092
21.6997 9.446
21.7149 9.256
21.7301 9.064
21.7453 9.267
21.7604 9.096
21.7756 9.004
21.7908 8.937
21.8060 8.965
21.8211 9.080
21.8363 9.089
21.8515 9.089
21.8667 9.109
21.8818 9.130
21.8970 9.105
21.9122 9.000
21.9274 8.973
21.9425 8.776
21.9577 8.845
21.9729 8.980
21.9881 8.970
22.0032 8.914
22.0184 8.824
22.0336 8.693
22.0488 8.638
22.0639 8.712
22.0791 8.999
22.0943 8.825
22.1095 8.537
22.1246 8.708
22.1398 8.699
22.1550 8.696
22.1702 8.818
22.1853 8.810
22.2005 8.939
22.2157 8.666
22.2309 8.415
22.2460 8.529
22.2612 8.594
22.2764 8.449
22.2916 8.430
22.3067 8.396
22.3219 8.700
22.3371 8.646
22.3523 8.412
22.3674 8.515
22.3826 8.532
22.3978 8.821
22.4130 8.840
22.4281 8.510
22.4433 8.709
22.4585 8.316
22.4737 8.625
22.4888 8.369
22.5040 8.576
22.5192 8.508
22.5344 8.395
22.5495 8.462
22.5647 8.309
22.5799 8.495
22.5951 8.624
22.6102 8.441
22.6254 8.419
22.6406 8.723
22.6558 8.341
22.6709 8.562
22.6861 8.493
22.7013 8.192
22.7165 7.984
22.7316 6.444
