'Id: "" Comment: "" Operator: "Lab Manager" Anode: "Mo" Scantype: "Still (Eiger2R_500K (1D mode))" TimePerStep: "300" X: "11.8" Y: "9.4" Z: "11.284" 
7.2532 19.206
7.2684 18.803
7.2836 19.466
7.2987 19.298
7.3139 19.385
7.3291 19.449
7.3443 19.499
7.3594 19.518
7.3746 19.483
7.3898 19.556
7.4050 19.416
7.4201 19.719
7.4353 19.848
7.4505 19.738
7.4657 19.876
7.4808 19.470
7.4960 19.523
7.5112 19.520
7.5264 19.542
7.5415 19.890
7.5567 19.930
7.5719 20.211
7.5871 20.266
7.6022 19.867
7.6174 19.936
7.6326 19.940
7.6478 20.011
7.6629 20.036
7.6781 20.168
7.6933 20.433
7.7085 20.563
7.7236 20.502
7.7388 20.329
7.7540 20.369
7.7692 20.418
7.7843 20.468
7.7995 20.671
7.8147 20.717
7.8299 20.624
7.8450 20.933
7.8602 21.017
7.8754 20.865
7.8905 21.225
7.9057 21.273
7.9209 21.153
7.9361 21.457
7.9512 21.632
7.9664 21.581
7.9816 21.311
7.9968 21.361
8.0119 21.346
8.0271 21.431
8.0423 21.511
8.0575 21.159
8.0726 21.235
8.0878 21.231
8.1030 21.627
8.1182 21.589
8.1333 21.212
8.1485 21.153
8.1637 21.714
8.1789 21.219
8.1940 21.517
8.2092 21.578
8.2244 21.606
8.2396 21.743
8.2547 21.531
8.2699 21.625
8.2851 22.040
8.3003 21.641
8.3154 22.043
8.3306 21.666
8.3458 21.893
8.3610 21.762
8.3761 22.219
8.3913 21.971
8.4065 21.603
8.4217 21.885
8.4368 22.054
8.4520 21.599
8.4672 21.606
8.4824 22.491
8.4975 22.390
8.5127 21.836
8.5279 21.971
8.5431 21.865
8.5582 22.289
8.5734 22.330
8.5886 21.951
8.6038 22.525
8.6189 21.946
8.6341 22.275
8.6493 22.999
8.6645 22.409
8.6796 22.683
8.6948 22.512
8.7100 22.326
8.7252 23.157
8.7403 22.596
8.7555 22.987
8.7707 22.625
8.7859 22.250
8.8010 22.568
8.8162 22.221
8.8314 22.773
8.8466 22.559
8.8617 22.459
8.8769 22.729
8.8921 23.095
8.9073 22.756
8.9224 22.688
8.9376 22.783
8.9528 22.233
8.9680 22.492
8.9831 22.919
8.9983 22.580
9.0135 22.577
9.0287 23.021
9.0438 23.047
9.0590 22.886
9.0742 22.723
9.0894 22.962
9.1045 22.747
9.1197 22.993
9.1349 22.774
9.1501 22.865
9.1652 23.311
9.1804 22.714
9.1956 23.026
9.2108 23.217
9.2259 22.768
9.2411 22.504
9.2563 22.819
9.2715 23.100
9.2866 23.056
9.3018 22.853
9.3170 23.292
9.3322 22.881
9.3473 22.767
9.3625 23.151
9.3777 23.403
9.3929 23.107
9.4080 23.151
9.4232 23.232
9.4384 23.279
9.4536 23.108
9.4687 23.124
9.4839 23.275
9.4991 23.504
9.5143 23.217
9.5294 23.208
9.5446 23.050
9.5598 23.178
9.5750 23.570
9.5901 23.531
9.6053 23.632
9.6205 23.564
9.6357 23.565
9.6508 23.493
9.6660 23.480
9.6812 23.710
9.6964 23.825
9.7115 23.843
9.7267 23.783
9.7419 23.935
9.7571 24.191
9.7722 24.249
9.7874 24.046
9.8026 23.891
9.8178 23.905
9.8329 23.754
9.8481 23.517
9.8633 23.585
9.8785 23.614
9.8936 23.473
9.9088 23.391
9.9240 23.649
9.9392 23.551
9.9543 23.195
9.9695 23.231
9.9847 23.180
9.9999 23.536
10.0150 23.762
10.0302 23.794
10.0454 23.885
10.0606 23.949
10.0757 23.967
10.0909 23.892
10.1061 23.825
10.1213 23.889
10.1364 23.991
10.1516 23.897
10.1668 23.565
10.1820 23.711
10.1971 24.317
10.2123 24.212
10.2275 24.623
10.2427 23.982
10.2578 23.737
10.2730 23.940
10.2882 23.814
10.3034 23.654
10.3185 23.077
10.3337 22.988
10.3489 23.129
10.3641 22.874
10.3792 23.012
10.3944 23.333
10.4096 23.231
10.4248 23.171
10.4399 22.822
10.4551 23.071
10.4703 23.177
10.4855 23.144
10.5006 23.099
10.5158 22.904
10.5310 23.011
10.5462 22.816
10.5613 22.557
10.5765 22.620
10.5917 22.843
10.6069 22.763
10.6220 22.858
10.6372 23.150
10.6524 23.298
10.6676 23.047
10.6827 22.718
10.6979 22.656
10.7131 23.052
10.7283 22.933
10.7434 22.632
10.7586 22.341
10.7738 22.451
10.7890 22.271
10.8041 22.152
10.8193 22.022
10.8345 22.205
10.8497 22.281
10.8648 22.548
10.8800 22.588
10.8952 22.341
10.9104 22.550
10.9255 22.488
10.9407 22.153
10.9559 21.969
10.9711 21.891
10.9862 22.250
11.0014 22.381
11.0166 22.272
11.0318 22.280
11.0469 22.023
11.0621 22.140
11.0773 21.997
11.0925 22.068
11.1076 22.382
11.1228 21.797
11.1380 21.899
11.1532 21.714
11.1683 21.746
11.1835 22.175
11.1987 21.887
11.2139 21.742
11.2290 21.724
11.2442 21.473
11.2594 21.297
11.2746 21.635
11.2897 22.044
11.3049 21.692
11.3201 21.741
11.3353 21.747
11.3504 21.704
11.3656 21.737
11.3808 21.422
11.3960 21.650
11.4111 21.438
11.4263 21.671
11.4415 21.546
11.4567 21.368
11.4718 21.303
11.4870 21.536
11.5022 21.514
11.5174 21.511
11.5325 21.225
11.5477 21.405
11.5629 21.275
11.5781 20.953
11.5932 20.791
11.6084 20.798
11.6236 20.708
11.6388 20.860
11.6539 20.682
11.6691 20.613
11.6843 20.406
11.6995 20.347
11.7146 20.428
11.7298 20.402
11.7450 20.389
11.7602 20.452
11.7753 20.664
11.7905 20.110
11.8057 19.854
11.8209 19.844
11.8360 19.929
11.8512 19.617
11.8664 19.698
11.8816 19.700
11.8967 19.669
11.9119 19.649
11.9271 19.499
11.9423 19.594
11.9574 19.745
11.9726 19.372
11.9878 19.327
12.0030 19.356
12.0181 19.023
12.0333 18.778
12.0485 19.144
12.0637 18.991
12.0788 18.679
12.0940 18.503
12.1092 18.714
12.1244 18.822
12.1395 18.702
12.1547 18.517
12.1699 18.202
12.1851 18.255
12.2002 18.176
12.2154 18.199
12.2306 18.230
12.2458 17.768
12.2609 17.713
12.2761 17.467
12.2913 17.716
12.3065 17.661
12.3216 17.691
12.3368 17.758
12.3520 17.594
12.3672 17.285
12.3823 17.304
12.3975 17.276
12.4127 17.292
12.4279 17.449
12.4430 17.230
12.4582 17.089
12.4734 17.010
12.4886 17.034
12.5037 16.807
12.5189 16.754
12.5341 16.928
12.5493 16.795
12.5644 16.364
12.5796 16.254
12.5948 16.078
12.6100 16.069
12.6251 16.134
12.6403 15.875
12.6555 15.807
12.6707 15.828
12.6858 15.664
12.7010 15.604
12.7162 15.385
12.7314 15.315
12.7465 15.257
12.7617 15.279
12.7769 15.206
12.7921 15.294
12.8072 15.251
12.8224 14.959
12.8376 14.994
12.8528 14.943
12.8679 14.834
12.8831 14.838
12.8983 14.583
12.9135 14.589
12.9286 14.576
12.9438 14.389
12.9590 14.493
12.9742 14.370
12.9893 14.119
13.0045 14.224
13.0197 14.479
13.0349 14.262
13.0500 14.108
13.0652 14.027
13.0804 13.982
13.0956 14.167
13.1107 13.984
13.1259 13.573
13.1411 13.531
13.1563 13.750
13.1714 13.663
13.1866 13.338
13.2018 13.071
13.2170 13.329
13.2321 13.552
13.2473 13.268
13.2625 13.139
13.2777 13.072
13.2928 13.060
13.3080 13.127
13.3232 13.218
13.3384 13.070
13.3535 12.668
13.3687 12.609
13.3839 12.840
13.3991 13.120
13.4142 13.106
13.4294 13.088
13.4446 12.923
13.4598 12.706
13.4749 12.834
13.4901 12.702
13.5053 12.614
13.5205 12.629
13.5356 12.570
13.5508 12.469
13.5660 12.475
13.5812 12.294
13.5963 12.179
13.6115 12.012
13.6267 11.969
13.6419 12.139
13.6570 12.142
13.6722 11.987
13.6874 12.083
13.7026 12.022
13.7177 11.950
13.7329 11.949
13.7481 11.826
13.7633 11.919
13.7784 11.779
13.7936 11.701
13.8088 11.720
13.8239 11.985
13.8391 12.094
13.8543 12.234
13.8695 11.929
13.8846 11.899
13.8998 12.123
13.9150 12.032
13.9302 11.963
13.9453 11.812
13.9605 11.772
13.9757 11.787
13.9909 11.919
14.0060 11.630
14.0212 11.474
14.0364 11.204
14.0516 11.259
14.0667 11.265
14.0819 11.506
14.0971 11.329
14.1123 11.230
14.1274 11.196
14.1426 11.582
14.1578 11.629
14.1730 11.722
14.1881 11.755
14.2033 11.470
14.2185 11.614
14.2337 11.613
14.2488 11.752
14.2640 11.844
14.2792 11.950
14.2944 11.946
14.3095 11.895
14.3247 12.166
14.3399 12.540
14.3551 12.646
14.3702 12.688
14.3854 13.123
14.4006 13.169
14.4158 13.174
14.4309 13.023
14.4461 13.044
14.4613 13.279
14.4765 12.859
14.4916 12.947
14.5068 12.846
14.5220 12.631
14.5372 12.744
14.5523 12.776
14.5675 12.760
14.5827 12.467
14.5979 12.401
14.6130 12.131
14.6282 12.132
14.6434 11.918
14.6586 11.819
14.6737 11.492
14.6889 11.424
14.7041 11.330
14.7193 11.025
14.7344 10.788
14.7496 11.047
14.7648 10.817
14.7800 11.134
14.7951 10.991
14.8103 10.782
14.8255 10.765
14.8407 10.725
14.8558 10.779
14.8710 10.570
14.8862 11.002
14.9014 10.696
14.9165 11.199
14.9317 10.922
14.9469 10.939
14.9621 10.985
14.9772 10.564
14.9924 10.567
15.0076 10.638
15.0228 10.625
15.0379 10.894
15.0531 10.491
15.0683 10.414
15.0835 10.530
15.0986 10.697
15.1138 10.565
15.1290 10.576
15.1442 10.342
15.1593 10.590
15.1745 10.624
15.1897 10.351
15.2049 10.237
15.2200 10.433
15.2352 10.253
15.2504 10.188
15.2656 9.931
15.2807 10.284
15.2959 10.103
15.3111 10.479
15.3263 10.193
15.3414 10.306
15.3566 10.209
15.3718 10.293
15.3870 10.168
15.4021 10.433
15.4173 10.475
15.4325 10.495
15.4477 10.624
15.4628 10.631
15.4780 10.451
15.4932 10.425
15.5084 10.751
15.5235 10.419
15.5387 10.752
15.5539 10.383
15.5691 10.159
15.5842 10.376
15.5994 10.185
15.6146 10.111
15.6298 10.157
15.6449 9.930
15.6601 10.081
15.6753 10.297
15.6905 9.991
15.7056 9.929
15.7208 10.111
15.7360 9.753
15.7512 10.051
15.7663 9.835
15.7815 9.734
15.7967 9.795
15.8119 9.960
15.8270 10.023
15.8422 10.008
15.8574 9.749
15.8726 9.883
15.8877 9.959
15.9029 9.729
15.9181 9.534
15.9333 9.980
15.9484 9.944
15.9636 10.028
15.9788 9.874
15.9940 9.446
16.0091 9.881
16.0243 9.991
16.0395 9.787
16.0547 9.609
16.0698 9.639
16.0850 9.592
16.1002 9.570
16.1154 9.938
16.1305 9.755
16.1457 9.673
16.1609 9.777
16.1761 9.693
16.1912 9.610
16.2064 9.690
16.2216 9.610
16.2368 9.891
16.2519 9.716
16.2671 10.069
16.2823 10.028
16.2975 9.989
16.3126 10.057
16.3278 10.171
16.3430 10.174
16.3582 10.055
16.3733 10.040
16.3885 10.131
16.4037 10.181
16.4189 10.248
16.4340 10.111
16.4492 10.121
16.4644 9.888
16.4796 9.838
16.4947 9.774
16.5099 9.698
16.5251 9.717
16.5403 9.836
16.5554 9.876
16.5706 9.761
16.5858 9.804
16.6010 9.888
16.6161 9.844
16.6313 9.494
16.6465 9.667
16.6617 9.901
16.6768 9.893
16.6920 9.796
16.7072 9.955
16.7224 9.961
16.7375 10.015
16.7527 10.026
16.7679 9.995
16.7831 10.034
16.7982 9.858
16.8134 9.829
16.8286 10.093
16.8438 9.891
16.8589 9.642
16.8741 9.901
16.8893 9.926
16.9045 9.730
16.9196 9.761
16.9348 9.917
16.9500 10.039
16.9652 9.893
16.9803 9.948
16.9955 9.803
17.0107 9.700
17.0259 9.876
17.0410 9.885
17.0562 10.007
17.0714 10.095
17.0866 10.365
17.1017 10.476
17.1169 10.579
17.1321 10.950
17.1473 11.291
17.1624 11.818
17.1776 12.252
17.1928 12.933
17.2080 13.954
17.2231 14.893
17.2383 16.386
17.2535 17.756
17.2687 18.618
17.2838 18.812
17.2990 18.051
17.3142 17.083
17.3294 16.326
17.3445 15.867
17.3597 15.762
17.3749 15.654
17.3901 15.283
17.4052 14.417
17.4204 13.307
17.4356 12.545
17.4508 11.992
17.4659 11.905
17.4811 11.820
17.4963 11.413
17.5115 11.392
17.5266 11.237
17.5418 11.113
17.5570 11.135
17.5722 11.060
17.5873 11.329
17.6025 11.468
17.6177 11.363
17.6329 11.076
17.6480 10.871
17.6632 10.838
17.6784 10.859
17.6936 10.863
17.7087 10.903
17.7239 10.780
17.7391 10.560
17.7543 10.575
17.7694 10.688
17.7846 10.990
17.7998 11.284
17.8150 11.285
17.8301 11.143
17.8453 11.222
17.8605 11.662
17.8757 11.770
17.8908 11.622
17.9060 11.554
17.9212 11.373
17.9364 11.271
17.9515 11.059
17.9667 10.924
17.9819 11.049
17.9971 10.936
18.0122 10.777
18.0274 10.677
18.0426 10.431
18.0578 10.184
18.0729 10.185
18.0881 10.092
18.1033 9.925
18.1185 10.091
18.1336 9.967
18.1488 9.728
18.1640 9.835
18.1792 9.954
18.1943 10.098
18.2095 10.133
18.2247 9.869
18.2399 9.754
18.2550 9.711
18.2702 9.731
18.2854 9.820
18.3006 9.922
18.3157 9.905
18.3309 9.931
18.3461 9.906
18.3613 9.783
18.3764 9.706
18.3916 9.720
18.4068 9.892
18.4220 9.848
18.4371 10.034
18.4523 9.914
18.4675 9.684
18.4827 9.841
18.4978 10.031
18.5130 9.983
18.5282 9.677
18.5434 9.506
18.5585 9.569
18.5737 9.779
18.5889 9.787
18.6041 9.711
18.6192 9.805
18.6344 9.987
18.6496 9.974
18.6648 9.825
18.6799 9.757
18.6951 9.657
18.7103 9.642
18.7255 9.801
18.7406 9.710
18.7558 9.621
18.7710 9.574
18.7862 9.528
18.8013 9.535
18.8165 9.633
18.8317 9.846
18.8469 9.871
18.8620 9.803
18.8772 9.820
18.8924 9.926
18.9076 9.994
18.9227 9.978
18.9379 9.721
18.9531 9.801
18.9683 9.962
18.9834 10.067
18.9986 10.146
19.0138 9.922
19.0290 10.032
19.0441 10.092
19.0593 10.118
19.0745 10.407
19.0897 10.412
19.1048 10.331
19.1200 10.460
19.1352 10.449
19.1504 10.371
19.1655 10.647
19.1807 10.595
19.1959 10.436
19.2111 10.589
19.2262 10.736
19.2414 10.862
19.2566 10.772
19.2718 10.785
19.2869 10.881
19.3021 10.953
19.3173 11.016
19.3325 11.114
19.3476 11.054
19.3628 11.225
19.3780 11.219
19.3932 11.264
19.4083 11.324
19.4235 11.257
19.4387 11.300
19.4539 11.419
19.4690 11.310
19.4842 11.110
19.4994 11.275
19.5146 11.271
19.5297 11.195
19.5449 11.408
19.5601 11.593
19.5753 11.531
19.5904 11.373
19.6056 11.393
19.6208 11.594
19.6360 11.717
19.6511 11.669
19.6663 11.543
19.6815 11.828
19.6967 11.879
19.7118 11.595
19.7270 11.493
19.7422 11.573
19.7574 11.747
19.7725 11.590
19.7877 11.472
19.8029 11.697
19.8180 11.824
19.8332 12.042
19.8484 12.209
19.8636 12.267
19.8787 12.486
19.8939 12.875
19.9091 13.056
19.9243 13.242
19.9394 13.754
19.9546 14.023
19.9698 14.404
19.9850 14.494
20.0001 14.423
20.0153 14.104
20.0305 13.605
20.0457 13.644
20.0608 13.729
20.0760 13.535
20.0912 13.599
20.1064 13.604
20.1215 13.618
20.1367 13.346
20.1519 12.813
20.1671 12.737
20.1822 12.967
20.1974 13.130
20.2126 12.799
20.2278 12.484
20.2429 12.486
20.2581 12.327
20.2733 12.509
20.2885 12.337
20.3036 11.952
20.3188 12.107
20.3340 11.943
20.3492 11.536
20.3643 11.680
20.3795 11.389
20.3947 11.335
20.4099 11.112
20.4250 11.150
20.4402 10.916
20.4554 10.724
20.4706 10.872
20.4857 11.029
20.5009 10.919
20.5161 11.179
20.5313 11.024
20.5464 10.813
20.5616 10.907
20.5768 10.739
20.5920 10.886
20.6071 11.009
20.6223 11.176
20.6375 11.220
20.6527 10.774
20.6678 10.653
20.6830 10.660
20.6982 10.860
20.7134 10.817
20.7285 10.986
20.7437 10.780
20.7589 10.777
20.7741 10.642
20.7892 10.540
20.8044 10.651
20.8196 10.753
20.8348 10.647
20.8499 10.531
20.8651 10.250
20.8803 10.454
20.8955 10.334
20.9106 10.325
20.9258 10.251
20.9410 10.302
20.9562 10.177
20.9713 10.528
20.9865 10.424
21.0017 10.216
21.0169 9.945
21.0320 10.410
21.0472 10.102
21.0624 9.880
21.0776 10.292
21.0927 9.846
21.1079 9.795
21.1231 9.816
21.1383 9.735
21.1534 9.767
21.1686 9.945
21.1838 9.665
21.1990 9.812
21.2141 9.617
21.2293 10.046
21.2445 9.653
21.2597 9.439
21.2748 9.551
21.2900 9.925
21.3052 9.826
21.3204 9.483
21.3355 9.414
21.3507 9.541
21.3659 9.606
21.3811 9.583
21.3962 9.443
21.4114 9.591
21.4266 9.658
21.4418 9.800
21.4569 9.474
21.4721 9.774
21.4873 9.544
21.5025 9.380
21.5176 9.223
21.5328 9.410
21.5480 9.152
21.5632 9.213
21.5783 9.134
21.5935 9.181
21.6087 9.090
21.6239 9.059
21.6390 9.038
21.6542 8.931
21.6694 9.250
21.6846 9.394
21.6997 9.125
21.7149 9.100
21.7301 9.134
21.7453 8.985
21.7604 9.218
21.7756 8.841
21.7908 9.004
21.8060 9.118
21.8211 9.041
21.8363 8.871
21.8515 8.898
21.8667 8.982
21.8818 9.044
21.8970 9.196
21.9122 9.143
21.9274 9.151
21.9425 8.969
21.9577 8.805
21.9729 8.809
21.9881 8.868
22.0032 8.954
22.0184 8.924
22.0336 8.877
22.0488 8.967
22.0639 8.745
22.0791 8.813
22.0943 8.793
22.1095 8.714
22.1246 8.795
22.1398 8.769
22.1550 8.672
22.1702 8.524
22.1853 8.697
22.2005 8.649
22.2157 8.607
22.2309 8.719
22.2460 8.712
22.2612 8.559
22.2764 8.689
22.2916 8.577
22.3067 8.575
22.3219 8.658
22.3371 8.646
22.3523 8.646
22.3674 8.577
22.3826 8.656
22.3978 8.395
22.4130 8.343
22.4281 8.610
22.4433 8.487
22.4585 8.222
22.4737 8.540
22.4888 8.482
22.5040 8.524
22.5192 8.468
22.5344 8.367
22.5495 8.458
22.5647 8.556
22.5799 8.268
22.5951 8.521
22.6102 8.444
22.6254 8.711
22.6406 8.492
22.6558 8.609
22.6709 8.535
22.6861 8.704
22.7013 8.184
22.7165 8.102
22.7316 6.435
