'Id: "" Comment: "" Operator: "Lab Manager" Anode: "Mo" Scantype: "Still (Eiger2R_500K (1D mode))" TimePerStep: "300" X: "11.8" Y: "9.4" Z: "11.284" 
7.2532 18.685
7.2684 19.029
7.2836 19.139
7.2987 19.018
7.3139 18.693
7.3291 19.167
7.3443 19.441
7.3594 19.658
7.3746 19.177
7.3898 19.447
7.4050 19.366
7.4201 19.939
7.4353 19.819
7.4505 19.690
7.4657 19.407
7.4808 19.241
7.4960 20.062
7.5112 19.907
7.5264 20.058
7.5415 19.926
7.5567 19.899
7.5719 19.907
7.5871 20.007
7.6022 20.233
7.6174 19.910
7.6326 19.613
7.6478 19.671
7.6629 20.033
7.6781 20.453
7.6933 20.331
7.7085 20.214
7.7236 20.223
7.7388 20.379
7.7540 20.292
7.7692 20.480
7.7843 20.825
7.7995 20.505
7.8147 20.705
7.8299 20.915
7.8450 20.910
7.8602 20.638
7.8754 20.427
7.8905 20.947
7.9057 20.892
7.9209 20.682
7.9361 21.036
7.9512 20.999
7.9664 21.040
7.9816 20.898
7.9968 20.750
8.0119 21.104
8.0271 21.083
8.0423 21.099
8.0575 20.950
8.0726 21.046
8.0878 21.094
8.1030 20.902
8.1182 21.486
8.1333 21.696
8.1485 21.319
8.1637 21.759
8.1789 22.154
8.1940 21.669
8.2092 21.630
8.2244 21.612
8.2396 21.826
8.2547 21.418
8.2699 21.727
8.2851 21.870
8.3003 21.516
8.3154 21.725
8.3306 21.755
8.3458 21.407
8.3610 21.773
8.3761 21.737
8.3913 22.120
8.4065 22.391
8.4217 21.931
8.4368 21.948
8.4520 21.735
8.4672 21.525
8.4824 21.753
8.4975 22.045
8.5127 22.582
8.5279 22.263
8.5431 22.465
8.5582 22.458
8.5734 22.211
8.5886 22.668
8.6038 22.160
8.6189 22.217
8.6341 22.557
8.6493 22.534
8.6645 22.564
8.6796 22.922
8.6948 22.745
8.7100 22.807
8.7252 22.441
8.7403 22.140
8.7555 22.530
8.7707 22.992
8.7859 22.482
8.8010 22.207
8.8162 22.613
8.8314 22.716
8.8466 22.738
8.8617 22.416
8.8769 22.401
8.8921 22.486
8.9073 22.877
8.9224 22.549
8.9376 22.721
8.9528 22.101
8.9680 22.381
8.9831 22.655
8.9983 22.307
9.0135 22.988
9.0287 22.946
9.0438 22.977
9.0590 22.828
9.0742 22.953
9.0894 22.912
9.1045 22.861
9.1197 22.971
9.1349 23.132
9.1501 22.836
9.1652 22.876
9.1804 23.377
9.1956 23.118
9.2108 23.250
9.2259 23.252
9.2411 23.053
9.2563 22.709
9.2715 22.585
9.2866 22.848
9.3018 23.246
9.3170 23.005
9.3322 23.032
9.3473 22.937
9.3625 23.196
9.3777 22.932
9.3929 22.939
9.4080 23.013
9.4232 23.267
9.4384 23.308
9.4536 23.329
9.4687 23.195
9.4839 23.200
9.4991 23.012
9.5143 23.115
9.5294 22.971
9.5446 23.096
9.5598 23.069
9.5750 23.293
9.5901 23.546
9.6053 23.405
9.6205 23.321
9.6357 23.230
9.6508 23.331
9.6660 23.908
9.6812 23.983
9.6964 23.735
9.7115 23.761
9.7267 24.140
9.7419 24.282
9.7571 23.832
9.7722 23.764
9.7874 23.995
9.8026 23.789
9.8178 23.697
9.8329 23.754
9.8481 23.675
9.8633 23.580
9.8785 23.620
9.8936 23.853
9.9088 24.118
9.9240 23.945
9.9392 23.939
9.9543 24.185
9.9695 23.802
9.9847 23.356
9.9999 23.478
10.0150 23.468
10.0302 23.131
10.0454 23.039
10.0606 22.857
10.0757 22.767
10.0909 23.351
10.1061 23.399
10.1213 23.187
10.1364 23.173
10.1516 23.120
10.1668 23.058
10.1820 23.198
10.1971 23.161
10.2123 22.913
10.2275 23.284
10.2427 23.452
10.2578 23.276
10.2730 23.036
10.2882 22.833
10.3034 22.887
10.3185 23.058
10.3337 23.092
10.3489 23.117
10.3641 23.161
10.3792 23.471
10.3944 23.588
10.4096 23.139
10.4248 22.901
10.4399 22.771
10.4551 22.792
10.4703 23.152
10.4855 22.882
10.5006 22.631
10.5158 22.654
10.5310 22.368
10.5462 22.366
10.5613 22.348
10.5765 22.164
10.5917 22.272
10.6069 22.905
10.6220 22.571
10.6372 22.487
10.6524 22.525
10.6676 22.366
10.6827 22.714
10.6979 22.666
10.7131 22.503
10.7283 22.443
10.7434 22.407
10.7586 22.132
10.7738 21.986
10.7890 22.119
10.8041 22.051
10.8193 22.119
10.8345 22.197
10.8497 22.428
10.8648 22.528
10.8800 22.324
10.8952 21.905
10.9104 22.410
10.9255 22.585
10.9407 22.405
10.9559 21.945
10.9711 21.874
10.9862 22.278
11.0014 22.381
11.0166 22.152
11.0318 22.271
11.0469 22.123
11.0621 21.943
11.0773 22.117
11.0925 22.720
11.1076 22.327
11.1228 21.929
11.1380 21.946
11.1532 21.844
11.1683 21.614
11.1835 21.721
11.1987 21.714
11.2139 21.995
11.2290 21.612
11.2442 21.719
11.2594 21.587
11.2746 21.608
11.2897 21.557
11.3049 21.832
11.3201 21.767
11.3353 21.780
11.3504 21.370
11.3656 21.335
11.3808 21.398
11.3960 21.037
11.4111 20.973
11.4263 20.938
11.4415 20.964
11.4567 21.199
11.4718 21.383
11.4870 21.425
11.5022 21.386
11.5174 21.145
11.5325 20.994
11.5477 21.215
11.5629 21.057
11.5781 21.223
11.5932 21.195
11.6084 20.983
11.6236 20.767
11.6388 20.925
11.6539 20.656
11.6691 20.919
11.6843 20.818
11.6995 20.107
11.7146 19.943
11.7298 20.169
11.7450 20.144
11.7602 20.140
11.7753 20.432
11.7905 20.478
11.8057 20.225
11.8209 19.924
11.8360 19.738
11.8512 19.862
11.8664 19.592
11.8816 19.815
11.8967 19.660
11.9119 19.853
11.9271 19.950
11.9423 19.651
11.9574 19.775
11.9726 19.550
11.9878 19.120
12.0030 19.047
12.0181 19.626
12.0333 19.478
12.0485 19.183
12.0637 19.207
12.0788 18.964
12.0940 18.983
12.1092 18.708
12.1244 18.462
12.1395 18.537
12.1547 18.576
12.1699 18.631
12.1851 18.642
12.2002 18.485
12.2154 18.219
12.2306 18.099
12.2458 18.140
12.2609 17.828
12.2761 17.742
12.2913 17.770
12.3065 17.805
12.3216 17.821
12.3368 17.621
12.3520 17.473
12.3672 17.504
12.3823 17.392
12.3975 17.056
12.4127 17.178
12.4279 17.213
12.4430 17.103
12.4582 16.879
12.4734 16.898
12.4886 16.912
12.5037 16.928
12.5189 16.691
12.5341 16.578
12.5493 16.348
12.5644 16.285
12.5796 16.241
12.5948 16.331
12.6100 16.100
12.6251 16.194
12.6403 16.216
12.6555 15.788
12.6707 15.778
12.6858 15.706
12.7010 15.761
12.7162 15.505
12.7314 15.225
12.7465 15.410
12.7617 15.496
12.7769 15.244
12.7921 15.220
12.8072 15.080
12.8224 14.883
12.8376 14.918
12.8528 15.119
12.8679 15.182
12.8831 15.011
12.8983 14.914
12.9135 14.696
12.9286 14.589
12.9438 14.620
12.9590 14.713
12.9742 14.587
12.9893 14.470
13.0045 14.526
13.0197 14.545
13.0349 14.313
13.0500 13.975
13.0652 13.954
13.0804 14.050
13.0956 14.101
13.1107 13.965
13.1259 13.919
13.1411 13.800
13.1563 13.794
13.1714 13.891
13.1866 13.710
13.2018 13.569
13.2170 13.603
13.2321 13.567
13.2473 13.649
13.2625 13.764
13.2777 13.515
13.2928 13.395
13.3080 13.257
13.3232 13.252
13.3384 13.281
13.3535 13.125
13.3687 13.056
13.3839 13.065
13.3991 12.834
13.4142 12.925
13.4294 13.228
13.4446 12.986
13.4598 12.863
13.4749 12.623
13.4901 12.641
13.5053 12.739
13.5205 12.534
13.5356 12.479
13.5508 12.399
13.5660 12.360
13.5812 12.486
13.5963 12.308
13.6115 12.399
13.6267 12.438
13.6419 12.200
13.6570 11.974
13.6722 12.086
13.6874 12.066
13.7026 11.976
13.7177 12.092
13.7329 12.208
13.7481 12.294
13.7633 12.267
13.7784 12.167
13.7936 12.185
13.8088 12.410
13.8239 12.554
13.8391 12.470
13.8543 12.164
13.8695 12.087
13.8846 12.198
13.8998 12.285
13.9150 12.400
13.9302 12.104
13.9453 11.746
13.9605 11.802
13.9757 11.761
13.9909 11.586
14.0060 11.652
14.0212 11.879
14.0364 11.458
14.0516 11.407
14.0667 11.565
14.0819 11.333
14.0971 11.272
14.1123 11.398
14.1274 11.370
14.1426 11.476
14.1578 11.263
14.1730 11.032
14.1881 11.235
14.2033 11.385
14.2185 11.299
14.2337 11.434
14.2488 11.742
14.2640 11.616
14.2792 11.525
14.2944 11.317
14.3095 11.533
14.3247 11.844
14.3399 11.811
14.3551 11.910
14.3702 12.097
14.3854 12.389
14.4006 12.712
14.4158 12.642
14.4309 12.567
14.4461 12.431
14.4613 12.105
14.4765 12.071
14.4916 12.007
14.5068 11.829
14.5220 11.845
14.5372 11.865
14.5523 11.839
14.5675 11.635
14.5827 11.363
14.5979 11.132
14.6130 10.891
14.6282 11.348
14.6434 11.008
14.6586 10.896
14.6737 11.000
14.6889 11.116
14.7041 11.102
14.7193 11.276
14.7344 11.202
14.7496 11.069
14.7648 11.086
14.7800 10.909
14.7951 11.258
14.8103 10.858
14.8255 11.254
14.8407 10.811
14.8558 10.662
14.8710 10.846
14.8862 10.918
14.9014 10.877
14.9165 11.290
14.9317 11.044
14.9469 10.744
14.9621 10.549
14.9772 10.487
14.9924 10.620
15.0076 11.048
15.0228 10.600
15.0379 10.771
15.0531 10.731
15.0683 10.303
15.0835 10.643
15.0986 10.702
15.1138 10.315
15.1290 10.399
15.1442 10.408
15.1593 10.475
15.1745 10.451
15.1897 10.469
15.2049 10.372
15.2200 10.680
15.2352 10.292
15.2504 10.465
15.2656 10.514
15.2807 10.348
15.2959 10.311
15.3111 10.418
15.3263 10.094
15.3414 10.456
15.3566 10.387
15.3718 10.278
15.3870 10.104
15.4021 10.318
15.4173 10.208
15.4325 10.574
15.4477 10.335
15.4628 10.435
15.4780 10.374
15.4932 10.419
15.5084 10.299
15.5235 10.512
15.5387 10.039
15.5539 10.106
15.5691 10.082
15.5842 10.018
15.5994 10.099
15.6146 10.217
15.6298 10.185
15.6449 10.174
15.6601 10.389
15.6753 10.459
15.6905 10.314
15.7056 10.063
15.7208 10.233
15.7360 10.199
15.7512 9.694
15.7663 10.125
15.7815 9.937
15.7967 9.992
15.8119 9.832
15.8270 9.953
15.8422 9.619
15.8574 10.043
15.8726 9.739
15.8877 9.806
15.9029 9.587
15.9181 9.954
15.9333 9.962
15.9484 10.060
15.9636 9.719
15.9788 10.158
15.9940 10.092
16.0091 9.959
16.0243 9.984
16.0395 9.826
16.0547 9.911
16.0698 9.814
16.0850 10.058
16.1002 9.779
16.1154 9.879
16.1305 9.631
16.1457 9.821
16.1609 9.914
16.1761 9.884
16.1912 10.129
16.2064 9.617
16.2216 9.728
16.2368 9.794
16.2519 9.725
16.2671 9.936
16.2823 10.172
16.2975 10.153
16.3126 9.861
16.3278 9.911
16.3430 9.952
16.3582 10.142
16.3733 10.369
16.3885 10.331
16.4037 10.225
16.4189 10.181
16.4340 10.099
16.4492 10.094
16.4644 9.842
16.4796 9.854
16.4947 9.931
16.5099 9.860
16.5251 9.824
16.5403 10.017
16.5554 10.126
16.5706 9.996
16.5858 9.797
16.6010 9.718
16.6161 9.757
16.6313 9.878
16.6465 9.812
16.6617 9.882
16.6768 9.889
16.6920 9.591
16.7072 9.598
16.7224 10.002
16.7375 10.296
16.7527 10.188
16.7679 9.973
16.7831 10.066
16.7982 10.218
16.8134 10.145
16.8286 9.861
16.8438 9.869
16.8589 9.889
16.8741 9.943
16.8893 10.032
16.9045 10.099
16.9196 9.831
16.9348 9.749
16.9500 9.684
16.9652 9.695
16.9803 9.735
16.9955 9.778
17.0107 10.054
17.0259 10.288
17.0410 10.345
17.0562 10.192
17.0714 10.278
17.0866 10.505
17.1017 10.729
17.1169 10.871
17.1321 11.098
17.1473 11.620
17.1624 12.037
17.1776 12.487
17.1928 13.325
17.2080 14.283
17.2231 15.287
17.2383 16.459
17.2535 17.542
17.2687 18.251
17.2838 18.634
17.2990 18.299
17.3142 17.393
17.3294 16.396
17.3445 15.923
17.3597 15.916
17.3749 15.921
17.3901 15.238
17.4052 14.094
17.4204 13.196
17.4356 12.300
17.4508 12.034
17.4659 11.742
17.4811 11.339
17.4963 11.394
17.5115 11.155
17.5266 10.674
17.5418 10.467
17.5570 10.606
17.5722 10.676
17.5873 10.309
17.6025 10.128
17.6177 10.332
17.6329 10.185
17.6480 9.928
17.6632 10.172
17.6784 10.425
17.6936 10.263
17.7087 10.254
17.7239 10.336
17.7391 10.418
17.7543 10.433
17.7694 10.340
17.7846 10.364
17.7998 10.450
17.8150 10.672
17.8301 10.726
17.8453 10.659
17.8605 10.900
17.8757 10.943
17.8908 10.891
17.9060 10.869
17.9212 10.797
17.9364 10.760
17.9515 10.554
17.9667 10.526
17.9819 10.602
17.9971 10.503
18.0122 10.517
18.0274 10.443
18.0426 10.465
18.0578 10.405
18.0729 10.228
18.0881 10.051
18.1033 9.965
18.1185 10.173
18.1336 10.286
18.1488 10.072
18.1640 9.859
18.1792 10.159
18.1943 10.045
18.2095 10.023
18.2247 10.004
18.2399 9.763
18.2550 9.905
18.2702 10.171
18.2854 9.928
18.3006 9.729
18.3157 9.981
18.3309 10.219
18.3461 9.894
18.3613 10.127
18.3764 10.342
18.3916 10.041
18.4068 9.692
18.4220 9.998
18.4371 10.048
18.4523 9.998
18.4675 9.912
18.4827 9.832
18.4978 9.606
18.5130 9.681
18.5282 10.020
18.5434 9.895
18.5585 9.832
18.5737 9.838
18.5889 9.909
18.6041 9.741
18.6192 9.787
18.6344 9.872
18.6496 9.735
18.6648 9.857
18.6799 9.940
18.6951 9.994
18.7103 10.046
18.7255 9.838
18.7406 9.776
18.7558 9.758
18.7710 9.787
18.7862 9.689
18.8013 9.653
18.8165 9.509
18.8317 9.557
18.8469 10.016
18.8620 9.957
18.8772 9.974
18.8924 9.876
18.9076 9.898
18.9227 9.953
18.9379 9.810
18.9531 9.858
18.9683 10.041
18.9834 9.980
18.9986 9.959
19.0138 9.764
19.0290 9.964
19.0441 10.031
19.0593 10.228
19.0745 10.345
19.0897 10.228
19.1048 10.300
19.1200 10.515
19.1352 10.689
19.1504 10.695
19.1655 10.719
19.1807 10.471
19.1959 10.294
19.2111 10.641
19.2262 10.789
19.2414 10.860
19.2566 10.814
19.2718 10.891
19.2869 10.843
19.3021 11.030
19.3173 11.230
19.3325 11.255
19.3476 11.194
19.3628 11.086
19.3780 11.011
19.3932 11.163
19.4083 11.338
19.4235 11.457
19.4387 11.389
19.4539 11.358
19.4690 11.271
19.4842 11.102
19.4994 11.233
19.5146 11.192
19.5297 11.215
19.5449 11.524
19.5601 11.664
19.5753 11.398
19.5904 11.352
19.6056 11.713
19.6208 11.823
19.6360 11.713
19.6511 11.552
19.6663 11.748
19.6815 11.911
19.6967 11.703
19.7118 11.681
19.7270 11.756
19.7422 11.760
19.7574 11.668
19.7725 11.821
19.7877 12.044
19.8029 12.137
19.8180 12.122
19.8332 11.870
19.8484 11.933
19.8636 12.606
19.8787 12.566
19.8939 12.459
19.9091 12.954
19.9243 13.251
19.9394 13.647
19.9546 13.999
19.9698 14.190
19.9850 14.460
20.0001 14.501
20.0153 14.231
20.0305 14.137
20.0457 14.164
20.0608 14.083
20.0760 13.740
20.0912 13.867
20.1064 13.718
20.1215 13.435
20.1367 13.019
20.1519 12.913
20.1671 12.844
20.1822 12.724
20.1974 12.731
20.2126 12.555
20.2278 12.564
20.2429 12.429
20.2581 12.206
20.2733 12.082
20.2885 11.782
20.3036 11.693
20.3188 11.463
20.3340 11.453
20.3492 11.378
20.3643 11.303
20.3795 11.228
20.3947 11.142
20.4099 10.908
20.4250 10.759
20.4402 10.837
20.4554 10.943
20.4706 10.873
20.4857 10.540
20.5009 10.816
20.5161 10.848
20.5313 10.702
20.5464 10.517
20.5616 10.507
20.5768 10.621
20.5920 10.737
20.6071 10.654
20.6223 10.280
20.6375 10.329
20.6527 10.396
20.6678 10.703
20.6830 10.203
20.6982 10.457
20.7134 10.735
20.7285 10.530
20.7437 10.476
20.7589 10.313
20.7741 10.119
20.7892 10.646
20.8044 10.361
20.8196 10.199
20.8348 10.310
20.8499 10.270
20.8651 10.150
20.8803 10.230
20.8955 10.606
20.9106 10.459
20.9258 10.091
20.9410 10.425
20.9562 10.273
20.9713 10.117
20.9865 10.572
21.0017 10.140
21.0169 10.322
21.0320 10.362
21.0472 10.110
21.0624 9.983
21.0776 10.408
21.0927 10.101
21.1079 10.017
21.1231 9.731
21.1383 9.942
21.1534 9.845
21.1686 9.952
21.1838 9.856
21.1990 9.575
21.2141 9.709
21.2293 9.702
21.2445 9.881
21.2597 9.802
21.2748 9.703
21.2900 9.598
21.3052 9.526
21.3204 9.676
21.3355 9.418
21.3507 9.543
21.3659 9.861
21.3811 9.617
21.3962 9.742
21.4114 9.331
21.4266 9.124
21.4418 9.193
21.4569 9.255
21.4721 9.514
21.4873 9.548
21.5025 9.290
21.5176 9.157
21.5328 9.229
21.5480 9.611
21.5632 9.378
21.5783 9.175
21.5935 9.089
21.6087 9.159
21.6239 9.192
21.6390 9.211
21.6542 9.231
21.6694 9.259
21.6846 9.051
21.6997 9.050
21.7149 9.001
21.7301 8.927
21.7453 8.990
21.7604 9.157
21.7756 9.067
21.7908 9.027
21.8060 9.059
21.8211 8.983
21.8363 9.014
21.8515 9.057
21.8667 9.014
21.8818 9.228
21.8970 9.145
21.9122 9.084
21.9274 8.879
21.9425 8.850
21.9577 8.725
21.9729 8.847
21.9881 9.003
22.0032 8.879
22.0184 8.753
22.0336 8.722
22.0488 8.811
22.0639 8.735
22.0791 8.834
22.0943 9.050
22.1095 8.802
22.1246 8.395
22.1398 8.518
22.1550 8.693
22.1702 8.843
22.1853 8.616
22.2005 8.677
22.2157 8.746
22.2309 8.606
22.2460 8.513
22.2612 8.594
22.2764 8.627
22.2916 8.625
22.3067 8.577
22.3219 8.459
22.3371 8.586
22.3523 8.725
22.3674 8.454
22.3826 8.498
22.3978 8.461
22.4130 8.788
22.4281 8.753
22.4433 8.456
22.4585 8.639
22.4737 8.503
22.4888 8.705
22.5040 8.580
22.5192 8.410
22.5344 8.529
22.5495 8.266
22.5647 8.543
22.5799 8.761
22.5951 8.691
22.6102 8.652
22.6254 8.432
22.6406 8.684
22.6558 8.431
22.6709 8.499
22.6861 8.536
22.7013 8.109
22.7165 7.770
22.7316 6.381
