'Id: "" Comment: "" Operator: "Lab Manager" Anode: "Mo" Scantype: "Still (Eiger2R_500K (1D mode))" TimePerStep: "300" X: "11.8" Y: "9.4" Z: "11.284" 
7.2532 18.558
7.2684 18.789
7.2836 19.094
7.2987 19.121
7.3139 18.914
7.3291 18.648
7.3443 18.752
7.3594 18.743
7.3746 19.281
7.3898 18.913
7.4050 19.580
7.4201 19.839
7.4353 19.345
7.4505 19.466
7.4657 19.396
7.4808 19.386
7.4960 19.546
7.5112 19.412
7.5264 19.485
7.5415 19.693
7.5567 19.972
7.5719 19.801
7.5871 20.067
7.6022 20.018
7.6174 19.943
7.6326 19.790
7.6478 20.027
7.6629 20.226
7.6781 20.091
7.6933 20.007
7.7085 20.101
7.7236 20.093
7.7388 20.231
7.7540 20.326
7.7692 20.616
7.7843 20.370
7.7995 20.411
7.8147 20.785
7.8299 20.749
7.8450 20.623
7.8602 20.296
7.8754 20.512
7.8905 21.031
7.9057 20.869
7.9209 20.753
7.9361 20.788
7.9512 20.799
7.9664 20.773
7.9816 20.664
7.9968 20.532
8.0119 20.457
8.0271 20.964
8.0423 21.118
8.0575 21.548
8.0726 21.163
8.0878 21.000
8.1030 21.040
8.1182 21.140
8.1333 21.005
8.1485 21.486
8.1637 21.385
8.1789 21.309
8.1940 21.515
8.2092 21.292
8.2244 21.621
8.2396 21.741
8.2547 21.309
8.2699 21.328
8.2851 21.505
8.3003 21.836
8.3154 21.671
8.3306 21.556
8.3458 21.653
8.3610 21.885
8.3761 21.772
8.3913 21.558
8.4065 21.714
8.4217 22.194
8.4368 21.634
8.4520 21.982
8.4672 22.124
8.4824 22.165
8.4975 22.107
8.5127 21.782
8.5279 21.480
8.5431 22.217
8.5582 21.719
8.5734 22.233
8.5886 21.848
8.6038 22.321
8.6189 21.912
8.6341 22.285
8.6493 22.325
8.6645 23.325
8.6796 22.434
8.6948 22.559
8.7100 22.434
8.7252 22.529
8.7403 22.161
8.7555 22.483
8.7707 22.397
8.7859 22.775
8.8010 22.521
8.8162 22.777
8.8314 22.578
8.8466 22.160
8.8617 22.604
8.8769 22.825
8.8921 22.381
8.9073 22.429
8.9224 22.840
8.9376 22.750
8.9528 23.231
8.9680 22.675
8.9831 22.570
8.9983 22.192
9.0135 22.592
9.0287 22.644
9.0438 22.580
9.0590 22.484
9.0742 22.434
9.0894 22.519
9.1045 22.636
9.1197 22.708
9.1349 22.925
9.1501 22.772
9.1652 22.640
9.1804 22.148
9.1956 22.596
9.2108 22.789
9.2259 22.882
9.2411 23.368
9.2563 23.255
9.2715 23.314
9.2866 23.145
9.3018 23.551
9.3170 23.399
9.3322 22.709
9.3473 22.814
9.3625 22.912
9.3777 23.003
9.3929 22.999
9.4080 23.140
9.4232 22.811
9.4384 22.762
9.4536 23.085
9.4687 22.626
9.4839 22.846
9.4991 23.079
9.5143 23.050
9.5294 23.057
9.5446 23.273
9.5598 23.595
9.5750 23.292
9.5901 23.303
9.6053 23.675
9.6205 23.671
9.6357 23.642
9.6508 23.773
9.6660 23.516
9.6812 23.564
9.6964 24.019
9.7115 24.219
9.7267 24.149
9.7419 24.112
9.7571 23.951
9.7722 23.739
9.7874 23.599
9.8026 23.740
9.8178 23.895
9.8329 23.427
9.8481 23.167
9.8633 22.895
9.8785 23.237
9.8936 23.414
9.9088 23.120
9.9240 23.354
9.9392 23.522
9.9543 23.387
9.9695 23.198
9.9847 23.411
9.9999 23.377
10.0150 23.184
10.0302 23.431
10.0454 23.319
10.0606 22.963
10.0757 22.970
10.0909 23.386
10.1061 23.437
10.1213 23.606
10.1364 23.654
10.1516 23.300
10.1668 23.297
10.1820 23.481
10.1971 23.135
10.2123 23.073
10.2275 23.003
10.2427 23.014
10.2578 23.402
10.2730 23.354
10.2882 22.901
10.3034 22.797
10.3185 22.906
10.3337 22.853
10.3489 23.120
10.3641 22.875
10.3792 22.679
10.3944 22.899
10.4096 23.071
10.4248 22.970
10.4399 22.578
10.4551 22.620
10.4703 22.781
10.4855 22.847
10.5006 22.997
10.5158 23.050
10.5310 23.069
10.5462 22.506
10.5613 22.223
10.5765 22.268
10.5917 22.107
10.6069 22.420
10.6220 22.765
10.6372 22.429
10.6524 22.233
10.6676 22.537
10.6827 22.737
10.6979 22.594
10.7131 22.830
10.7283 22.721
10.7434 22.276
10.7586 22.400
10.7738 22.236
10.7890 22.237
10.8041 22.110
10.8193 22.103
10.8345 22.213
10.8497 22.372
10.8648 22.189
10.8800 22.244
10.8952 22.159
10.9104 22.268
10.9255 22.325
10.9407 22.248
10.9559 21.957
10.9711 21.514
10.9862 21.891
11.0014 22.200
11.0166 22.353
11.0318 22.396
11.0469 22.218
11.0621 21.918
11.0773 21.652
11.0925 21.692
11.1076 21.890
11.1228 21.791
11.1380 21.731
11.1532 21.521
11.1683 21.572
11.1835 21.453
11.1987 21.847
11.2139 21.765
11.2290 21.565
11.2442 21.610
11.2594 21.547
11.2746 21.677
11.2897 21.677
11.3049 21.567
11.3201 21.384
11.3353 21.372
11.3504 21.503
11.3656 21.362
11.3808 21.154
11.3960 21.282
11.4111 21.345
11.4263 21.347
11.4415 21.321
11.4567 21.158
11.4718 21.371
11.4870 21.323
11.5022 21.196
11.5174 21.322
11.5325 20.840
11.5477 20.974
11.5629 21.311
11.5781 21.247
11.5932 20.992
11.6084 21.062
11.6236 20.915
11.6388 21.184
11.6539 20.941
11.6691 20.367
11.6843 20.617
11.6995 20.519
11.7146 20.313
11.7298 20.434
11.7450 20.516
11.7602 20.323
11.7753 20.223
11.7905 20.057
11.8057 20.279
11.8209 20.192
11.8360 20.024
11.8512 20.064
11.8664 20.009
11.8816 20.086
11.8967 20.256
11.9119 19.969
11.9271 19.501
11.9423 19.525
11.9574 19.018
11.9726 19.387
11.9878 19.212
12.0030 19.413
12.0181 19.511
12.0333 19.158
12.0485 19.282
12.0637 19.301
12.0788 19.070
12.0940 18.897
12.1092 18.735
12.1244 18.529
12.1395 18.599
12.1547 18.663
12.1699 18.452
12.1851 18.230
12.2002 18.433
12.2154 18.183
12.2306 18.089
12.2458 18.100
12.2609 18.027
12.2761 17.932
12.2913 17.804
12.3065 17.647
12.3216 17.612
12.3368 17.647
12.3520 17.533
12.3672 17.466
12.3823 17.321
12.3975 17.188
12.4127 17.234
12.4279 16.975
12.4430 17.031
12.4582 17.011
12.4734 16.677
12.4886 16.889
12.5037 17.063
12.5189 16.715
12.5341 16.498
12.5493 16.632
12.5644 16.307
12.5796 16.042
12.5948 16.104
12.6100 16.296
12.6251 16.453
12.6403 16.010
12.6555 15.879
12.6707 15.654
12.6858 15.696
12.7010 15.651
12.7162 15.309
12.7314 15.476
12.7465 15.563
12.7617 15.232
12.7769 15.272
12.7921 15.426
12.8072 15.258
12.8224 15.220
12.8376 15.081
12.8528 14.876
12.8679 14.795
12.8831 14.867
12.8983 14.939
12.9135 14.970
12.9286 14.899
12.9438 14.720
12.9590 14.495
12.9742 14.510
12.9893 14.629
13.0045 14.252
13.0197 14.148
13.0349 14.098
13.0500 13.981
13.0652 14.216
13.0804 14.213
13.0956 14.021
13.1107 13.917
13.1259 13.866
13.1411 13.851
13.1563 13.758
13.1714 13.641
13.1866 13.670
13.2018 13.756
13.2170 13.655
13.2321 13.201
13.2473 13.003
13.2625 13.202
13.2777 13.307
13.2928 13.168
13.3080 13.097
13.3232 13.084
13.3384 12.984
13.3535 13.075
13.3687 13.122
13.3839 13.078
13.3991 12.921
13.4142 12.845
13.4294 12.805
13.4446 12.808
13.4598 12.742
13.4749 12.749
13.4901 12.553
13.5053 12.268
13.5205 12.359
13.5356 12.610
13.5508 12.504
13.5660 12.357
13.5812 12.559
13.5963 12.390
13.6115 12.136
13.6267 12.159
13.6419 11.967
13.6570 12.110
13.6722 12.338
13.6874 12.302
13.7026 12.148
13.7177 12.119
13.7329 12.474
13.7481 12.145
13.7633 12.124
13.7784 12.185
13.7936 12.284
13.8088 12.573
13.8239 12.352
13.8391 12.029
13.8543 12.242
13.8695 12.423
13.8846 12.183
13.8998 12.049
13.9150 12.101
13.9302 12.290
13.9453 12.161
13.9605 12.188
13.9757 11.926
13.9909 11.641
14.0060 11.708
14.0212 11.782
14.0364 11.755
14.0516 11.528
14.0667 11.581
14.0819 11.536
14.0971 11.627
14.1123 11.391
14.1274 11.539
14.1426 11.442
14.1578 11.732
14.1730 11.799
14.1881 12.009
14.2033 11.720
14.2185 11.957
14.2337 11.912
14.2488 11.976
14.2640 11.998
14.2792 12.023
14.2944 12.153
14.3095 12.165
14.3247 12.294
14.3399 12.287
14.3551 12.258
14.3702 12.742
14.3854 13.096
14.4006 13.538
14.4158 13.567
14.4309 13.019
14.4461 12.823
14.4613 12.727
14.4765 12.402
14.4916 12.304
14.5068 11.934
14.5220 11.843
14.5372 11.741
14.5523 11.361
14.5675 11.165
14.5827 11.007
14.5979 11.166
14.6130 11.141
14.6282 11.008
14.6434 10.925
14.6586 10.802
14.6737 10.936
14.6889 10.783
14.7041 10.986
14.7193 10.752
14.7344 10.607
14.7496 10.704
14.7648 10.530
14.7800 10.583
14.7951 10.577
14.8103 10.815
14.8255 10.596
14.8407 10.438
14.8558 10.320
14.8710 10.077
14.8862 10.544
14.9014 10.286
14.9165 10.758
14.9317 10.527
14.9469 10.378
14.9621 10.612
14.9772 10.188
14.9924 10.291
15.0076 10.369
15.0228 10.542
15.0379 10.222
15.0531 10.222
15.0683 10.367
15.0835 10.343
15.0986 10.182
15.1138 10.394
15.1290 10.384
15.1442 10.116
15.1593 10.065
15.1745 10.314
15.1897 10.293
15.2049 10.104
15.2200 10.241
15.2352 10.173
15.2504 9.929
15.2656 10.324
15.2807 9.894
15.2959 10.087
15.3111 10.177
15.3263 10.224
15.3414 10.344
15.3566 10.179
15.3718 10.152
15.3870 10.274
15.4021 10.620
15.4173 10.410
15.4325 10.345
15.4477 10.103
15.4628 10.218
15.4780 9.991
15.4932 9.910
15.5084 9.554
15.5235 10.285
15.5387 10.267
15.5539 10.117
15.5691 9.922
15.5842 9.868
15.5994 9.963
15.6146 9.767
15.6298 9.381
15.6449 9.683
15.6601 9.685
15.6753 9.619
15.6905 9.674
15.7056 9.345
15.7208 9.657
15.7360 9.700
15.7512 9.825
15.7663 9.510
15.7815 9.646
15.7967 9.698
15.8119 10.002
15.8270 10.115
15.8422 9.854
15.8574 9.861
15.8726 9.903
15.8877 9.913
15.9029 9.600
15.9181 9.828
15.9333 9.955
15.9484 9.791
15.9636 9.798
15.9788 9.620
15.9940 9.474
16.0091 9.627
16.0243 9.743
16.0395 9.802
16.0547 9.850
16.0698 9.786
16.0850 9.638
16.1002 9.436
16.1154 9.293
16.1305 9.244
16.1457 9.532
16.1609 9.762
16.1761 9.899
16.1912 9.838
16.2064 9.649
16.2216 9.781
16.2368 9.837
16.2519 9.812
16.2671 9.900
16.2823 9.955
16.2975 10.125
16.3126 9.819
16.3278 9.782
16.3430 9.723
16.3582 9.806
16.3733 9.942
16.3885 9.814
16.4037 10.015
16.4189 9.840
16.4340 9.632
16.4492 9.709
16.4644 9.738
16.4796 9.891
16.4947 9.690
16.5099 9.778
16.5251 9.820
16.5403 9.764
16.5554 9.649
16.5706 9.869
16.5858 10.027
16.6010 9.988
16.6161 9.884
16.6313 9.819
16.6465 9.602
16.6617 9.454
16.6768 9.681
16.6920 9.731
16.7072 9.904
16.7224 9.956
16.7375 9.818
16.7527 9.980
16.7679 9.888
16.7831 9.778
16.7982 9.978
16.8134 10.005
16.8286 9.812
16.8438 9.984
16.8589 9.778
16.8741 9.795
16.8893 10.085
16.9045 9.877
16.9196 9.538
16.9348 9.735
16.9500 9.787
16.9652 9.574
16.9803 9.650
16.9955 9.782
17.0107 9.930
17.0259 9.966
17.0410 9.960
17.0562 10.156
17.0714 10.193
17.0866 10.135
17.1017 10.430
17.1169 10.849
17.1321 11.005
17.1473 11.325
17.1624 11.776
17.1776 12.369
17.1928 13.225
17.2080 14.150
17.2231 15.214
17.2383 16.605
17.2535 17.843
17.2687 18.547
17.2838 18.711
17.2990 17.854
17.3142 16.855
17.3294 16.186
17.3445 16.065
17.3597 16.311
17.3749 15.906
17.3901 15.059
17.4052 13.904
17.4204 13.218
17.4356 12.936
17.4508 12.440
17.4659 12.043
17.4811 11.755
17.4963 11.618
17.5115 11.380
17.5266 11.096
17.5418 10.918
17.5570 11.033
17.5722 11.043
17.5873 10.938
17.6025 11.037
17.6177 10.948
17.6329 11.084
17.6480 11.112
17.6632 11.140
17.6784 11.470
17.6936 11.579
17.7087 11.509
17.7239 11.316
17.7391 11.094
17.7543 11.186
17.7694 11.206
17.7846 10.978
17.7998 10.781
17.8150 10.557
17.8301 10.417
17.8453 10.352
17.8605 10.303
17.8757 10.448
17.8908 10.513
17.9060 10.410
17.9212 10.187
17.9364 9.948
17.9515 10.080
17.9667 10.295
17.9819 10.211
17.9971 9.940
18.0122 10.279
18.0274 10.325
18.0426 10.173
18.0578 10.425
18.0729 10.361
18.0881 10.137
18.1033 10.210
18.1185 10.263
18.1336 9.966
18.1488 9.942
18.1640 10.016
18.1792 10.036
18.1943 9.995
18.2095 9.929
18.2247 9.910
18.2399 9.679
18.2550 9.799
18.2702 9.964
18.2854 9.634
18.3006 9.803
18.3157 9.848
18.3309 9.844
18.3461 10.009
18.3613 9.775
18.3764 9.635
18.3916 9.750
18.4068 9.733
18.4220 9.593
18.4371 9.580
18.4523 9.859
18.4675 9.921
18.4827 9.715
18.4978 9.731
18.5130 9.748
18.5282 9.669
18.5434 9.730
18.5585 9.824
18.5737 9.736
18.5889 9.738
18.6041 9.708
18.6192 9.488
18.6344 9.771
18.6496 9.978
18.6648 9.687
18.6799 9.714
18.6951 9.974
18.7103 9.772
18.7255 9.660
18.7406 9.818
18.7558 9.732
18.7710 9.832
18.7862 9.601
18.8013 9.523
18.8165 9.684
18.8317 9.820
18.8469 9.998
18.8620 10.047
18.8772 9.955
18.8924 10.012
18.9076 10.004
18.9227 9.899
18.9379 10.247
18.9531 10.357
18.9683 10.074
18.9834 9.991
18.9986 10.204
19.0138 10.364
19.0290 10.410
19.0441 10.224
19.0593 10.136
19.0745 10.219
19.0897 10.119
19.1048 10.131
19.1200 10.292
19.1352 10.252
19.1504 10.449
19.1655 10.698
19.1807 10.493
19.1959 10.628
19.2111 10.781
19.2262 10.662
19.2414 10.825
19.2566 10.877
19.2718 10.607
19.2869 10.687
19.3021 10.916
19.3173 10.810
19.3325 10.803
19.3476 10.971
19.3628 11.123
19.3780 11.093
19.3932 10.999
19.4083 10.847
19.4235 10.863
19.4387 11.185
19.4539 11.211
19.4690 11.292
19.4842 11.379
19.4994 11.401
19.5146 11.535
19.5297 11.338
19.5449 11.261
19.5601 11.471
19.5753 11.497
19.5904 11.400
19.6056 11.469
19.6208 11.545
19.6360 11.600
19.6511 11.392
19.6663 11.263
19.6815 11.382
19.6967 11.514
19.7118 11.653
19.7270 11.801
19.7422 11.857
19.7574 12.050
19.7725 12.237
19.7877 11.998
19.8029 11.957
19.8180 12.275
19.8332 12.427
19.8484 12.342
19.8636 12.375
19.8787 12.392
19.8939 12.621
19.9091 12.945
19.9243 13.383
19.9394 13.821
19.9546 14.126
19.9698 14.320
19.9850 14.297
20.0001 14.342
20.0153 14.337
20.0305 14.073
20.0457 13.913
20.0608 13.788
20.0760 13.798
20.0912 13.703
20.1064 13.716
20.1215 13.502
20.1367 13.179
20.1519 13.014
20.1671 12.907
20.1822 12.875
20.1974 12.717
20.2126 12.467
20.2278 12.777
20.2429 12.419
20.2581 12.172
20.2733 12.222
20.2885 11.955
20.3036 11.956
20.3188 12.062
20.3340 12.085
20.3492 12.100
20.3643 12.033
20.3795 12.034
20.3947 11.748
20.4099 11.774
20.4250 12.110
20.4402 12.255
20.4554 12.080
20.4706 11.943
20.4857 12.042
20.5009 11.902
20.5161 11.820
20.5313 11.615
20.5464 11.607
20.5616 11.581
20.5768 11.527
20.5920 11.017
20.6071 10.987
20.6223 10.965
20.6375 10.916
20.6527 10.726
20.6678 10.468
20.6830 10.636
20.6982 10.391
20.7134 10.317
20.7285 10.441
20.7437 10.536
20.7589 10.449
20.7741 10.275
20.7892 10.207
20.8044 10.250
20.8196 10.409
20.8348 10.262
20.8499 10.207
20.8651 10.486
20.8803 10.245
20.8955 10.172
20.9106 10.131
20.9258 10.375
20.9410 10.380
20.9562 10.423
20.9713 10.178
20.9865 9.769
21.0017 10.346
21.0169 10.214
21.0320 10.086
21.0472 10.493
21.0624 10.095
21.0776 9.773
21.0927 9.726
21.1079 9.919
21.1231 9.800
21.1383 9.837
21.1534 10.139
21.1686 9.963
21.1838 9.965
21.1990 9.815
21.2141 9.604
21.2293 9.922
21.2445 9.756
21.2597 9.927
21.2748 9.887
21.2900 9.685
21.3052 9.618
21.3204 9.527
21.3355 9.330
21.3507 9.158
21.3659 9.452
21.3811 9.590
21.3962 9.506
21.4114 9.619
21.4266 9.415
21.4418 9.600
21.4569 9.369
21.4721 9.294
21.4873 9.344
21.5025 9.452
21.5176 9.388
21.5328 9.496
21.5480 9.404
21.5632 9.231
21.5783 9.001
21.5935 9.261
21.6087 9.196
21.6239 9.077
21.6390 9.436
21.6542 9.375
21.6694 9.326
21.6846 9.005
21.6997 8.945
21.7149 8.984
21.7301 9.077
21.7453 9.199
21.7604 9.297
21.7756 9.171
21.7908 9.010
21.8060 9.027
21.8211 9.020
21.8363 9.115
21.8515 9.166
21.8667 9.156
21.8818 8.996
21.8970 8.846
21.9122 8.851
21.9274 9.040
21.9425 9.177
21.9577 9.096
21.9729 8.958
21.9881 8.658
22.0032 8.951
22.0184 9.031
22.0336 8.682
22.0488 8.569
22.0639 8.865
22.0791 8.757
22.0943 8.460
22.1095 8.386
22.1246 8.586
22.1398 8.799
22.1550 8.670
22.1702 8.792
22.1853 8.864
22.2005 8.893
22.2157 8.805
22.2309 8.792
22.2460 8.721
22.2612 8.595
22.2764 8.532
22.2916 8.568
22.3067 8.532
22.3219 8.695
22.3371 8.530
22.3523 8.475
22.3674 8.274
22.3826 8.795
22.3978 8.479
22.4130 8.176
22.4281 8.401
22.4433 8.528
22.4585 8.478
22.4737 8.490
22.4888 8.728
22.5040 8.497
22.5192 8.725
22.5344 8.361
22.5495 8.569
22.5647 8.328
22.5799 8.219
22.5951 8.263
22.6102 8.505
22.6254 8.369
22.6406 8.495
22.6558 8.402
22.6709 8.295
22.6861 8.255
22.7013 8.147
22.7165 7.814
22.7316 6.294
