'Id: "" Comment: "" Operator: "Lab Manager" Anode: "Mo" Scantype: "Still (Eiger2R_500K (1D mode))" TimePerStep: "300" X: "11.8" Y: "9.4" Z: "11.284" 
7.2532 19.231
7.2684 18.883
7.2836 18.909
7.2987 18.891
7.3139 19.202
7.3291 19.443
7.3443 19.228
7.3594 19.035
7.3746 19.037
7.3898 19.301
7.4050 19.658
7.4201 19.940
7.4353 19.699
7.4505 19.073
7.4657 19.514
7.4808 19.807
7.4960 19.545
7.5112 19.875
7.5264 20.021
7.5415 19.699
7.5567 19.469
7.5719 19.566
7.5871 20.008
7.6022 20.127
7.6174 20.036
7.6326 20.139
7.6478 20.221
7.6629 20.320
7.6781 20.497
7.6933 20.522
7.7085 20.642
7.7236 20.566
7.7388 20.596
7.7540 20.449
7.7692 20.422
7.7843 20.867
7.7995 20.916
7.8147 20.777
7.8299 20.754
7.8450 21.038
7.8602 21.163
7.8754 20.928
7.8905 20.902
7.9057 21.109
7.9209 21.110
7.9361 21.162
7.9512 21.006
7.9664 21.146
7.9816 21.348
7.9968 21.285
8.0119 21.385
8.0271 21.397
8.0423 21.123
8.0575 20.541
8.0726 20.729
8.0878 20.699
8.1030 20.824
8.1182 21.254
8.1333 21.452
8.1485 21.739
8.1637 21.779
8.1789 21.717
8.1940 21.753
8.2092 21.211
8.2244 21.280
8.2396 21.194
8.2547 21.443
8.2699 21.650
8.2851 21.966
8.3003 21.698
8.3154 21.896
8.3306 22.240
8.3458 21.839
8.3610 22.251
8.3761 21.945
8.3913 21.787
8.4065 21.589
8.4217 22.202
8.4368 22.072
8.4520 22.052
8.4672 22.187
8.4824 21.721
8.4975 21.894
8.5127 22.181
8.5279 22.396
8.5431 22.472
8.5582 21.867
8.5734 22.347
8.5886 22.141
8.6038 22.453
8.6189 22.788
8.6341 22.121
8.6493 22.150
8.6645 22.463
8.6796 23.071
8.6948 22.178
8.7100 22.457
8.7252 22.808
8.7403 22.743
8.7555 23.115
8.7707 22.751
8.7859 22.142
8.8010 22.862
8.8162 22.441
8.8314 22.086
8.8466 22.526
8.8617 22.212
8.8769 22.875
8.8921 22.906
8.9073 22.097
8.9224 22.705
8.9376 22.560
8.9528 22.539
8.9680 22.961
8.9831 22.875
8.9983 22.609
9.0135 22.410
9.0287 22.923
9.0438 22.934
9.0590 22.659
9.0742 23.004
9.0894 22.572
9.1045 22.857
9.1197 22.863
9.1349 22.728
9.1501 22.699
9.1652 22.859
9.1804 22.734
9.1956 23.067
9.2108 22.973
9.2259 23.148
9.2411 23.230
9.2563 23.474
9.2715 23.101
9.2866 23.046
9.3018 23.246
9.3170 23.044
9.3322 23.339
9.3473 23.427
9.3625 23.286
9.3777 23.007
9.3929 23.085
9.4080 22.988
9.4232 23.252
9.4384 23.588
9.4536 23.384
9.4687 23.180
9.4839 23.052
9.4991 23.029
9.5143 22.967
9.5294 23.205
9.5446 23.472
9.5598 23.591
9.5750 23.147
9.5901 22.940
9.6053 22.967
9.6205 23.189
9.6357 23.694
9.6508 23.764
9.6660 23.437
9.6812 23.580
9.6964 24.110
9.7115 24.012
9.7267 23.941
9.7419 24.183
9.7571 24.159
9.7722 23.855
9.7874 24.017
9.8026 24.005
9.8178 23.699
9.8329 23.827
9.8481 23.863
9.8633 23.696
9.8785 23.538
9.8936 23.495
9.9088 23.785
9.9240 23.806
9.9392 23.588
9.9543 23.697
9.9695 23.897
9.9847 23.894
9.9999 24.002
10.0150 23.940
10.0302 23.856
10.0454 23.825
10.0606 23.768
10.0757 23.672
10.0909 23.759
10.1061 23.914
10.1213 23.883
10.1364 23.877
10.1516 23.996
10.1668 24.120
10.1820 24.170
10.1971 24.461
10.2123 24.509
10.2275 24.415
10.2427 24.312
10.2578 24.014
10.2730 23.910
10.2882 23.828
10.3034 23.675
10.3185 23.674
10.3337 23.493
10.3489 23.260
10.3641 22.963
10.3792 22.900
10.3944 22.980
10.4096 22.706
10.4248 22.687
10.4399 22.946
10.4551 22.880
10.4703 22.903
10.4855 22.828
10.5006 22.758
10.5158 22.726
10.5310 22.743
10.5462 22.872
10.5613 22.785
10.5765 22.685
10.5917 22.832
10.6069 23.106
10.6220 22.509
10.6372 22.284
10.6524 22.169
10.6676 22.512
10.6827 22.812
10.6979 22.508
10.7131 22.634
10.7283 22.403
10.7434 22.338
10.7586 22.819
10.7738 22.575
10.7890 23.010
10.8041 22.778
10.8193 22.705
10.8345 22.707
10.8497 22.516
10.8648 22.529
10.8800 22.663
10.8952 22.515
10.9104 21.984
10.9255 21.923
10.9407 22.174
10.9559 22.419
10.9711 22.506
10.9862 22.047
11.0014 21.950
11.0166 22.357
11.0318 22.292
11.0469 22.226
11.0621 22.022
11.0773 21.883
11.0925 21.666
11.1076 21.691
11.1228 21.974
11.1380 22.089
11.1532 21.953
11.1683 21.894
11.1835 21.762
11.1987 21.898
11.2139 22.115
11.2290 21.953
11.2442 21.953
11.2594 22.009
11.2746 21.824
11.2897 21.774
11.3049 21.775
11.3201 21.981
11.3353 21.649
11.3504 21.234
11.3656 21.339
11.3808 21.436
11.3960 21.272
11.4111 21.615
11.4263 21.616
11.4415 21.260
11.4567 21.117
11.4718 21.426
11.4870 20.937
11.5022 20.774
11.5174 20.759
11.5325 20.874
11.5477 21.124
11.5629 21.074
11.5781 21.195
11.5932 20.819
11.6084 20.779
11.6236 20.759
11.6388 20.737
11.6539 20.713
11.6691 20.805
11.6843 20.930
11.6995 20.691
11.7146 20.229
11.7298 20.082
11.7450 19.774
11.7602 20.154
11.7753 20.465
11.7905 20.094
11.8057 20.318
11.8209 20.309
11.8360 20.236
11.8512 20.055
11.8664 20.085
11.8816 20.018
11.8967 19.822
11.9119 19.483
11.9271 19.563
11.9423 19.728
11.9574 19.620
11.9726 19.179
11.9878 18.913
12.0030 18.842
12.0181 19.381
12.0333 19.126
12.0485 18.780
12.0637 18.732
12.0788 18.486
12.0940 18.833
12.1092 18.791
12.1244 18.618
12.1395 18.486
12.1547 18.728
12.1699 18.662
12.1851 18.545
12.2002 18.511
12.2154 18.375
12.2306 17.820
12.2458 17.742
12.2609 17.774
12.2761 17.785
12.2913 17.673
12.3065 17.625
12.3216 17.854
12.3368 17.625
12.3520 17.539
12.3672 17.519
12.3823 17.473
12.3975 17.594
12.4127 17.490
12.4279 17.509
12.4430 17.610
12.4582 17.228
12.4734 17.256
12.4886 17.254
12.5037 16.664
12.5189 16.542
12.5341 16.545
12.5493 16.741
12.5644 16.624
12.5796 16.517
12.5948 16.143
12.6100 15.900
12.6251 15.808
12.6403 15.994
12.6555 15.972
12.6707 15.685
12.6858 15.659
12.7010 15.749
12.7162 15.824
12.7314 15.614
12.7465 15.443
12.7617 15.460
12.7769 15.352
12.7921 15.439
12.8072 15.248
12.8224 14.926
12.8376 14.907
12.8528 14.932
12.8679 14.885
12.8831 14.858
12.8983 14.761
12.9135 14.667
12.9286 14.364
12.9438 14.168
12.9590 14.336
12.9742 14.375
12.9893 14.467
13.0045 14.434
13.0197 14.240
13.0349 14.082
13.0500 14.020
13.0652 14.134
13.0804 14.005
13.0956 13.678
13.1107 13.699
13.1259 13.685
13.1411 13.587
13.1563 13.745
13.1714 13.707
13.1866 13.399
13.2018 13.451
13.2170 13.805
13.2321 13.515
13.2473 13.080
13.2625 13.092
13.2777 13.122
13.2928 13.311
13.3080 13.379
13.3232 13.119
13.3384 13.016
13.3535 13.183
13.3687 13.097
13.3839 12.754
13.3991 12.804
13.4142 13.050
13.4294 13.138
13.4446 13.013
13.4598 12.750
13.4749 12.472
13.4901 12.358
13.5053 12.459
13.5205 12.418
13.5356 12.353
13.5508 12.460
13.5660 12.350
13.5812 12.448
13.5963 12.410
13.6115 12.406
13.6267 12.450
13.6419 12.215
13.6570 12.104
13.6722 12.164
13.6874 12.061
13.7026 11.776
13.7177 11.846
13.7329 12.065
13.7481 11.981
13.7633 11.818
13.7784 11.791
13.7936 12.054
13.8088 12.118
13.8239 12.131
13.8391 12.390
13.8543 12.183
13.8695 12.216
13.8846 12.185
13.8998 12.100
13.9150 11.900
13.9302 11.733
13.9453 11.898
13.9605 11.622
13.9757 11.759
13.9909 11.697
14.0060 11.574
14.0212 11.676
14.0364 11.647
14.0516 11.456
14.0667 11.525
14.0819 11.387
14.0971 11.317
14.1123 11.676
14.1274 11.506
14.1426 11.511
14.1578 11.352
14.1730 11.412
14.1881 11.542
14.2033 11.819
14.2185 11.908
14.2337 12.031
14.2488 11.921
14.2640 12.003
14.2792 12.202
14.2944 11.943
14.3095 11.867
14.3247 12.296
14.3399 12.494
14.3551 12.739
14.3702 12.826
14.3854 12.880
14.4006 12.994
14.4158 13.385
14.4309 13.517
14.4461 13.299
14.4613 13.041
14.4765 12.960
14.4916 12.952
14.5068 12.796
14.5220 12.614
14.5372 12.982
14.5523 12.904
14.5675 12.523
14.5827 12.472
14.5979 12.369
14.6130 12.487
14.6282 12.024
14.6434 12.106
14.6586 12.024
14.6737 11.742
14.6889 11.517
14.7041 11.199
14.7193 11.345
14.7344 11.457
14.7496 11.055
14.7648 10.878
14.7800 11.089
14.7951 11.005
14.8103 10.718
14.8255 10.971
14.8407 10.761
14.8558 10.977
14.8710 11.202
14.8862 10.671
14.9014 10.676
14.9165 10.937
14.9317 10.796
14.9469 10.833
14.9621 10.367
14.9772 10.117
14.9924 10.113
15.0076 10.755
15.0228 10.551
15.0379 10.557
15.0531 10.500
15.0683 10.225
15.0835 10.311
15.0986 10.492
15.1138 10.460
15.1290 10.500
15.1442 10.440
15.1593 10.616
15.1745 10.733
15.1897 10.394
15.2049 10.265
15.2200 10.354
15.2352 10.606
15.2504 10.469
15.2656 10.675
15.2807 10.493
15.2959 10.273
15.3111 10.213
15.3263 10.318
15.3414 10.127
15.3566 10.512
15.3718 10.600
15.3870 10.404
15.4021 10.642
15.4173 10.391
15.4325 10.697
15.4477 10.760
15.4628 10.401
15.4780 10.431
15.4932 10.272
15.5084 10.603
15.5235 10.323
15.5387 10.458
15.5539 10.357
15.5691 9.980
15.5842 10.333
15.5994 10.297
15.6146 10.105
15.6298 10.081
15.6449 10.041
15.6601 9.971
15.6753 9.815
15.6905 9.863
15.7056 9.935
15.7208 9.788
15.7360 9.732
15.7512 10.069
15.7663 10.146
15.7815 9.887
15.7967 10.121
15.8119 9.909
15.8270 10.053
15.8422 10.075
15.8574 10.125
15.8726 9.742
15.8877 9.755
15.9029 9.754
15.9181 9.955
15.9333 10.249
15.9484 9.883
15.9636 9.822
15.9788 9.919
15.9940 9.670
16.0091 9.647
16.0243 9.808
16.0395 9.832
16.0547 9.884
16.0698 9.690
16.0850 9.651
16.1002 9.664
16.1154 9.733
16.1305 9.599
16.1457 9.683
16.1609 9.646
16.1761 9.432
16.1912 9.651
16.2064 9.796
16.2216 9.873
16.2368 10.093
16.2519 9.855
16.2671 9.913
16.2823 10.088
16.2975 10.129
16.3126 10.394
16.3278 10.062
16.3430 9.885
16.3582 9.980
16.3733 10.133
16.3885 10.212
16.4037 10.463
16.4189 10.201
16.4340 9.859
16.4492 10.023
16.4644 10.138
16.4796 10.087
16.4947 10.072
16.5099 10.068
16.5251 9.845
16.5403 9.800
16.5554 9.794
16.5706 9.924
16.5858 10.020
16.6010 9.935
16.6161 9.760
16.6313 9.788
16.6465 9.978
16.6617 9.842
16.6768 9.699
16.6920 10.046
16.7072 10.462
16.7224 10.165
16.7375 9.879
16.7527 9.817
16.7679 9.835
16.7831 9.786
16.7982 9.923
16.8134 10.062
16.8286 10.105
16.8438 10.114
16.8589 10.237
16.8741 10.058
16.8893 9.911
16.9045 9.694
16.9196 9.798
16.9348 9.820
16.9500 9.703
16.9652 9.847
16.9803 9.880
16.9955 9.868
17.0107 9.807
17.0259 9.781
17.0410 9.885
17.0562 9.940
17.0714 10.358
17.0866 10.433
17.1017 10.308
17.1169 10.699
17.1321 10.914
17.1473 11.229
17.1624 11.636
17.1776 11.952
17.1928 12.845
17.2080 13.696
17.2231 14.649
17.2383 16.046
17.2535 17.386
17.2687 18.244
17.2838 18.246
17.2990 17.703
17.3142 16.797
17.3294 16.060
17.3445 15.930
17.3597 16.155
17.3749 16.140
17.3901 15.402
17.4052 14.364
17.4204 13.356
17.4356 12.493
17.4508 12.062
17.4659 11.862
17.4811 11.668
17.4963 11.515
17.5115 11.221
17.5266 11.092
17.5418 11.136
17.5570 11.156
17.5722 11.354
17.5873 11.439
17.6025 11.448
17.6177 11.335
17.6329 10.932
17.6480 10.703
17.6632 10.838
17.6784 11.000
17.6936 10.960
17.7087 10.813
17.7239 10.777
17.7391 10.828
17.7543 10.895
17.7694 11.023
17.7846 11.250
17.7998 11.214
17.8150 11.252
17.8301 11.515
17.8453 11.458
17.8605 11.486
17.8757 11.509
17.8908 11.462
17.9060 11.368
17.9212 11.321
17.9364 11.287
17.9515 11.192
17.9667 11.184
17.9819 11.039
17.9971 10.828
18.0122 10.580
18.0274 10.428
18.0426 10.486
18.0578 10.715
18.0729 10.457
18.0881 10.345
18.1033 10.316
18.1185 10.081
18.1336 9.876
18.1488 9.781
18.1640 9.994
18.1792 9.799
18.1943 9.627
18.2095 9.981
18.2247 10.030
18.2399 9.949
18.2550 10.135
18.2702 9.966
18.2854 9.974
18.3006 9.860
18.3157 9.906
18.3309 9.854
18.3461 9.847
18.3613 9.842
18.3764 9.815
18.3916 9.890
18.4068 9.921
18.4220 9.869
18.4371 9.764
18.4523 9.828
18.4675 9.832
18.4827 9.874
18.4978 9.820
18.5130 9.800
18.5282 9.785
18.5434 9.872
18.5585 9.952
18.5737 10.034
18.5889 9.839
18.6041 9.732
18.6192 9.598
18.6344 9.605
18.6496 9.846
18.6648 9.785
18.6799 9.699
18.6951 9.732
18.7103 9.904
18.7255 9.726
18.7406 9.682
18.7558 9.677
18.7710 9.617
18.7862 9.795
18.8013 9.694
18.8165 9.578
18.8317 9.742
18.8469 9.981
18.8620 9.826
18.8772 9.718
18.8924 9.738
18.9076 9.867
18.9227 9.961
18.9379 10.011
18.9531 9.973
18.9683 10.084
18.9834 10.215
18.9986 10.062
19.0138 9.995
19.0290 10.143
19.0441 10.399
19.0593 10.244
19.0745 10.454
19.0897 10.432
19.1048 10.154
19.1200 10.304
19.1352 10.360
19.1504 10.349
19.1655 10.451
19.1807 10.378
19.1959 10.581
19.2111 10.690
19.2262 10.609
19.2414 10.651
19.2566 10.796
19.2718 10.744
19.2869 10.856
19.3021 10.986
19.3173 11.078
19.3325 11.145
19.3476 11.073
19.3628 11.106
19.3780 11.065
19.3932 11.009
19.4083 11.006
19.4235 11.017
19.4387 11.155
19.4539 11.137
19.4690 11.239
19.4842 11.372
19.4994 11.405
19.5146 11.452
19.5297 11.555
19.5449 11.701
19.5601 11.649
19.5753 11.688
19.5904 11.703
19.6056 11.603
19.6208 11.639
19.6360 11.686
19.6511 11.760
19.6663 11.737
19.6815 11.564
19.6967 11.630
19.7118 11.680
19.7270 11.566
19.7422 11.668
19.7574 11.700
19.7725 11.811
19.7877 11.874
19.8029 11.858
19.8180 11.794
19.8332 11.880
19.8484 12.097
19.8636 12.318
19.8787 12.467
19.8939 12.576
19.9091 12.893
19.9243 13.230
19.9394 13.769
19.9546 14.065
19.9698 14.220
19.9850 14.287
20.0001 14.390
20.0153 14.309
20.0305 13.871
20.0457 13.811
20.0608 13.723
20.0760 13.698
20.0912 13.784
20.1064 13.716
20.1215 13.584
20.1367 13.462
20.1519 13.191
20.1671 12.774
20.1822 12.678
20.1974 13.073
20.2126 12.793
20.2278 12.813
20.2429 12.715
20.2581 12.374
20.2733 12.241
20.2885 12.108
20.3036 12.014
20.3188 11.725
20.3340 11.605
20.3492 11.756
20.3643 11.505
20.3795 11.310
20.3947 11.379
20.4099 11.247
20.4250 11.087
20.4402 11.000
20.4554 11.062
20.4706 11.175
20.4857 11.015
20.5009 10.793
20.5161 10.729
20.5313 11.009
20.5464 10.920
20.5616 10.740
20.5768 10.847
20.5920 10.552
20.6071 10.919
20.6223 10.797
20.6375 10.720
20.6527 10.679
20.6678 10.989
20.6830 10.984
20.6982 10.808
20.7134 10.632
20.7285 10.777
20.7437 10.655
20.7589 10.720
20.7741 10.609
20.7892 10.597
20.8044 10.702
20.8196 10.926
20.8348 10.463
20.8499 10.791
20.8651 10.550
20.8803 10.710
20.8955 10.314
20.9106 10.078
20.9258 10.406
20.9410 10.317
20.9562 10.331
20.9713 10.354
20.9865 10.272
21.0017 10.221
21.0169 10.257
21.0320 10.488
21.0472 10.417
21.0624 10.188
21.0776 10.025
21.0927 9.962
21.1079 9.874
21.1231 9.958
21.1383 10.084
21.1534 9.489
21.1686 9.884
21.1838 9.940
21.1990 9.664
21.2141 9.539
21.2293 9.577
21.2445 9.562
21.2597 9.733
21.2748 9.488
21.2900 9.641
21.3052 9.675
21.3204 9.544
21.3355 9.622
21.3507 9.319
21.3659 9.899
21.3811 9.607
21.3962 9.887
21.4114 9.385
21.4266 9.334
21.4418 9.409
21.4569 9.572
21.4721 9.672
21.4873 9.383
21.5025 9.488
21.5176 9.498
21.5328 9.276
21.5480 9.387
21.5632 9.311
21.5783 9.590
21.5935 9.174
21.6087 9.359
21.6239 9.358
21.6390 9.037
21.6542 9.064
21.6694 9.348
21.6846 9.010
21.6997 8.847
21.7149 8.865
21.7301 8.933
21.7453 9.065
21.7604 9.109
21.7756 9.070
21.7908 9.129
21.8060 9.056
21.8211 9.160
21.8363 9.014
21.8515 8.831
21.8667 9.121
21.8818 9.064
21.8970 8.875
21.9122 8.710
21.9274 8.820
21.9425 9.024
21.9577 9.089
21.9729 8.838
21.9881 8.729
22.0032 8.823
22.0184 8.973
22.0336 8.929
22.0488 8.746
22.0639 8.820
22.0791 8.862
22.0943 8.894
22.1095 9.010
22.1246 8.843
22.1398 8.451
22.1550 8.627
22.1702 8.600
22.1853 8.695
22.2005 8.822
22.2157 8.597
22.2309 8.599
22.2460 8.627
22.2612 8.560
22.2764 8.532
22.2916 8.755
22.3067 8.611
22.3219 8.584
22.3371 8.493
22.3523 8.577
22.3674 8.605
22.3826 8.362
22.3978 8.680
22.4130 8.657
22.4281 8.313
22.4433 8.347
22.4585 8.650
22.4737 8.534
22.4888 8.495
22.5040 8.058
22.5192 8.428
22.5344 8.378
22.5495 8.275
22.5647 8.461
22.5799 8.353
22.5951 8.457
22.6102 8.524
22.6254 8.456
22.6406 8.324
22.6558 8.484
22.6709 8.373
22.6861 8.371
22.7013 8.395
22.7165 8.024
22.7316 6.523
