'Id: "" Comment: "" Operator: "Lab Manager" Anode: "Mo" Scantype: "Still (Eiger2R_500K (1D mode))" TimePerStep: "300" X: "11.8" Y: "9.4" Z: "11.284" 
7.2532 18.814
7.2684 18.448
7.2836 18.915
7.2987 19.126
7.3139 18.783
7.3291 18.834
7.3443 19.058
7.3594 18.938
7.3746 19.044
7.3898 19.367
7.4050 19.603
7.4201 19.903
7.4353 19.420
7.4505 19.007
7.4657 19.432
7.4808 19.884
7.4960 19.400
7.5112 19.485
7.5264 19.724
7.5415 19.565
7.5567 19.353
7.5719 19.932
7.5871 19.812
7.6022 19.607
7.6174 19.677
7.6326 19.781
7.6478 19.819
7.6629 20.083
7.6781 20.243
7.6933 20.078
7.7085 20.002
7.7236 20.383
7.7388 20.087
7.7540 20.011
7.7692 20.101
7.7843 20.127
7.7995 20.437
7.8147 20.614
7.8299 20.406
7.8450 20.268
7.8602 20.557
7.8754 20.808
7.8905 20.960
7.9057 20.837
7.9209 20.510
7.9361 20.657
7.9512 20.959
7.9664 20.808
7.9816 20.746
7.9968 20.887
8.0119 21.102
8.0271 21.225
8.0423 21.114
8.0575 20.722
8.0726 20.859
8.0878 21.316
8.1030 21.481
8.1182 21.157
8.1333 20.989
8.1485 21.099
8.1637 21.080
8.1789 21.159
8.1940 21.686
8.2092 21.483
8.2244 21.262
8.2396 21.591
8.2547 21.451
8.2699 21.370
8.2851 21.443
8.3003 21.543
8.3154 21.568
8.3306 21.807
8.3458 21.695
8.3610 22.082
8.3761 21.475
8.3913 21.590
8.4065 21.753
8.4217 22.123
8.4368 21.975
8.4520 21.963
8.4672 21.797
8.4824 21.965
8.4975 21.863
8.5127 22.056
8.5279 21.532
8.5431 22.329
8.5582 22.444
8.5734 21.599
8.5886 21.981
8.6038 21.999
8.6189 21.841
8.6341 21.812
8.6493 21.523
8.6645 22.123
8.6796 22.291
8.6948 22.147
8.7100 22.267
8.7252 22.101
8.7403 22.086
8.7555 22.007
8.7707 22.091
8.7859 22.576
8.8010 22.788
8.8162 22.513
8.8314 22.617
8.8466 22.650
8.8617 22.385
8.8769 22.586
8.8921 22.637
8.9073 21.982
8.9224 22.281
8.9376 21.985
8.9528 22.358
8.9680 22.670
8.9831 22.035
8.9983 22.326
9.0135 22.497
9.0287 22.826
9.0438 22.455
9.0590 22.916
9.0742 22.571
9.0894 22.824
9.1045 23.043
9.1197 22.628
9.1349 22.470
9.1501 22.487
9.1652 22.950
9.1804 22.671
9.1956 22.586
9.2108 22.901
9.2259 22.990
9.2411 22.777
9.2563 22.992
9.2715 22.719
9.2866 22.735
9.3018 22.849
9.3170 22.700
9.3322 22.678
9.3473 22.896
9.3625 23.175
9.3777 23.036
9.3929 22.821
9.4080 22.766
9.4232 23.012
9.4384 23.067
9.4536 22.945
9.4687 23.152
9.4839 22.993
9.4991 22.874
9.5143 23.371
9.5294 23.666
9.5446 23.331
9.5598 23.234
9.5750 23.107
9.5901 22.872
9.6053 22.834
9.6205 22.917
9.6357 23.308
9.6508 23.329
9.6660 23.489
9.6812 23.530
9.6964 23.589
9.7115 23.892
9.7267 23.728
9.7419 23.707
9.7571 23.865
9.7722 23.813
9.7874 23.733
9.8026 23.572
9.8178 23.638
9.8329 23.710
9.8481 23.287
9.8633 23.262
9.8785 23.544
9.8936 23.613
9.9088 23.499
9.9240 22.886
9.9392 22.887
9.9543 23.207
9.9695 23.100
9.9847 23.250
9.9999 23.259
10.0150 23.197
10.0302 23.434
10.0454 23.377
10.0606 22.962
10.0757 23.013
10.0909 23.177
10.1061 23.034
10.1213 23.059
10.1364 23.101
10.1516 23.157
10.1668 23.390
10.1820 23.398
10.1971 23.059
10.2123 23.060
10.2275 22.927
10.2427 22.775
10.2578 22.812
10.2730 22.700
10.2882 22.952
10.3034 23.136
10.3185 22.984
10.3337 22.595
10.3489 22.572
10.3641 22.879
10.3792 22.747
10.3944 22.349
10.4096 22.294
10.4248 22.237
10.4399 22.348
10.4551 22.846
10.4703 22.847
10.4855 22.221
10.5006 22.388
10.5158 22.732
10.5310 22.611
10.5462 22.474
10.5613 22.062
10.5765 22.372
10.5917 22.235
10.6069 22.371
10.6220 22.514
10.6372 22.787
10.6524 22.376
10.6676 22.506
10.6827 22.691
10.6979 22.182
10.7131 22.176
10.7283 22.329
10.7434 22.236
10.7586 22.252
10.7738 22.181
10.7890 22.168
10.8041 22.147
10.8193 22.208
10.8345 22.636
10.8497 22.390
10.8648 22.297
10.8800 22.377
10.8952 22.354
10.9104 22.356
10.9255 21.957
10.9407 21.889
10.9559 21.816
10.9711 22.134
10.9862 22.333
11.0014 22.137
11.0166 22.028
11.0318 21.854
11.0469 21.719
11.0621 21.592
11.0773 21.586
11.0925 21.818
11.1076 21.995
11.1228 21.861
11.1380 21.716
11.1532 21.622
11.1683 21.552
11.1835 21.513
11.1987 21.695
11.2139 21.975
11.2290 21.859
11.2442 21.530
11.2594 21.584
11.2746 21.134
11.2897 21.114
11.3049 21.381
11.3201 21.505
11.3353 21.483
11.3504 21.575
11.3656 21.400
11.3808 21.524
11.3960 21.084
11.4111 21.253
11.4263 21.160
11.4415 21.042
11.4567 21.185
11.4718 21.527
11.4870 21.272
11.5022 20.966
11.5174 20.888
11.5325 20.774
11.5477 21.101
11.5629 21.037
11.5781 20.835
11.5932 20.975
11.6084 20.943
11.6236 20.782
11.6388 20.618
11.6539 20.624
11.6691 20.591
11.6843 20.327
11.6995 20.684
11.7146 20.527
11.7298 20.398
11.7450 20.260
11.7602 20.242
11.7753 20.216
11.7905 20.086
11.8057 20.103
11.8209 20.274
11.8360 20.295
11.8512 20.044
11.8664 19.684
11.8816 19.792
11.8967 19.593
11.9119 19.320
11.9271 19.681
11.9423 19.877
11.9574 19.459
11.9726 19.224
11.9878 19.276
12.0030 19.011
12.0181 18.966
12.0333 19.016
12.0485 18.989
12.0637 18.762
12.0788 18.729
12.0940 18.843
12.1092 18.794
12.1244 18.744
12.1395 18.684
12.1547 18.261
12.1699 18.203
12.1851 18.344
12.2002 18.358
12.2154 18.427
12.2306 18.469
12.2458 18.070
12.2609 18.102
12.2761 18.178
12.2913 17.954
12.3065 18.076
12.3216 17.957
12.3368 17.812
12.3520 17.606
12.3672 17.399
12.3823 17.416
12.3975 17.246
12.4127 17.172
12.4279 17.159
12.4430 16.799
12.4582 16.675
12.4734 16.688
12.4886 16.602
12.5037 16.625
12.5189 16.600
12.5341 16.609
12.5493 16.500
12.5644 16.124
12.5796 16.025
12.5948 16.093
12.6100 16.118
12.6251 16.118
12.6403 16.063
12.6555 15.900
12.6707 15.885
12.6858 15.906
12.7010 15.737
12.7162 15.560
12.7314 15.453
12.7465 15.322
12.7617 15.345
12.7769 15.289
12.7921 15.077
12.8072 15.012
12.8224 15.154
12.8376 14.968
12.8528 14.998
12.8679 15.003
12.8831 14.732
12.8983 14.569
12.9135 14.450
12.9286 14.542
12.9438 14.433
12.9590 14.311
12.9742 14.570
12.9893 14.415
13.0045 14.151
13.0197 14.172
13.0349 14.115
13.0500 14.001
13.0652 13.822
13.0804 13.834
13.0956 13.896
13.1107 13.878
13.1259 13.613
13.1411 13.397
13.1563 13.537
13.1714 13.466
13.1866 13.365
13.2018 13.428
13.2170 13.461
13.2321 13.474
13.2473 13.607
13.2625 13.457
13.2777 12.933
13.2928 12.949
13.3080 13.212
13.3232 13.226
13.3384 12.974
13.3535 12.737
13.3687 12.884
13.3839 13.017
13.3991 13.056
13.4142 12.830
13.4294 12.685
13.4446 12.799
13.4598 12.705
13.4749 12.511
13.4901 12.602
13.5053 12.556
13.5205 12.559
13.5356 12.391
13.5508 12.595
13.5660 12.562
13.5812 12.312
13.5963 12.276
13.6115 12.238
13.6267 12.258
13.6419 12.359
13.6570 12.562
13.6722 12.282
13.6874 11.912
13.7026 11.942
13.7177 11.961
13.7329 12.086
13.7481 12.202
13.7633 12.034
13.7784 11.977
13.7936 12.002
13.8088 12.033
13.8239 12.205
13.8391 12.362
13.8543 12.423
13.8695 12.440
13.8846 12.301
13.8998 12.323
13.9150 12.029
13.9302 12.025
13.9453 12.292
13.9605 11.757
13.9757 11.653
13.9909 11.793
14.0060 11.818
14.0212 11.705
14.0364 12.045
14.0516 12.070
14.0667 11.864
14.0819 11.638
14.0971 11.673
14.1123 11.751
14.1274 11.717
14.1426 11.629
14.1578 11.609
14.1730 11.635
14.1881 11.796
14.2033 11.875
14.2185 11.843
14.2337 11.977
14.2488 12.093
14.2640 11.846
14.2792 11.655
14.2944 11.899
14.3095 11.905
14.3247 12.302
14.3399 12.325
14.3551 12.352
14.3702 12.864
14.3854 12.950
14.4006 13.360
14.4158 13.236
14.4309 13.357
14.4461 12.915
14.4613 12.737
14.4765 12.473
14.4916 12.564
14.5068 12.059
14.5220 11.627
14.5372 11.233
14.5523 11.251
14.5675 11.025
14.5827 11.193
14.5979 11.062
14.6130 10.923
14.6282 10.716
14.6434 10.915
14.6586 10.753
14.6737 10.685
14.6889 10.643
14.7041 10.915
14.7193 10.648
14.7344 10.371
14.7496 10.621
14.7648 10.395
14.7800 10.324
14.7951 10.057
14.8103 10.448
14.8255 10.704
14.8407 10.414
14.8558 10.381
14.8710 10.335
14.8862 10.209
14.9014 10.522
14.9165 10.603
14.9317 10.473
14.9469 10.442
14.9621 10.211
14.9772 10.066
14.9924 10.490
15.0076 10.166
15.0228 10.337
15.0379 10.146
15.0531 10.041
15.0683 10.340
15.0835 10.474
15.0986 10.218
15.1138 10.325
15.1290 9.965
15.1442 10.098
15.1593 10.539
15.1745 10.267
15.1897 10.101
15.2049 10.132
15.2200 10.345
15.2352 10.291
15.2504 10.088
15.2656 10.344
15.2807 9.978
15.2959 10.390
15.3111 10.138
15.3263 10.049
15.3414 10.203
15.3566 9.904
15.3718 10.115
15.3870 9.876
15.4021 9.997
15.4173 10.392
15.4325 9.977
15.4477 10.276
15.4628 10.135
15.4780 10.259
15.4932 10.301
15.5084 10.115
15.5235 10.158
15.5387 9.901
15.5539 9.923
15.5691 9.877
15.5842 9.776
15.5994 9.892
15.6146 9.845
15.6298 9.776
15.6449 9.803
15.6601 9.717
15.6753 9.909
15.6905 9.719
15.7056 9.898
15.7208 9.835
15.7360 9.861
15.7512 9.655
15.7663 9.967
15.7815 10.055
15.7967 9.913
15.8119 9.793
15.8270 9.689
15.8422 9.690
15.8574 9.717
15.8726 9.522
15.8877 9.856
15.9029 9.590
15.9181 9.478
15.9333 9.516
15.9484 9.510
15.9636 9.657
15.9788 9.728
15.9940 9.431
16.0091 9.570
16.0243 9.604
16.0395 9.453
16.0547 9.542
16.0698 9.578
16.0850 9.509
16.1002 9.742
16.1154 9.617
16.1305 9.593
16.1457 9.417
16.1609 9.548
16.1761 9.609
16.1912 9.736
16.2064 9.456
16.2216 9.396
16.2368 9.895
16.2519 9.718
16.2671 9.703
16.2823 9.606
16.2975 9.856
16.3126 9.881
16.3278 9.814
16.3430 9.872
16.3582 10.009
16.3733 9.818
16.3885 9.966
16.4037 10.044
16.4189 10.183
16.4340 9.928
16.4492 9.595
16.4644 9.357
16.4796 9.526
16.4947 9.708
16.5099 9.756
16.5251 9.713
16.5403 9.637
16.5554 9.629
16.5706 9.547
16.5858 9.576
16.6010 9.617
16.6161 9.334
16.6313 9.520
16.6465 9.665
16.6617 9.807
16.6768 9.874
16.6920 9.862
16.7072 9.859
16.7224 9.856
16.7375 9.882
16.7527 9.933
16.7679 9.991
16.7831 9.978
16.7982 9.712
16.8134 9.627
16.8286 9.770
16.8438 10.023
16.8589 9.978
16.8741 9.718
16.8893 9.840
16.9045 9.692
16.9196 9.697
16.9348 9.719
16.9500 9.633
16.9652 9.646
16.9803 9.842
16.9955 9.882
17.0107 9.841
17.0259 10.125
17.0410 10.164
17.0562 10.125
17.0714 10.244
17.0866 10.269
17.1017 10.571
17.1169 10.628
17.1321 10.750
17.1473 11.267
17.1624 11.697
17.1776 12.324
17.1928 13.131
17.2080 13.918
17.2231 14.948
17.2383 16.201
17.2535 17.746
17.2687 18.772
17.2838 19.020
17.2990 18.432
17.3142 17.110
17.3294 16.286
17.3445 16.018
17.3597 15.953
17.3749 15.814
17.3901 15.200
17.4052 14.289
17.4204 13.522
17.4356 12.749
17.4508 12.036
17.4659 11.700
17.4811 11.403
17.4963 11.171
17.5115 11.098
17.5266 10.967
17.5418 10.827
17.5570 10.849
17.5722 10.900
17.5873 10.975
17.6025 11.120
17.6177 11.244
17.6329 11.258
17.6480 11.310
17.6632 11.604
17.6784 11.800
17.6936 11.652
17.7087 11.357
17.7239 11.343
17.7391 11.280
17.7543 11.096
17.7694 10.898
17.7846 10.791
17.7998 10.762
17.8150 10.798
17.8301 10.655
17.8453 10.422
17.8605 10.356
17.8757 10.534
17.8908 10.419
17.9060 10.258
17.9212 10.214
17.9364 10.213
17.9515 10.351
17.9667 10.267
17.9819 10.269
17.9971 10.264
18.0122 10.156
18.0274 10.094
18.0426 10.023
18.0578 10.094
18.0729 10.086
18.0881 9.987
18.1033 10.049
18.1185 10.073
18.1336 9.795
18.1488 9.683
18.1640 9.748
18.1792 9.763
18.1943 9.861
18.2095 10.095
18.2247 9.827
18.2399 9.768
18.2550 9.952
18.2702 9.961
18.2854 9.863
18.3006 9.940
18.3157 10.044
18.3309 10.196
18.3461 10.083
18.3613 9.683
18.3764 9.843
18.3916 9.865
18.4068 9.690
18.4220 9.829
18.4371 9.795
18.4523 9.638
18.4675 9.493
18.4827 9.604
18.4978 9.693
18.5130 9.666
18.5282 9.617
18.5434 9.600
18.5585 9.643
18.5737 9.618
18.5889 9.734
18.6041 9.678
18.6192 9.711
18.6344 9.729
18.6496 9.654
18.6648 9.787
18.6799 9.580
18.6951 9.793
18.7103 9.864
18.7255 9.797
18.7406 9.805
18.7558 9.923
18.7710 9.947
18.7862 9.833
18.8013 9.795
18.8165 9.731
18.8317 9.819
18.8469 9.917
18.8620 9.873
18.8772 9.795
18.8924 10.022
18.9076 9.781
18.9227 9.607
18.9379 9.790
18.9531 9.959
18.9683 9.979
18.9834 9.980
18.9986 9.852
19.0138 9.844
19.0290 10.061
19.0441 10.214
19.0593 10.236
19.0745 10.197
19.0897 10.240
19.1048 10.374
19.1200 10.507
19.1352 10.541
19.1504 10.543
19.1655 10.674
19.1807 10.487
19.1959 10.336
19.2111 10.415
19.2262 10.625
19.2414 10.859
19.2566 10.664
19.2718 10.463
19.2869 10.549
19.3021 10.927
19.3173 11.012
19.3325 10.893
19.3476 10.779
19.3628 11.102
19.3780 11.210
19.3932 11.110
19.4083 11.134
19.4235 11.240
19.4387 11.299
19.4539 11.419
19.4690 11.285
19.4842 11.326
19.4994 11.558
19.5146 11.593
19.5297 11.592
19.5449 11.541
19.5601 11.561
19.5753 11.783
19.5904 11.720
19.6056 11.678
19.6208 11.820
19.6360 11.901
19.6511 11.684
19.6663 11.586
19.6815 11.668
19.6967 11.591
19.7118 11.683
19.7270 11.814
19.7422 11.819
19.7574 11.637
19.7725 11.569
19.7877 11.815
19.8029 11.950
19.8180 11.875
19.8332 12.137
19.8484 12.191
19.8636 12.284
19.8787 12.647
19.8939 12.952
19.9091 13.236
19.9243 13.476
19.9394 13.746
19.9546 14.239
19.9698 14.675
19.9850 14.654
20.0001 14.515
20.0153 14.335
20.0305 14.021
20.0457 13.927
20.0608 13.748
20.0760 13.340
20.0912 13.517
20.1064 13.705
20.1215 13.546
20.1367 13.499
20.1519 13.375
20.1671 12.938
20.1822 12.965
20.1974 12.856
20.2126 12.917
20.2278 12.851
20.2429 12.777
20.2581 12.220
20.2733 12.023
20.2885 12.074
20.3036 11.853
20.3188 12.113
20.3340 12.175
20.3492 12.113
20.3643 11.971
20.3795 12.057
20.3947 11.849
20.4099 11.766
20.4250 11.735
20.4402 11.970
20.4554 12.048
20.4706 11.801
20.4857 11.641
20.5009 11.695
20.5161 11.678
20.5313 11.480
20.5464 11.385
20.5616 11.454
20.5768 11.080
20.5920 10.942
20.6071 11.085
20.6223 11.002
20.6375 10.807
20.6527 10.875
20.6678 10.689
20.6830 10.514
20.6982 10.835
20.7134 10.695
20.7285 10.359
20.7437 10.603
20.7589 10.294
20.7741 10.351
20.7892 10.495
20.8044 10.178
20.8196 10.233
20.8348 10.226
20.8499 10.182
20.8651 10.110
20.8803 9.887
20.8955 10.056
20.9106 10.120
20.9258 10.223
20.9410 10.052
20.9562 10.178
20.9713 10.116
20.9865 10.111
21.0017 9.753
21.0169 10.073
21.0320 10.196
21.0472 10.057
21.0624 9.872
21.0776 10.248
21.0927 9.801
21.1079 9.763
21.1231 9.647
21.1383 9.938
21.1534 9.633
21.1686 9.559
21.1838 9.925
21.1990 9.475
21.2141 9.702
21.2293 9.583
21.2445 9.597
21.2597 9.801
21.2748 9.923
21.2900 9.573
21.3052 9.986
21.3204 9.544
21.3355 9.507
21.3507 9.293
21.3659 9.390
21.3811 9.997
21.3962 9.363
21.4114 9.335
21.4266 9.297
21.4418 9.336
21.4569 9.456
21.4721 9.591
21.4873 9.383
21.5025 9.351
21.5176 9.462
21.5328 9.323
21.5480 9.003
21.5632 9.068
21.5783 9.220
21.5935 8.981
21.6087 9.344
21.6239 9.265
21.6390 9.227
21.6542 9.173
21.6694 9.112
21.6846 9.005
21.6997 9.308
21.7149 9.237
21.7301 9.012
21.7453 9.093
21.7604 8.876
21.7756 8.916
21.7908 9.069
21.8060 9.116
21.8211 8.976
21.8363 9.105
21.8515 8.988
21.8667 9.017
21.8818 9.079
21.8970 9.092
21.9122 9.138
21.9274 9.145
21.9425 8.939
21.9577 8.946
21.9729 8.981
21.9881 8.976
22.0032 8.950
22.0184 8.827
22.0336 8.858
22.0488 8.884
22.0639 8.762
22.0791 9.021
22.0943 9.054
22.1095 8.789
22.1246 8.562
22.1398 8.458
22.1550 8.451
22.1702 8.625
22.1853 8.703
22.2005 8.648
22.2157 8.545
22.2309 8.567
22.2460 8.527
22.2612 8.499
22.2764 8.609
22.2916 8.908
22.3067 8.710
22.3219 8.784
22.3371 8.607
22.3523 8.533
22.3674 8.484
22.3826 8.303
22.3978 8.655
22.4130 8.638
22.4281 8.469
22.4433 8.458
22.4585 8.093
22.4737 8.292
22.4888 8.126
22.5040 8.460
22.5192 8.214
22.5344 8.264
22.5495 8.624
22.5647 8.121
22.5799 8.400
22.5951 8.521
22.6102 8.243
22.6254 8.438
22.6406 8.409
22.6558 8.203
22.6709 8.212
22.6861 8.356
22.7013 8.321
22.7165 7.857
22.7316 6.425
