'Id: "" Comment: "" Operator: "Lab Manager" Anode: "Mo" Scantype: "Still (Eiger2R_500K (1D mode))" TimePerStep: "300" X: "11.8" Y: "9.4" Z: "11.284" 
7.2532 18.700
7.2684 18.882
7.2836 18.639
7.2987 19.010
7.3139 18.790
7.3291 18.728
7.3443 18.737
7.3594 19.171
7.3746 18.306
7.3898 19.007
7.4050 19.417
7.4201 19.871
7.4353 19.465
7.4505 19.460
7.4657 19.263
7.4808 19.454
7.4960 19.737
7.5112 19.915
7.5264 19.914
7.5415 19.732
7.5567 20.163
7.5719 20.137
7.5871 20.069
7.6022 19.956
7.6174 20.055
7.6326 20.169
7.6478 20.183
7.6629 20.010
7.6781 20.358
7.6933 20.027
7.7085 20.189
7.7236 20.683
7.7388 20.228
7.7540 20.302
7.7692 20.509
7.7843 20.600
7.7995 20.734
7.8147 20.719
7.8299 20.578
7.8450 20.948
7.8602 21.104
7.8754 21.067
7.8905 21.170
7.9057 21.183
7.9209 21.153
7.9361 20.977
7.9512 20.931
7.9664 20.865
7.9816 20.942
7.9968 21.106
8.0119 20.984
8.0271 21.132
8.0423 21.792
8.0575 21.110
8.0726 20.912
8.0878 21.447
8.1030 21.148
8.1182 21.391
8.1333 21.608
8.1485 21.797
8.1637 21.872
8.1789 21.610
8.1940 21.378
8.2092 21.737
8.2244 21.818
8.2396 21.626
8.2547 21.671
8.2699 21.570
8.2851 21.780
8.3003 22.127
8.3154 21.935
8.3306 21.951
8.3458 21.932
8.3610 21.857
8.3761 21.931
8.3913 22.008
8.4065 21.707
8.4217 21.924
8.4368 22.072
8.4520 21.816
8.4672 22.288
8.4824 22.031
8.4975 22.129
8.5127 22.231
8.5279 22.133
8.5431 22.157
8.5582 22.078
8.5734 22.823
8.5886 22.362
8.6038 21.915
8.6189 22.507
8.6341 22.358
8.6493 22.391
8.6645 22.608
8.6796 22.951
8.6948 22.267
8.7100 22.423
8.7252 22.327
8.7403 22.765
8.7555 23.110
8.7707 22.740
8.7859 22.371
8.8010 22.833
8.8162 22.527
8.8314 22.477
8.8466 22.612
8.8617 22.459
8.8769 22.537
8.8921 22.791
8.9073 22.439
8.9224 22.567
8.9376 22.811
8.9528 22.699
8.9680 22.777
8.9831 22.775
8.9983 22.755
9.0135 22.766
9.0287 22.998
9.0438 22.590
9.0590 23.072
9.0742 23.132
9.0894 23.161
9.1045 22.933
9.1197 23.049
9.1349 23.520
9.1501 23.257
9.1652 22.735
9.1804 23.109
9.1956 22.854
9.2108 23.093
9.2259 22.959
9.2411 23.035
9.2563 23.447
9.2715 23.394
9.2866 22.972
9.3018 22.992
9.3170 23.142
9.3322 22.960
9.3473 22.904
9.3625 22.940
9.3777 23.185
9.3929 23.107
9.4080 23.007
9.4232 22.818
9.4384 22.960
9.4536 23.553
9.4687 23.469
9.4839 23.075
9.4991 23.213
9.5143 23.177
9.5294 23.215
9.5446 23.264
9.5598 23.392
9.5750 23.408
9.5901 23.560
9.6053 23.513
9.6205 23.444
9.6357 23.602
9.6508 23.448
9.6660 23.469
9.6812 24.014
9.6964 23.946
9.7115 23.948
9.7267 24.288
9.7419 24.214
9.7571 23.845
9.7722 23.904
9.7874 23.691
9.8026 23.618
9.8178 23.935
9.8329 23.970
9.8481 23.730
9.8633 23.580
9.8785 23.799
9.8936 23.508
9.9088 23.265
9.9240 23.338
9.9392 23.253
9.9543 23.220
9.9695 23.350
9.9847 23.681
9.9999 23.667
10.0150 23.443
10.0302 23.396
10.0454 23.404
10.0606 23.419
10.0757 23.546
10.0909 23.422
10.1061 23.513
10.1213 23.826
10.1364 23.680
10.1516 23.656
10.1668 23.643
10.1820 23.340
10.1971 23.582
10.2123 23.663
10.2275 24.006
10.2427 24.190
10.2578 24.200
10.2730 23.920
10.2882 23.609
10.3034 23.385
10.3185 23.280
10.3337 23.224
10.3489 23.152
10.3641 23.083
10.3792 22.916
10.3944 22.858
10.4096 22.817
10.4248 22.933
10.4399 22.801
10.4551 22.501
10.4703 22.607
10.4855 22.892
10.5006 22.712
10.5158 22.606
10.5310 22.773
10.5462 22.874
10.5613 22.668
10.5765 22.737
10.5917 22.949
10.6069 22.698
10.6220 22.997
10.6372 23.083
10.6524 22.684
10.6676 22.412
10.6827 22.512
10.6979 22.273
10.7131 22.516
10.7283 22.521
10.7434 22.659
10.7586 22.783
10.7738 22.472
10.7890 22.337
10.8041 22.707
10.8193 22.664
10.8345 22.563
10.8497 22.566
10.8648 22.442
10.8800 22.355
10.8952 22.300
10.9104 22.325
10.9255 22.163
10.9407 22.162
10.9559 21.812
10.9711 22.008
10.9862 22.292
11.0014 22.170
11.0166 22.655
11.0318 22.549
11.0469 22.010
11.0621 22.200
11.0773 21.957
11.0925 21.821
11.1076 22.029
11.1228 21.748
11.1380 21.895
11.1532 22.061
11.1683 22.221
11.1835 22.127
11.1987 22.243
11.2139 22.129
11.2290 21.827
11.2442 21.966
11.2594 22.070
11.2746 21.907
11.2897 22.137
11.3049 22.211
11.3201 22.175
11.3353 21.982
11.3504 21.978
11.3656 22.151
11.3808 21.799
11.3960 20.958
11.4111 21.338
11.4263 21.586
11.4415 21.214
11.4567 21.574
11.4718 21.279
11.4870 21.208
11.5022 21.310
11.5174 21.016
11.5325 20.991
11.5477 21.087
11.5629 20.980
11.5781 21.148
11.5932 20.847
11.6084 20.917
11.6236 21.177
11.6388 20.765
11.6539 20.700
11.6691 20.259
11.6843 20.563
11.6995 20.525
11.7146 20.467
11.7298 20.558
11.7450 20.313
11.7602 20.119
11.7753 20.159
11.7905 20.211
11.8057 20.171
11.8209 20.012
11.8360 20.148
11.8512 20.075
11.8664 19.819
11.8816 19.483
11.8967 19.567
11.9119 19.616
11.9271 20.038
11.9423 19.797
11.9574 19.446
11.9726 19.109
11.9878 19.363
12.0030 19.650
12.0181 19.469
12.0333 19.086
12.0485 19.122
12.0637 19.170
12.0788 19.086
12.0940 18.707
12.1092 19.162
12.1244 18.627
12.1395 18.513
12.1547 18.750
12.1699 18.528
12.1851 18.296
12.2002 18.307
12.2154 18.263
12.2306 18.103
12.2458 17.858
12.2609 17.910
12.2761 17.767
12.2913 18.050
12.3065 18.010
12.3216 17.927
12.3368 17.726
12.3520 17.285
12.3672 17.456
12.3823 17.181
12.3975 17.077
12.4127 17.435
12.4279 17.400
12.4430 17.271
12.4582 17.288
12.4734 17.257
12.4886 17.223
12.5037 17.233
12.5189 16.967
12.5341 16.885
12.5493 16.947
12.5644 16.775
12.5796 16.468
12.5948 16.354
12.6100 16.118
12.6251 16.019
12.6403 16.267
12.6555 16.162
12.6707 15.800
12.6858 15.684
12.7010 15.781
12.7162 15.570
12.7314 15.530
12.7465 15.451
12.7617 15.408
12.7769 15.374
12.7921 15.218
12.8072 15.174
12.8224 15.172
12.8376 15.208
12.8528 15.148
12.8679 14.988
12.8831 14.994
12.8983 14.831
12.9135 14.596
12.9286 14.491
12.9438 14.379
12.9590 14.475
12.9742 14.755
12.9893 14.709
13.0045 14.515
13.0197 14.324
13.0349 14.267
13.0500 14.396
13.0652 14.149
13.0804 13.850
13.0956 14.077
13.1107 14.153
13.1259 14.013
13.1411 14.052
13.1563 13.814
13.1714 13.725
13.1866 13.568
13.2018 13.637
13.2170 13.909
13.2321 13.513
13.2473 13.597
13.2625 13.874
13.2777 13.408
13.2928 13.192
13.3080 13.302
13.3232 13.225
13.3384 13.090
13.3535 13.005
13.3687 13.129
13.3839 13.109
13.3991 13.144
13.4142 12.946
13.4294 12.775
13.4446 12.759
13.4598 12.627
13.4749 12.699
13.4901 12.904
13.5053 12.839
13.5205 12.713
13.5356 12.714
13.5508 12.610
13.5660 12.283
13.5812 12.217
13.5963 12.199
13.6115 12.155
13.6267 12.071
13.6419 12.249
13.6570 12.135
13.6722 11.938
13.6874 12.066
13.7026 12.221
13.7177 12.122
13.7329 11.916
13.7481 11.920
13.7633 11.910
13.7784 11.847
13.7936 12.017
13.8088 12.256
13.8239 12.258
13.8391 12.233
13.8543 12.287
13.8695 12.376
13.8846 12.297
13.8998 12.189
13.9150 12.099
13.9302 12.210
13.9453 12.048
13.9605 11.857
13.9757 11.675
13.9909 11.868
14.0060 11.691
14.0212 11.584
14.0364 11.587
14.0516 11.626
14.0667 11.593
14.0819 11.733
14.0971 11.539
14.1123 11.485
14.1274 11.775
14.1426 11.492
14.1578 11.797
14.1730 11.764
14.1881 11.739
14.2033 12.073
14.2185 11.859
14.2337 11.822
14.2488 12.296
14.2640 11.988
14.2792 12.229
14.2944 12.242
14.3095 12.280
14.3247 12.211
14.3399 12.395
14.3551 12.700
14.3702 12.631
14.3854 12.825
14.4006 12.967
14.4158 13.103
14.4309 12.587
14.4461 12.212
14.4613 12.615
14.4765 12.496
14.4916 12.164
14.5068 11.992
14.5220 11.766
14.5372 11.516
14.5523 11.708
14.5675 11.430
14.5827 11.257
14.5979 11.217
14.6130 10.938
14.6282 10.962
14.6434 11.495
14.6586 11.087
14.6737 11.237
14.6889 10.979
14.7041 10.716
14.7193 10.927
14.7344 11.022
14.7496 11.010
14.7648 10.964
14.7800 11.032
14.7951 10.795
14.8103 10.676
14.8255 10.410
14.8407 10.491
14.8558 10.627
14.8710 10.513
14.8862 10.752
14.9014 10.474
14.9165 11.197
14.9317 11.203
14.9469 10.751
14.9621 10.677
14.9772 10.754
14.9924 10.774
15.0076 10.481
15.0228 10.934
15.0379 10.432
15.0531 10.599
15.0683 10.380
15.0835 10.550
15.0986 10.615
15.1138 10.856
15.1290 10.479
15.1442 10.579
15.1593 10.301
15.1745 10.428
15.1897 10.117
15.2049 10.335
15.2200 10.278
15.2352 10.320
15.2504 10.423
15.2656 10.680
15.2807 10.413
15.2959 10.190
15.3111 10.489
15.3263 10.303
15.3414 10.552
15.3566 10.253
15.3718 10.543
15.3870 10.277
15.4021 10.143
15.4173 10.459
15.4325 10.649
15.4477 10.782
15.4628 10.631
15.4780 10.132
15.4932 10.529
15.5084 10.562
15.5235 10.338
15.5387 10.264
15.5539 10.353
15.5691 10.222
15.5842 10.337
15.5994 9.834
15.6146 10.177
15.6298 10.222
15.6449 9.931
15.6601 10.022
15.6753 10.219
15.6905 10.003
15.7056 10.007
15.7208 9.602
15.7360 10.022
15.7512 9.863
15.7663 10.099
15.7815 9.961
15.7967 10.003
15.8119 9.979
15.8270 10.008
15.8422 9.926
15.8574 9.946
15.8726 10.001
15.8877 9.769
15.9029 9.539
15.9181 9.904
15.9333 10.051
15.9484 10.024
15.9636 9.696
15.9788 9.803
15.9940 9.594
16.0091 9.576
16.0243 9.950
16.0395 9.889
16.0547 9.861
16.0698 9.750
16.0850 9.735
16.1002 9.867
16.1154 9.648
16.1305 9.782
16.1457 9.832
16.1609 10.069
16.1761 9.834
16.1912 9.676
16.2064 9.449
16.2216 9.553
16.2368 9.824
16.2519 10.241
16.2671 9.991
16.2823 10.267
16.2975 9.908
16.3126 9.745
16.3278 9.831
16.3430 10.047
16.3582 10.168
16.3733 10.118
16.3885 9.821
16.4037 10.040
16.4189 9.854
16.4340 9.970
16.4492 9.822
16.4644 9.901
16.4796 9.971
16.4947 9.734
16.5099 9.990
16.5251 9.893
16.5403 9.651
16.5554 9.744
16.5706 9.732
16.5858 9.525
16.6010 9.402
16.6161 9.644
16.6313 9.753
16.6465 9.718
16.6617 9.849
16.6768 9.733
16.6920 9.890
16.7072 9.903
16.7224 9.975
16.7375 10.261
16.7527 10.112
16.7679 10.075
16.7831 10.042
16.7982 9.873
16.8134 10.006
16.8286 10.016
16.8438 9.921
16.8589 10.045
16.8741 9.972
16.8893 10.022
16.9045 9.899
16.9196 9.743
16.9348 9.582
16.9500 9.714
16.9652 9.858
16.9803 9.824
16.9955 9.913
17.0107 10.009
17.0259 10.002
17.0410 9.949
17.0562 9.922
17.0714 10.080
17.0866 10.364
17.1017 10.516
17.1169 10.671
17.1321 10.814
17.1473 11.139
17.1624 11.535
17.1776 12.377
17.1928 13.279
17.2080 13.877
17.2231 14.983
17.2383 16.451
17.2535 17.833
17.2687 18.480
17.2838 18.789
17.2990 18.391
17.3142 17.169
17.3294 16.209
17.3445 15.816
17.3597 15.990
17.3749 15.980
17.3901 15.209
17.4052 14.292
17.4204 13.373
17.4356 12.342
17.4508 11.872
17.4659 11.767
17.4811 11.599
17.4963 11.409
17.5115 11.254
17.5266 11.201
17.5418 11.408
17.5570 11.532
17.5722 11.496
17.5873 11.531
17.6025 11.643
17.6177 11.701
17.6329 11.338
17.6480 11.066
17.6632 11.095
17.6784 11.107
17.6936 10.990
17.7087 10.878
17.7239 10.708
17.7391 10.630
17.7543 10.510
17.7694 10.319
17.7846 10.358
17.7998 10.355
17.8150 10.423
17.8301 10.466
17.8453 10.394
17.8605 10.497
17.8757 10.487
17.8908 10.443
17.9060 10.573
17.9212 10.636
17.9364 10.418
17.9515 10.009
17.9667 10.115
17.9819 10.306
17.9971 10.309
18.0122 10.368
18.0274 10.348
18.0426 10.308
18.0578 10.435
18.0729 10.190
18.0881 10.225
18.1033 10.147
18.1185 10.046
18.1336 10.072
18.1488 10.008
18.1640 9.897
18.1792 9.982
18.1943 10.051
18.2095 9.946
18.2247 9.743
18.2399 9.861
18.2550 10.050
18.2702 9.869
18.2854 9.870
18.3006 9.860
18.3157 9.684
18.3309 9.712
18.3461 9.963
18.3613 10.050
18.3764 9.913
18.3916 9.825
18.4068 9.649
18.4220 9.619
18.4371 9.793
18.4523 9.722
18.4675 9.824
18.4827 9.948
18.4978 9.850
18.5130 9.828
18.5282 9.877
18.5434 9.741
18.5585 9.661
18.5737 9.787
18.5889 9.933
18.6041 9.759
18.6192 9.775
18.6344 9.607
18.6496 9.660
18.6648 9.880
18.6799 9.922
18.6951 9.750
18.7103 9.547
18.7255 9.711
18.7406 9.850
18.7558 9.862
18.7710 9.836
18.7862 9.879
18.8013 9.838
18.8165 9.687
18.8317 9.735
18.8469 9.860
18.8620 10.084
18.8772 9.988
18.8924 10.109
18.9076 10.063
18.9227 9.856
18.9379 10.025
18.9531 9.831
18.9683 9.781
18.9834 10.045
18.9986 10.199
19.0138 10.254
19.0290 10.207
19.0441 9.990
19.0593 10.144
19.0745 10.208
19.0897 10.115
19.1048 10.381
19.1200 10.298
19.1352 10.347
19.1504 10.505
19.1655 10.507
19.1807 10.522
19.1959 10.803
19.2111 10.826
19.2262 10.785
19.2414 10.712
19.2566 10.813
19.2718 10.844
19.2869 10.879
19.3021 10.985
19.3173 10.918
19.3325 11.012
19.3476 11.397
19.3628 11.316
19.3780 11.138
19.3932 11.153
19.4083 11.311
19.4235 11.367
19.4387 11.245
19.4539 11.046
19.4690 10.951
19.4842 11.113
19.4994 11.409
19.5146 11.575
19.5297 11.482
19.5449 11.334
19.5601 11.462
19.5753 11.672
19.5904 11.626
19.6056 11.576
19.6208 11.809
19.6360 11.790
19.6511 11.573
19.6663 11.642
19.6815 11.833
19.6967 11.833
19.7118 11.604
19.7270 11.714
19.7422 11.807
19.7574 11.605
19.7725 11.637
19.7877 11.742
19.8029 11.893
19.8180 11.867
19.8332 11.890
19.8484 12.221
19.8636 12.783
19.8787 12.824
19.8939 12.745
19.9091 13.051
19.9243 13.182
19.9394 13.475
19.9546 13.828
19.9698 14.113
19.9850 14.290
20.0001 14.222
20.0153 14.292
20.0305 13.869
20.0457 13.763
20.0608 14.111
20.0760 14.066
20.0912 13.908
20.1064 13.735
20.1215 13.420
20.1367 13.385
20.1519 13.355
20.1671 13.389
20.1822 13.218
20.1974 12.810
20.2126 12.944
20.2278 12.945
20.2429 12.770
20.2581 12.628
20.2733 12.575
20.2885 12.082
20.3036 11.814
20.3188 11.667
20.3340 11.693
20.3492 11.942
20.3643 11.773
20.3795 11.453
20.3947 11.051
20.4099 11.084
20.4250 11.083
20.4402 11.160
20.4554 10.848
20.4706 10.692
20.4857 10.709
20.5009 10.720
20.5161 10.758
20.5313 10.878
20.5464 10.820
20.5616 11.059
20.5768 11.115
20.5920 10.599
20.6071 10.551
20.6223 10.516
20.6375 10.532
20.6527 10.747
20.6678 10.614
20.6830 10.764
20.6982 10.463
20.7134 10.629
20.7285 10.674
20.7437 10.494
20.7589 10.493
20.7741 10.535
20.7892 10.565
20.8044 10.442
20.8196 10.415
20.8348 10.412
20.8499 10.436
20.8651 10.212
20.8803 10.183
20.8955 10.343
20.9106 10.075
20.9258 10.045
20.9410 9.960
20.9562 9.870
20.9713 10.080
20.9865 9.813
21.0017 9.663
21.0169 10.204
21.0320 10.174
21.0472 9.889
21.0624 9.769
21.0776 9.846
21.0927 9.920
21.1079 9.810
21.1231 10.011
21.1383 9.883
21.1534 10.152
21.1686 9.624
21.1838 9.764
21.1990 10.132
21.2141 9.817
21.2293 9.813
21.2445 9.674
21.2597 9.409
21.2748 9.699
21.2900 9.719
21.3052 9.474
21.3204 9.604
21.3355 9.718
21.3507 9.630
21.3659 9.689
21.3811 9.452
21.3962 9.386
21.4114 9.628
21.4266 9.363
21.4418 9.581
21.4569 9.250
21.4721 9.499
21.4873 9.488
21.5025 9.347
21.5176 9.399
21.5328 9.610
21.5480 9.300
21.5632 9.607
21.5783 9.319
21.5935 9.307
21.6087 9.322
21.6239 9.203
21.6390 9.501
21.6542 9.334
21.6694 9.205
21.6846 9.179
21.6997 9.298
21.7149 9.039
21.7301 8.835
21.7453 9.248
21.7604 9.245
21.7756 9.387
21.7908 9.217
21.8060 9.147
21.8211 9.120
21.8363 9.090
21.8515 9.268
21.8667 9.206
21.8818 9.123
21.8970 8.984
21.9122 8.908
21.9274 8.989
21.9425 9.109
21.9577 9.038
21.9729 8.883
21.9881 8.965
22.0032 8.915
22.0184 9.091
22.0336 9.150
22.0488 8.998
22.0639 8.917
22.0791 8.820
22.0943 8.807
22.1095 8.908
22.1246 8.742
22.1398 8.738
22.1550 8.733
22.1702 8.833
22.1853 8.759
22.2005 8.662
22.2157 8.645
22.2309 8.539
22.2460 8.603
22.2612 8.501
22.2764 8.416
22.2916 8.535
22.3067 8.561
22.3219 8.447
22.3371 8.670
22.3523 8.728
22.3674 8.554
22.3826 8.490
22.3978 8.688
22.4130 8.678
22.4281 8.424
22.4433 8.470
22.4585 8.499
22.4737 8.301
22.4888 8.420
22.5040 8.561
22.5192 8.666
22.5344 8.561
22.5495 8.612
22.5647 8.746
22.5799 8.564
22.5951 8.552
22.6102 8.258
22.6254 8.676
22.6406 8.643
22.6558 8.359
22.6709 8.667
22.6861 8.546
22.7013 8.447
22.7165 8.000
22.7316 6.597
