'Id: "" Comment: "" Operator: "Lab Manager" Anode: "Mo" Scantype: "Still (Eiger2R_500K (1D mode))" TimePerStep: "300" X: "11.8" Y: "9.4" Z: "11.284" 
7.2532 19.076
7.2684 18.940
7.2836 19.358
7.2987 19.060
7.3139 19.033
7.3291 18.911
7.3443 19.135
7.3594 19.355
7.3746 19.402
7.3898 19.356
7.4050 19.524
7.4201 19.915
7.4353 19.123
7.4505 19.602
7.4657 19.533
7.4808 19.469
7.4960 19.441
7.5112 19.420
7.5264 19.609
7.5415 19.898
7.5567 20.081
7.5719 19.868
7.5871 20.057
7.6022 19.926
7.6174 19.993
7.6326 20.107
7.6478 20.046
7.6629 20.514
7.6781 20.483
7.6933 20.628
7.7085 20.859
7.7236 20.876
7.7388 20.403
7.7540 20.515
7.7692 20.623
7.7843 20.197
7.7995 20.174
7.8147 20.475
7.8299 20.629
7.8450 20.769
7.8602 21.013
7.8754 20.868
7.8905 20.852
7.9057 20.796
7.9209 21.134
7.9361 21.315
7.9512 21.413
7.9664 21.168
7.9816 21.202
7.9968 21.403
8.0119 21.123
8.0271 21.292
8.0423 21.405
8.0575 21.552
8.0726 21.205
8.0878 21.215
8.1030 21.449
8.1182 21.246
8.1333 21.245
8.1485 21.549
8.1637 21.523
8.1789 21.523
8.1940 21.666
8.2092 21.753
8.2244 21.785
8.2396 21.674
8.2547 21.844
8.2699 21.648
8.2851 21.592
8.3003 21.665
8.3154 21.682
8.3306 21.751
8.3458 21.760
8.3610 21.922
8.3761 21.971
8.3913 22.018
8.4065 21.711
8.4217 22.106
8.4368 22.264
8.4520 22.044
8.4672 21.872
8.4824 21.762
8.4975 22.327
8.5127 22.199
8.5279 22.785
8.5431 22.878
8.5582 22.244
8.5734 22.182
8.5886 22.112
8.6038 22.880
8.6189 22.271
8.6341 22.434
8.6493 22.354
8.6645 22.353
8.6796 22.853
8.6948 22.675
8.7100 23.275
8.7252 23.042
8.7403 23.130
8.7555 22.841
8.7707 22.620
8.7859 23.066
8.8010 22.533
8.8162 22.866
8.8314 22.895
8.8466 22.447
8.8617 22.588
8.8769 22.724
8.8921 22.624
8.9073 23.077
8.9224 23.063
8.9376 22.784
8.9528 22.859
8.9680 22.503
8.9831 22.558
8.9983 23.014
9.0135 23.172
9.0287 23.137
9.0438 22.744
9.0590 22.881
9.0742 23.133
9.0894 22.931
9.1045 22.780
9.1197 22.946
9.1349 23.051
9.1501 23.129
9.1652 22.703
9.1804 23.121
9.1956 22.998
9.2108 23.170
9.2259 23.127
9.2411 23.004
9.2563 22.939
9.2715 23.197
9.2866 23.185
9.3018 23.178
9.3170 23.269
9.3322 23.096
9.3473 23.256
9.3625 23.353
9.3777 23.459
9.3929 23.262
9.4080 23.060
9.4232 23.078
9.4384 23.315
9.4536 23.250
9.4687 23.419
9.4839 23.372
9.4991 23.045
9.5143 23.425
9.5294 23.803
9.5446 23.562
9.5598 23.695
9.5750 23.456
9.5901 23.016
9.6053 23.456
9.6205 23.714
9.6357 23.587
9.6508 23.641
9.6660 23.815
9.6812 23.642
9.6964 23.697
9.7115 23.818
9.7267 23.904
9.7419 24.243
9.7571 24.469
9.7722 24.164
9.7874 23.458
9.8026 23.693
9.8178 24.188
9.8329 24.082
9.8481 23.702
9.8633 23.576
9.8785 23.716
9.8936 23.497
9.9088 23.541
9.9240 23.731
9.9392 23.516
9.9543 23.134
9.9695 23.170
9.9847 23.557
9.9999 23.651
10.0150 23.521
10.0302 23.798
10.0454 23.750
10.0606 23.286
10.0757 23.302
10.0909 23.676
10.1061 23.905
10.1213 23.506
10.1364 23.305
10.1516 23.466
10.1668 23.705
10.1820 23.718
10.1971 23.777
10.2123 23.810
10.2275 24.213
10.2427 23.861
10.2578 23.925
10.2730 23.855
10.2882 23.502
10.3034 23.629
10.3185 23.625
10.3337 23.499
10.3489 23.123
10.3641 23.171
10.3792 23.376
10.3944 23.326
10.4096 22.894
10.4248 22.665
10.4399 22.502
10.4551 22.921
10.4703 22.889
10.4855 22.491
10.5006 22.684
10.5158 22.814
10.5310 23.111
10.5462 22.777
10.5613 22.721
10.5765 22.665
10.5917 22.502
10.6069 22.737
10.6220 23.098
10.6372 23.044
10.6524 22.604
10.6676 22.594
10.6827 22.573
10.6979 22.255
10.7131 22.633
10.7283 23.026
10.7434 22.914
10.7586 22.332
10.7738 22.110
10.7890 22.172
10.8041 22.302
10.8193 22.353
10.8345 22.233
10.8497 22.133
10.8648 22.287
10.8800 22.459
10.8952 22.362
10.9104 22.346
10.9255 22.500
10.9407 22.512
10.9559 22.448
10.9711 22.648
10.9862 22.379
11.0014 22.197
11.0166 22.229
11.0318 22.151
11.0469 22.152
11.0621 21.947
11.0773 22.046
11.0925 22.329
11.1076 22.230
11.1228 22.421
11.1380 22.087
11.1532 22.051
11.1683 22.184
11.1835 21.992
11.1987 22.123
11.2139 22.134
11.2290 22.010
11.2442 22.298
11.2594 22.402
11.2746 22.013
11.2897 21.825
11.3049 21.914
11.3201 21.929
11.3353 21.676
11.3504 21.317
11.3656 21.577
11.3808 21.304
11.3960 21.117
11.4111 21.138
11.4263 21.365
11.4415 21.603
11.4567 21.275
11.4718 21.120
11.4870 21.218
11.5022 21.288
11.5174 21.503
11.5325 21.343
11.5477 20.952
11.5629 20.924
11.5781 20.801
11.5932 20.845
11.6084 20.938
11.6236 20.798
11.6388 21.073
11.6539 20.533
11.6691 20.394
11.6843 20.580
11.6995 20.596
11.7146 20.564
11.7298 20.299
11.7450 20.061
11.7602 20.006
11.7753 20.176
11.7905 20.107
11.8057 20.214
11.8209 20.323
11.8360 20.258
11.8512 20.135
11.8664 20.170
11.8816 20.020
11.8967 19.830
11.9119 19.779
11.9271 19.749
11.9423 20.057
11.9574 19.953
11.9726 19.552
11.9878 19.284
12.0030 19.276
12.0181 19.094
12.0333 18.823
12.0485 18.836
12.0637 18.866
12.0788 18.938
12.0940 18.573
12.1092 18.665
12.1244 18.906
12.1395 18.641
12.1547 18.223
12.1699 18.439
12.1851 18.352
12.2002 18.370
12.2154 18.183
12.2306 18.103
12.2458 18.300
12.2609 18.034
12.2761 17.999
12.2913 18.023
12.3065 18.202
12.3216 18.057
12.3368 17.676
12.3520 17.296
12.3672 17.360
12.3823 17.454
12.3975 17.529
12.4127 17.327
12.4279 17.193
12.4430 17.335
12.4582 17.337
12.4734 17.461
12.4886 17.571
12.5037 17.100
12.5189 16.674
12.5341 16.573
12.5493 16.936
12.5644 16.809
12.5796 16.605
12.5948 16.326
12.6100 16.102
12.6251 16.147
12.6403 16.153
12.6555 16.144
12.6707 15.832
12.6858 15.780
12.7010 15.734
12.7162 15.755
12.7314 15.751
12.7465 15.701
12.7617 15.664
12.7769 15.453
12.7921 15.416
12.8072 15.316
12.8224 15.234
12.8376 15.442
12.8528 15.494
12.8679 15.295
12.8831 14.945
12.8983 14.683
12.9135 14.502
12.9286 14.479
12.9438 14.603
12.9590 14.493
12.9742 14.429
12.9893 14.604
13.0045 14.819
13.0197 14.403
13.0349 14.050
13.0500 14.230
13.0652 14.113
13.0804 14.053
13.0956 13.989
13.1107 13.890
13.1259 13.957
13.1411 13.871
13.1563 13.861
13.1714 13.607
13.1866 13.440
13.2018 13.735
13.2170 13.948
13.2321 13.717
13.2473 13.416
13.2625 13.270
13.2777 13.197
13.2928 13.245
13.3080 13.318
13.3232 13.452
13.3384 13.344
13.3535 13.170
13.3687 13.104
13.3839 13.237
13.3991 13.289
13.4142 13.344
13.4294 13.173
13.4446 13.050
13.4598 12.913
13.4749 12.637
13.4901 12.553
13.5053 12.797
13.5205 12.760
13.5356 12.581
13.5508 12.363
13.5660 12.158
13.5812 12.364
13.5963 12.565
13.6115 12.381
13.6267 12.163
13.6419 12.268
13.6570 12.421
13.6722 12.236
13.6874 12.114
13.7026 12.306
13.7177 12.382
13.7329 12.262
13.7481 12.308
13.7633 12.288
13.7784 12.118
13.7936 12.135
13.8088 12.311
13.8239 12.242
13.8391 12.217
13.8543 12.362
13.8695 12.261
13.8846 12.206
13.8998 12.365
13.9150 12.136
13.9302 11.997
13.9453 12.041
13.9605 12.012
13.9757 11.941
13.9909 11.638
14.0060 11.721
14.0212 11.576
14.0364 11.551
14.0516 11.426
14.0667 11.532
14.0819 11.760
14.0971 11.546
14.1123 11.407
14.1274 11.744
14.1426 11.641
14.1578 11.616
14.1730 11.748
14.1881 11.789
14.2033 12.005
14.2185 11.887
14.2337 11.613
14.2488 11.712
14.2640 11.862
14.2792 12.056
14.2944 11.861
14.3095 11.984
14.3247 12.089
14.3399 12.286
14.3551 12.148
14.3702 12.520
14.3854 12.764
14.4006 12.512
14.4158 12.651
14.4309 12.494
14.4461 12.903
14.4613 12.674
14.4765 12.281
14.4916 12.122
14.5068 12.232
14.5220 11.842
14.5372 11.318
14.5523 11.222
14.5675 11.369
14.5827 11.258
14.5979 11.492
14.6130 11.053
14.6282 11.079
14.6434 11.042
14.6586 11.003
14.6737 10.969
14.6889 10.982
14.7041 10.789
14.7193 10.921
14.7344 10.764
14.7496 10.841
14.7648 10.885
14.7800 10.799
14.7951 10.681
14.8103 10.803
14.8255 10.741
14.8407 10.984
14.8558 10.839
14.8710 10.932
14.8862 10.452
14.9014 10.978
14.9165 10.898
14.9317 10.821
14.9469 10.769
14.9621 10.685
14.9772 10.103
14.9924 10.343
15.0076 10.319
15.0228 10.684
15.0379 10.173
15.0531 10.247
15.0683 10.670
15.0835 10.586
15.0986 10.578
15.1138 10.692
15.1290 10.617
15.1442 10.452
15.1593 10.348
15.1745 10.653
15.1897 10.610
15.2049 10.252
15.2200 10.583
15.2352 10.179
15.2504 10.372
15.2656 10.259
15.2807 10.384
15.2959 10.478
15.3111 10.197
15.3263 10.383
15.3414 10.311
15.3566 10.404
15.3718 10.424
15.3870 10.393
15.4021 10.419
15.4173 10.372
15.4325 10.709
15.4477 10.457
15.4628 10.411
15.4780 10.754
15.4932 10.681
15.5084 10.462
15.5235 10.413
15.5387 10.350
15.5539 10.275
15.5691 10.468
15.5842 10.363
15.5994 10.140
15.6146 10.399
15.6298 10.038
15.6449 10.184
15.6601 10.227
15.6753 10.015
15.6905 9.868
15.7056 9.941
15.7208 10.082
15.7360 10.107
15.7512 9.756
15.7663 9.739
15.7815 9.588
15.7967 9.974
15.8119 9.947
15.8270 9.913
15.8422 9.765
15.8574 9.799
15.8726 9.729
15.8877 9.494
15.9029 9.780
15.9181 10.067
15.9333 10.005
15.9484 9.724
15.9636 9.853
15.9788 9.910
15.9940 9.957
16.0091 9.887
16.0243 9.738
16.0395 9.640
16.0547 9.684
16.0698 9.595
16.0850 9.540
16.1002 9.441
16.1154 9.739
16.1305 9.724
16.1457 9.784
16.1609 9.750
16.1761 9.819
16.1912 9.688
16.2064 9.997
16.2216 9.847
16.2368 9.868
16.2519 10.187
16.2671 10.226
16.2823 9.991
16.2975 9.831
16.3126 9.928
16.3278 9.880
16.3430 9.937
16.3582 10.238
16.3733 10.134
16.3885 9.972
16.4037 10.033
16.4189 9.781
16.4340 9.834
16.4492 10.084
16.4644 10.029
16.4796 9.954
16.4947 10.129
16.5099 9.873
16.5251 9.496
16.5403 9.762
16.5554 9.868
16.5706 9.692
16.5858 9.872
16.6010 9.833
16.6161 9.712
16.6313 9.923
16.6465 10.021
16.6617 10.016
16.6768 9.978
16.6920 9.866
16.7072 9.907
16.7224 9.948
16.7375 10.169
16.7527 10.201
16.7679 9.948
16.7831 9.946
16.7982 9.989
16.8134 10.093
16.8286 10.013
16.8438 9.890
16.8589 9.879
16.8741 9.826
16.8893 9.606
16.9045 9.760
16.9196 9.840
16.9348 9.849
16.9500 10.161
16.9652 10.130
16.9803 9.992
16.9955 9.986
17.0107 10.051
17.0259 10.028
17.0410 10.020
17.0562 10.222
17.0714 10.424
17.0866 10.418
17.1017 10.403
17.1169 10.764
17.1321 11.175
17.1473 11.327
17.1624 11.666
17.1776 12.554
17.1928 13.343
17.2080 13.923
17.2231 15.030
17.2383 16.438
17.2535 17.841
17.2687 18.860
17.2838 18.977
17.2990 18.582
17.3142 17.443
17.3294 16.447
17.3445 16.278
17.3597 16.223
17.3749 16.024
17.3901 15.546
17.4052 14.459
17.4204 13.283
17.4356 12.603
17.4508 12.121
17.4659 11.746
17.4811 11.698
17.4963 11.637
17.5115 11.426
17.5266 11.276
17.5418 11.088
17.5570 11.242
17.5722 11.536
17.5873 11.580
17.6025 11.460
17.6177 11.384
17.6329 11.178
17.6480 11.164
17.6632 11.183
17.6784 11.102
17.6936 10.901
17.7087 10.786
17.7239 10.823
17.7391 10.657
17.7543 10.306
17.7694 10.149
17.7846 10.348
17.7998 10.538
17.8150 10.499
17.8301 10.358
17.8453 10.250
17.8605 10.224
17.8757 10.297
17.8908 10.252
17.9060 10.426
17.9212 10.466
17.9364 10.024
17.9515 9.969
17.9667 10.119
17.9819 10.118
17.9971 10.326
18.0122 10.402
18.0274 10.355
18.0426 10.468
18.0578 10.389
18.0729 10.174
18.0881 10.299
18.1033 10.553
18.1185 10.239
18.1336 10.221
18.1488 10.104
18.1640 9.957
18.1792 10.092
18.1943 10.090
18.2095 10.127
18.2247 9.908
18.2399 9.915
18.2550 10.047
18.2702 9.822
18.2854 9.880
18.3006 9.974
18.3157 9.915
18.3309 9.718
18.3461 9.694
18.3613 9.870
18.3764 10.046
18.3916 10.144
18.4068 9.830
18.4220 9.673
18.4371 9.761
18.4523 9.665
18.4675 9.599
18.4827 9.713
18.4978 9.880
18.5130 9.896
18.5282 9.881
18.5434 9.862
18.5585 9.806
18.5737 9.905
18.5889 9.900
18.6041 9.852
18.6192 9.895
18.6344 9.791
18.6496 9.596
18.6648 9.688
18.6799 9.860
18.6951 10.002
18.7103 9.899
18.7255 9.641
18.7406 9.562
18.7558 9.767
18.7710 9.780
18.7862 9.569
18.8013 9.536
18.8165 9.518
18.8317 9.856
18.8469 9.930
18.8620 10.039
18.8772 9.927
18.8924 9.904
18.9076 9.945
18.9227 10.192
18.9379 10.369
18.9531 10.109
18.9683 9.895
18.9834 9.917
18.9986 10.142
19.0138 10.374
19.0290 10.618
19.0441 10.397
19.0593 10.406
19.0745 10.430
19.0897 10.396
19.1048 10.458
19.1200 10.489
19.1352 10.497
19.1504 10.566
19.1655 10.639
19.1807 10.523
19.1959 10.525
19.2111 10.825
19.2262 10.769
19.2414 10.853
19.2566 10.815
19.2718 10.835
19.2869 10.976
19.3021 11.245
19.3173 11.223
19.3325 11.178
19.3476 11.329
19.3628 11.297
19.3780 11.211
19.3932 11.015
19.4083 10.974
19.4235 11.120
19.4387 11.335
19.4539 11.248
19.4690 11.178
19.4842 11.211
19.4994 11.291
19.5146 11.415
19.5297 11.713
19.5449 11.614
19.5601 11.353
19.5753 11.631
19.5904 11.752
19.6056 11.680
19.6208 11.714
19.6360 11.687
19.6511 11.664
19.6663 11.727
19.6815 11.709
19.6967 11.503
19.7118 11.750
19.7270 11.888
19.7422 11.801
19.7574 11.843
19.7725 11.805
19.7877 11.676
19.8029 11.888
19.8180 12.113
19.8332 12.275
19.8484 12.329
19.8636 12.326
19.8787 12.370
19.8939 12.667
19.9091 13.009
19.9243 13.257
19.9394 13.680
19.9546 14.261
19.9698 14.501
19.9850 14.397
20.0001 14.259
20.0153 14.270
20.0305 13.883
20.0457 13.749
20.0608 13.770
20.0760 13.662
20.0912 13.793
20.1064 13.889
20.1215 13.822
20.1367 13.551
20.1519 13.411
20.1671 13.131
20.1822 13.078
20.1974 13.000
20.2126 12.775
20.2278 12.743
20.2429 12.728
20.2581 12.587
20.2733 12.105
20.2885 11.758
20.3036 11.748
20.3188 11.590
20.3340 11.570
20.3492 11.534
20.3643 11.704
20.3795 11.342
20.3947 10.866
20.4099 10.955
20.4250 11.132
20.4402 10.764
20.4554 10.738
20.4706 10.764
20.4857 10.702
20.5009 10.863
20.5161 10.477
20.5313 10.664
20.5464 10.731
20.5616 10.776
20.5768 10.557
20.5920 10.684
20.6071 10.641
20.6223 10.589
20.6375 10.594
20.6527 10.444
20.6678 10.789
20.6830 10.656
20.6982 10.489
20.7134 10.595
20.7285 10.674
20.7437 10.470
20.7589 10.471
20.7741 10.398
20.7892 10.279
20.8044 10.095
20.8196 10.347
20.8348 10.471
20.8499 10.257
20.8651 10.214
20.8803 10.146
20.8955 10.257
20.9106 10.095
20.9258 9.959
20.9410 10.031
20.9562 10.092
20.9713 10.069
20.9865 9.894
21.0017 10.054
21.0169 9.779
21.0320 10.064
21.0472 9.848
21.0624 9.946
21.0776 9.702
21.0927 10.020
21.1079 9.954
21.1231 9.453
21.1383 9.548
21.1534 9.772
21.1686 9.835
21.1838 9.742
21.1990 9.615
21.2141 9.907
21.2293 9.844
21.2445 9.648
21.2597 9.699
21.2748 9.594
21.2900 9.490
21.3052 9.658
21.3204 9.493
21.3355 9.497
21.3507 9.709
21.3659 9.430
21.3811 9.557
21.3962 9.506
21.4114 9.389
21.4266 9.431
21.4418 9.336
21.4569 9.799
21.4721 9.414
21.4873 9.486
21.5025 9.306
21.5176 9.576
21.5328 9.377
21.5480 9.475
21.5632 9.354
21.5783 9.287
21.5935 9.114
21.6087 9.287
21.6239 9.063
21.6390 9.169
21.6542 9.062
21.6694 9.024
21.6846 9.365
21.6997 9.145
21.7149 9.134
21.7301 9.012
21.7453 9.149
21.7604 8.962
21.7756 9.028
21.7908 8.996
21.8060 9.058
21.8211 9.301
21.8363 9.269
21.8515 9.096
21.8667 8.883
21.8818 8.912
21.8970 9.238
21.9122 9.012
21.9274 8.826
21.9425 8.967
21.9577 8.978
21.9729 8.993
21.9881 8.974
22.0032 8.968
22.0184 9.029
22.0336 8.885
22.0488 8.903
22.0639 8.826
22.0791 8.756
22.0943 8.600
22.1095 8.571
22.1246 8.862
22.1398 8.789
22.1550 8.693
22.1702 8.688
22.1853 8.734
22.2005 8.708
22.2157 8.681
22.2309 8.571
22.2460 8.438
22.2612 8.590
22.2764 8.679
22.2916 8.624
22.3067 8.620
22.3219 8.516
22.3371 8.538
22.3523 8.620
22.3674 8.590
22.3826 8.329
22.3978 8.422
22.4130 8.535
22.4281 8.736
22.4433 8.696
22.4585 8.585
22.4737 8.730
22.4888 8.375
22.5040 8.451
22.5192 8.573
22.5344 8.575
22.5495 8.483
22.5647 8.310
22.5799 8.555
22.5951 8.443
22.6102 8.570
22.6254 8.730
22.6406 8.133
22.6558 8.626
22.6709 8.275
22.6861 8.479
22.7013 8.290
22.7165 8.104
22.7316 6.436
