'Id: "" Comment: "" Operator: "Lab Manager" Anode: "Mo" Scantype: "Still (Eiger2R_500K (1D mode))" TimePerStep: "300" X: "11.8" Y: "9.4" Z: "11.284" 
7.2532 18.479
7.2684 18.792
7.2836 19.071
7.2987 18.354
7.3139 18.857
7.3291 18.712
7.3443 18.793
7.3594 18.996
7.3746 18.861
7.3898 19.553
7.4050 19.482
7.4201 19.366
7.4353 19.355
7.4505 19.159
7.4657 18.975
7.4808 19.235
7.4960 19.458
7.5112 19.755
7.5264 19.747
7.5415 19.654
7.5567 19.435
7.5719 19.700
7.5871 19.780
7.6022 20.035
7.6174 20.315
7.6326 19.926
7.6478 19.952
7.6629 19.920
7.6781 20.156
7.6933 20.341
7.7085 20.143
7.7236 20.206
7.7388 20.153
7.7540 20.383
7.7692 20.439
7.7843 20.426
7.7995 20.650
7.8147 20.183
7.8299 19.938
7.8450 20.358
7.8602 20.401
7.8754 20.153
7.8905 20.563
7.9057 20.577
7.9209 20.529
7.9361 20.459
7.9512 20.778
7.9664 20.712
7.9816 20.517
7.9968 20.552
8.0119 20.224
8.0271 20.558
8.0423 20.672
8.0575 20.847
8.0726 20.838
8.0878 20.814
8.1030 21.090
8.1182 20.620
8.1333 21.231
8.1485 21.335
8.1637 21.301
8.1789 20.714
8.1940 20.803
8.2092 21.089
8.2244 21.284
8.2396 21.016
8.2547 21.092
8.2699 21.213
8.2851 21.408
8.3003 21.255
8.3154 21.629
8.3306 21.935
8.3458 21.742
8.3610 21.562
8.3761 21.787
8.3913 21.782
8.4065 21.585
8.4217 21.515
8.4368 21.933
8.4520 21.465
8.4672 21.926
8.4824 21.829
8.4975 21.468
8.5127 21.898
8.5279 22.074
8.5431 21.311
8.5582 21.701
8.5734 21.700
8.5886 22.043
8.6038 22.374
8.6189 22.353
8.6341 22.408
8.6493 22.234
8.6645 22.136
8.6796 22.373
8.6948 22.165
8.7100 22.603
8.7252 21.907
8.7403 22.150
8.7555 21.879
8.7707 21.930
8.7859 22.101
8.8010 22.148
8.8162 22.024
8.8314 22.586
8.8466 22.223
8.8617 21.930
8.8769 22.439
8.8921 22.203
8.9073 22.363
8.9224 22.641
8.9376 22.152
8.9528 21.993
8.9680 21.906
8.9831 22.290
8.9983 22.147
9.0135 22.700
9.0287 22.675
9.0438 22.442
9.0590 22.700
9.0742 22.782
9.0894 22.434
9.1045 22.925
9.1197 23.106
9.1349 22.554
9.1501 22.157
9.1652 22.209
9.1804 22.430
9.1956 22.734
9.2108 22.909
9.2259 22.987
9.2411 22.659
9.2563 22.448
9.2715 22.710
9.2866 22.605
9.3018 22.466
9.3170 22.873
9.3322 23.014
9.3473 23.129
9.3625 23.176
9.3777 22.758
9.3929 22.740
9.4080 22.883
9.4232 23.106
9.4384 22.916
9.4536 22.790
9.4687 22.938
9.4839 22.992
9.4991 22.875
9.5143 22.901
9.5294 22.724
9.5446 22.531
9.5598 22.626
9.5750 22.846
9.5901 22.915
9.6053 22.885
9.6205 22.998
9.6357 22.887
9.6508 23.059
9.6660 23.368
9.6812 23.474
9.6964 23.573
9.7115 23.578
9.7267 23.732
9.7419 24.314
9.7571 24.310
9.7722 23.940
9.7874 23.838
9.8026 23.247
9.8178 22.935
9.8329 23.410
9.8481 23.355
9.8633 22.989
9.8785 23.095
9.8936 23.084
9.9088 23.138
9.9240 22.924
9.9392 23.051
9.9543 23.192
9.9695 23.025
9.9847 23.059
9.9999 23.197
10.0150 22.868
10.0302 22.815
10.0454 23.182
10.0606 23.314
10.0757 23.080
10.0909 22.780
10.1061 23.050
10.1213 23.045
10.1364 23.343
10.1516 23.358
10.1668 22.868
10.1820 22.746
10.1971 22.860
10.2123 22.619
10.2275 22.671
10.2427 22.985
10.2578 22.806
10.2730 22.907
10.2882 22.668
10.3034 22.496
10.3185 22.812
10.3337 22.369
10.3489 22.742
10.3641 22.701
10.3792 22.589
10.3944 22.321
10.4096 22.489
10.4248 22.655
10.4399 22.523
10.4551 22.660
10.4703 22.790
10.4855 22.813
10.5006 22.641
10.5158 22.420
10.5310 22.220
10.5462 22.274
10.5613 22.408
10.5765 22.357
10.5917 22.144
10.6069 22.513
10.6220 22.471
10.6372 22.278
10.6524 22.217
10.6676 22.291
10.6827 22.130
10.6979 22.412
10.7131 22.493
10.7283 22.514
10.7434 22.312
10.7586 22.155
10.7738 22.296
10.7890 22.477
10.8041 22.268
10.8193 22.042
10.8345 22.097
10.8497 21.980
10.8648 21.900
10.8800 21.939
10.8952 21.959
10.9104 22.218
10.9255 22.332
10.9407 21.807
10.9559 21.933
10.9711 21.554
10.9862 21.832
11.0014 22.067
11.0166 22.055
11.0318 21.921
11.0469 21.880
11.0621 21.673
11.0773 21.812
11.0925 21.767
11.1076 21.648
11.1228 21.744
11.1380 21.831
11.1532 21.498
11.1683 21.572
11.1835 21.335
11.1987 21.389
11.2139 21.400
11.2290 21.431
11.2442 21.487
11.2594 22.110
11.2746 22.074
11.2897 21.561
11.3049 21.506
11.3201 21.421
11.3353 21.482
11.3504 21.524
11.3656 21.306
11.3808 20.858
11.3960 21.152
11.4111 21.308
11.4263 21.203
11.4415 20.917
11.4567 20.955
11.4718 20.830
11.4870 20.705
11.5022 20.701
11.5174 20.565
11.5325 20.661
11.5477 21.395
11.5629 21.209
11.5781 20.751
11.5932 20.585
11.6084 20.960
11.6236 20.793
11.6388 20.827
11.6539 20.375
11.6691 20.570
11.6843 20.817
11.6995 20.309
11.7146 20.537
11.7298 20.325
11.7450 20.361
11.7602 20.256
11.7753 20.128
11.7905 19.909
11.8057 19.588
11.8209 19.793
11.8360 19.676
11.8512 19.397
11.8664 19.782
11.8816 19.738
11.8967 19.632
11.9119 19.630
11.9271 19.364
11.9423 19.504
11.9574 19.221
11.9726 18.802
11.9878 19.101
12.0030 19.146
12.0181 19.182
12.0333 19.062
12.0485 18.977
12.0637 18.888
12.0788 18.674
12.0940 18.478
12.1092 18.464
12.1244 18.532
12.1395 18.800
12.1547 18.628
12.1699 18.281
12.1851 18.219
12.2002 18.199
12.2154 18.129
12.2306 18.098
12.2458 17.771
12.2609 17.652
12.2761 17.516
12.2913 17.629
12.3065 17.636
12.3216 17.538
12.3368 17.562
12.3520 17.666
12.3672 17.356
12.3823 17.191
12.3975 17.239
12.4127 17.099
12.4279 17.107
12.4430 16.933
12.4582 16.710
12.4734 16.501
12.4886 16.514
12.5037 16.516
12.5189 16.306
12.5341 16.221
12.5493 16.051
12.5644 16.023
12.5796 16.229
12.5948 15.884
12.6100 15.811
12.6251 15.871
12.6403 15.949
12.6555 15.765
12.6707 15.742
12.6858 15.781
12.7010 15.716
12.7162 15.414
12.7314 15.261
12.7465 15.344
12.7617 15.439
12.7769 15.123
12.7921 14.975
12.8072 15.110
12.8224 14.986
12.8376 14.767
12.8528 14.657
12.8679 14.489
12.8831 14.512
12.8983 14.733
12.9135 14.749
12.9286 14.560
12.9438 14.418
12.9590 14.520
12.9742 14.616
12.9893 14.680
13.0045 14.438
13.0197 14.142
13.0349 14.045
13.0500 13.893
13.0652 13.758
13.0804 13.866
13.0956 13.930
13.1107 13.811
13.1259 13.725
13.1411 13.511
13.1563 13.423
13.1714 13.418
13.1866 13.370
13.2018 13.366
13.2170 13.296
13.2321 13.338
13.2473 13.401
13.2625 13.300
13.2777 13.170
13.2928 12.979
13.3080 12.903
13.3232 13.030
13.3384 13.223
13.3535 13.320
13.3687 13.192
13.3839 13.079
13.3991 12.984
13.4142 12.953
13.4294 12.705
13.4446 12.471
13.4598 12.679
13.4749 12.803
13.4901 12.587
13.5053 12.504
13.5205 12.502
13.5356 12.300
13.5508 12.318
13.5660 12.306
13.5812 12.190
13.5963 12.179
13.6115 12.162
13.6267 11.982
13.6419 12.145
13.6570 12.231
13.6722 12.125
13.6874 12.198
13.7026 12.083
13.7177 11.989
13.7329 12.077
13.7481 12.039
13.7633 11.936
13.7784 12.219
13.7936 12.206
13.8088 12.145
13.8239 12.070
13.8391 12.293
13.8543 12.581
13.8695 12.666
13.8846 12.330
13.8998 12.308
13.9150 12.150
13.9302 12.043
13.9453 12.008
13.9605 12.038
13.9757 11.947
13.9909 11.884
14.0060 11.783
14.0212 11.661
14.0364 11.655
14.0516 11.621
14.0667 11.572
14.0819 11.447
14.0971 11.648
14.1123 11.475
14.1274 11.671
14.1426 11.565
14.1578 11.598
14.1730 11.485
14.1881 11.629
14.2033 11.457
14.2185 11.462
14.2337 11.635
14.2488 11.563
14.2640 11.756
14.2792 11.726
14.2944 11.863
14.3095 11.938
14.3247 12.092
14.3399 12.129
14.3551 12.268
14.3702 12.671
14.3854 12.877
14.4006 13.000
14.4158 13.174
14.4309 13.020
14.4461 12.482
14.4613 12.327
14.4765 12.141
14.4916 12.152
14.5068 11.877
14.5220 11.498
14.5372 11.386
14.5523 11.069
14.5675 11.082
14.5827 10.919
14.5979 11.023
14.6130 10.790
14.6282 10.464
14.6434 10.777
14.6586 10.280
14.6737 10.589
14.6889 10.497
14.7041 10.628
14.7193 10.497
14.7344 10.518
14.7496 10.807
14.7648 10.813
14.7800 10.735
14.7951 10.807
14.8103 10.502
14.8255 10.241
14.8407 10.415
14.8558 10.561
14.8710 10.228
14.8862 10.204
14.9014 10.689
14.9165 10.726
14.9317 10.741
14.9469 10.404
14.9621 10.291
14.9772 10.392
14.9924 10.265
15.0076 10.223
15.0228 10.380
15.0379 10.190
15.0531 9.999
15.0683 10.196
15.0835 10.463
15.0986 10.048
15.1138 10.447
15.1290 9.915
15.1442 10.417
15.1593 10.013
15.1745 10.369
15.1897 10.218
15.2049 10.257
15.2200 10.193
15.2352 10.295
15.2504 9.596
15.2656 9.982
15.2807 10.099
15.2959 9.724
15.3111 10.057
15.3263 9.595
15.3414 10.078
15.3566 9.655
15.3718 10.232
15.3870 10.206
15.4021 10.088
15.4173 9.887
15.4325 9.900
15.4477 10.288
15.4628 10.321
15.4780 9.927
15.4932 10.035
15.5084 9.925
15.5235 10.085
15.5387 9.846
15.5539 9.853
15.5691 9.632
15.5842 10.034
15.5994 9.933
15.6146 9.926
15.6298 9.995
15.6449 9.875
15.6601 9.944
15.6753 9.620
15.6905 9.603
15.7056 9.623
15.7208 9.762
15.7360 9.620
15.7512 9.883
15.7663 9.452
15.7815 9.721
15.7967 9.619
15.8119 9.738
15.8270 9.530
15.8422 9.738
15.8574 9.725
15.8726 9.693
15.8877 9.744
15.9029 9.635
15.9181 9.348
15.9333 9.056
15.9484 9.235
15.9636 9.405
15.9788 9.351
15.9940 9.611
16.0091 9.663
16.0243 9.668
16.0395 9.445
16.0547 9.451
16.0698 9.536
16.0850 9.490
16.1002 9.592
16.1154 9.625
16.1305 9.602
16.1457 9.555
16.1609 9.471
16.1761 9.498
16.1912 9.554
16.2064 9.672
16.2216 9.805
16.2368 9.638
16.2519 9.792
16.2671 9.816
16.2823 9.489
16.2975 9.601
16.3126 9.564
16.3278 9.670
16.3430 9.747
16.3582 9.950
16.3733 9.894
16.3885 9.885
16.4037 9.757
16.4189 9.806
16.4340 9.847
16.4492 9.606
16.4644 9.420
16.4796 9.380
16.4947 9.548
16.5099 9.345
16.5251 9.459
16.5403 9.440
16.5554 9.512
16.5706 9.389
16.5858 9.449
16.6010 9.523
16.6161 9.592
16.6313 9.724
16.6465 9.587
16.6617 9.472
16.6768 9.754
16.6920 9.596
16.7072 9.822
16.7224 9.796
16.7375 9.719
16.7527 9.818
16.7679 9.754
16.7831 9.807
16.7982 9.880
16.8134 9.654
16.8286 9.527
16.8438 9.669
16.8589 9.932
16.8741 9.990
16.8893 9.498
16.9045 9.402
16.9196 9.769
16.9348 9.850
16.9500 9.844
16.9652 9.785
16.9803 9.658
16.9955 9.761
17.0107 9.791
17.0259 9.722
17.0410 9.873
17.0562 9.947
17.0714 10.194
17.0866 10.347
17.1017 10.541
17.1169 10.983
17.1321 10.961
17.1473 11.333
17.1624 11.623
17.1776 12.028
17.1928 12.962
17.2080 13.901
17.2231 14.863
17.2383 16.146
17.2535 17.492
17.2687 18.406
17.2838 18.454
17.2990 18.042
17.3142 17.438
17.3294 16.329
17.3445 15.849
17.3597 16.185
17.3749 16.074
17.3901 15.384
17.4052 14.261
17.4204 13.270
17.4356 12.675
17.4508 12.232
17.4659 11.899
17.4811 11.408
17.4963 11.304
17.5115 11.258
17.5266 10.842
17.5418 10.764
17.5570 10.859
17.5722 10.888
17.5873 10.903
17.6025 10.863
17.6177 10.927
17.6329 11.202
17.6480 11.528
17.6632 11.414
17.6784 11.474
17.6936 11.551
17.7087 11.289
17.7239 11.177
17.7391 11.216
17.7543 11.129
17.7694 10.925
17.7846 10.945
17.7998 10.942
17.8150 10.683
17.8301 10.555
17.8453 10.284
17.8605 10.116
17.8757 10.302
17.8908 10.388
17.9060 10.193
17.9212 10.203
17.9364 10.229
17.9515 10.131
17.9667 10.098
17.9819 10.225
17.9971 10.163
18.0122 10.003
18.0274 9.969
18.0426 10.096
18.0578 10.318
18.0729 10.085
18.0881 9.921
18.1033 9.993
18.1185 9.883
18.1336 9.869
18.1488 10.090
18.1640 10.183
18.1792 9.922
18.1943 9.815
18.2095 9.852
18.2247 9.800
18.2399 9.777
18.2550 9.738
18.2702 9.860
18.2854 9.661
18.3006 9.694
18.3157 9.931
18.3309 9.724
18.3461 9.717
18.3613 9.741
18.3764 9.800
18.3916 9.596
18.4068 9.665
18.4220 9.922
18.4371 9.957
18.4523 9.818
18.4675 9.719
18.4827 9.636
18.4978 9.797
18.5130 9.783
18.5282 9.773
18.5434 9.930
18.5585 9.836
18.5737 9.886
18.5889 9.762
18.6041 9.554
18.6192 9.596
18.6344 9.869
18.6496 9.840
18.6648 9.629
18.6799 9.556
18.6951 9.795
18.7103 10.005
18.7255 9.855
18.7406 9.765
18.7558 9.615
18.7710 9.468
18.7862 9.487
18.8013 9.647
18.8165 9.726
18.8317 9.771
18.8469 9.758
18.8620 9.895
18.8772 10.026
18.8924 9.924
18.9076 9.869
18.9227 9.922
18.9379 9.975
18.9531 9.769
18.9683 9.671
18.9834 9.925
18.9986 10.039
19.0138 9.920
19.0290 9.961
19.0441 10.021
19.0593 9.822
19.0745 9.930
19.0897 10.164
19.1048 10.053
19.1200 10.289
19.1352 10.457
19.1504 10.351
19.1655 10.435
19.1807 10.458
19.1959 10.587
19.2111 10.735
19.2262 10.797
19.2414 10.648
19.2566 10.517
19.2718 10.798
19.2869 10.887
19.3021 10.773
19.3173 10.913
19.3325 10.883
19.3476 10.942
19.3628 11.168
19.3780 10.983
19.3932 11.093
19.4083 11.200
19.4235 11.128
19.4387 11.125
19.4539 11.062
19.4690 11.322
19.4842 11.618
19.4994 11.393
19.5146 11.444
19.5297 11.533
19.5449 11.703
19.5601 11.824
19.5753 11.694
19.5904 11.465
19.6056 11.421
19.6208 11.628
19.6360 11.622
19.6511 11.593
19.6663 11.697
19.6815 11.811
19.6967 11.802
19.7118 11.856
19.7270 11.989
19.7422 11.849
19.7574 11.784
19.7725 11.710
19.7877 11.638
19.8029 11.883
19.8180 11.947
19.8332 12.029
19.8484 12.338
19.8636 12.407
19.8787 12.523
19.8939 12.871
19.9091 13.399
19.9243 13.714
19.9394 13.925
19.9546 14.099
19.9698 14.238
19.9850 14.353
20.0001 14.097
20.0153 13.969
20.0305 13.802
20.0457 13.897
20.0608 13.974
20.0760 13.893
20.0912 13.707
20.1064 13.812
20.1215 13.805
20.1367 13.520
20.1519 13.207
20.1671 13.247
20.1822 13.089
20.1974 13.049
20.2126 12.917
20.2278 12.760
20.2429 12.549
20.2581 12.395
20.2733 12.097
20.2885 11.923
20.3036 11.950
20.3188 11.950
20.3340 11.972
20.3492 12.206
20.3643 12.239
20.3795 12.057
20.3947 11.841
20.4099 11.838
20.4250 12.056
20.4402 11.872
20.4554 11.748
20.4706 12.047
20.4857 11.894
20.5009 11.564
20.5161 11.137
20.5313 11.370
20.5464 11.348
20.5616 11.334
20.5768 11.171
20.5920 11.201
20.6071 11.124
20.6223 10.738
20.6375 10.562
20.6527 10.722
20.6678 10.912
20.6830 11.009
20.6982 10.808
20.7134 10.363
20.7285 10.453
20.7437 10.625
20.7589 10.458
20.7741 10.535
20.7892 10.200
20.8044 10.239
20.8196 10.124
20.8348 10.290
20.8499 10.442
20.8651 10.332
20.8803 10.209
20.8955 10.252
20.9106 10.296
20.9258 10.219
20.9410 10.051
20.9562 10.052
20.9713 10.051
20.9865 10.066
21.0017 10.345
21.0169 10.114
21.0320 10.102
21.0472 10.165
21.0624 9.968
21.0776 10.180
21.0927 10.189
21.1079 9.767
21.1231 9.777
21.1383 10.216
21.1534 9.620
21.1686 10.118
21.1838 9.820
21.1990 9.781
21.2141 9.658
21.2293 9.662
21.2445 9.429
21.2597 9.713
21.2748 9.931
21.2900 9.346
21.3052 9.410
21.3204 9.842
21.3355 9.518
21.3507 9.294
21.3659 9.418
21.3811 9.501
21.3962 9.883
21.4114 9.365
21.4266 9.581
21.4418 9.601
21.4569 9.402
21.4721 9.392
21.4873 9.246
21.5025 9.200
21.5176 9.428
21.5328 9.385
21.5480 9.469
21.5632 9.371
21.5783 9.433
21.5935 9.452
21.6087 9.373
21.6239 9.085
21.6390 9.370
21.6542 9.233
21.6694 9.262
21.6846 9.280
21.6997 9.388
21.7149 9.170
21.7301 8.953
21.7453 9.099
21.7604 8.968
21.7756 8.910
21.7908 9.048
21.8060 9.018
21.8211 9.042
21.8363 8.876
21.8515 8.843
21.8667 8.984
21.8818 8.998
21.8970 9.075
21.9122 9.094
21.9274 9.029
21.9425 8.931
21.9577 9.140
21.9729 8.934
21.9881 8.956
22.0032 9.028
22.0184 8.864
22.0336 8.899
22.0488 8.784
22.0639 8.705
22.0791 8.688
22.0943 8.626
22.1095 8.629
22.1246 8.585
22.1398 8.523
22.1550 8.516
22.1702 8.572
22.1853 8.539
22.2005 8.579
22.2157 8.539
22.2309 8.625
22.2460 8.748
22.2612 8.925
22.2764 8.690
22.2916 8.463
22.3067 8.628
22.3219 8.600
22.3371 8.521
22.3523 8.388
22.3674 8.503
22.3826 8.489
22.3978 8.547
22.4130 8.425
22.4281 8.354
22.4433 8.486
22.4585 8.145
22.4737 8.279
22.4888 8.545
22.5040 8.255
22.5192 8.551
22.5344 8.402
22.5495 8.234
22.5647 8.639
22.5799 8.436
22.5951 8.417
22.6102 8.357
22.6254 8.375
22.6406 8.558
22.6558 8.253
22.6709 8.302
22.6861 8.276
22.7013 8.142
22.7165 8.219
22.7316 6.375
