'Id: "" Comment: "" Operator: "Lab Manager" Anode: "Mo" Scantype: "Still (Eiger2R_500K (1D mode))" TimePerStep: "300" X: "11.8" Y: "9.4" Z: "11.284" 
7.2532 18.911
7.2684 18.680
7.2836 18.448
7.2987 18.926
7.3139 19.102
7.3291 19.219
7.3443 18.782
7.3594 19.158
7.3746 19.623
7.3898 19.404
7.4050 19.491
7.4201 19.231
7.4353 19.066
7.4505 19.461
7.4657 19.268
7.4808 19.501
7.4960 19.487
7.5112 19.720
7.5264 19.523
7.5415 19.623
7.5567 19.105
7.5719 19.605
7.5871 19.906
7.6022 19.810
7.6174 19.742
7.6326 20.063
7.6478 20.027
7.6629 20.127
7.6781 19.939
7.6933 19.690
7.7085 19.969
7.7236 20.454
7.7388 20.528
7.7540 20.501
7.7692 20.422
7.7843 20.421
7.7995 20.501
7.8147 20.344
7.8299 20.276
7.8450 20.339
7.8602 20.559
7.8754 20.505
7.8905 20.765
7.9057 20.531
7.9209 20.348
7.9361 20.830
7.9512 20.779
7.9664 20.896
7.9816 21.016
7.9968 20.765
8.0119 20.963
8.0271 20.943
8.0423 20.730
8.0575 20.909
8.0726 21.294
8.0878 21.144
8.1030 21.383
8.1182 21.132
8.1333 21.136
8.1485 21.309
8.1637 21.368
8.1789 21.552
8.1940 21.462
8.2092 21.775
8.2244 21.706
8.2396 21.224
8.2547 21.171
8.2699 21.079
8.2851 21.388
8.3003 21.893
8.3154 21.711
8.3306 21.760
8.3458 21.786
8.3610 21.648
8.3761 21.254
8.3913 21.521
8.4065 22.032
8.4217 22.074
8.4368 21.820
8.4520 21.767
8.4672 22.067
8.4824 21.931
8.4975 21.823
8.5127 21.827
8.5279 22.209
8.5431 21.970
8.5582 22.481
8.5734 21.999
8.5886 21.480
8.6038 21.885
8.6189 22.167
8.6341 21.655
8.6493 21.865
8.6645 22.490
8.6796 21.879
8.6948 21.958
8.7100 22.096
8.7252 22.477
8.7403 22.138
8.7555 22.399
8.7707 22.295
8.7859 22.418
8.8010 22.108
8.8162 22.356
8.8314 22.083
8.8466 22.251
8.8617 22.589
8.8769 22.414
8.8921 22.116
8.9073 22.537
8.9224 22.091
8.9376 22.230
8.9528 22.496
8.9680 22.493
8.9831 22.072
8.9983 22.369
9.0135 22.439
9.0287 22.782
9.0438 23.236
9.0590 22.595
9.0742 22.412
9.0894 22.309
9.1045 22.864
9.1197 22.856
9.1349 22.756
9.1501 22.775
9.1652 22.522
9.1804 22.942
9.1956 22.923
9.2108 22.743
9.2259 22.446
9.2411 22.444
9.2563 22.768
9.2715 23.100
9.2866 22.835
9.3018 22.576
9.3170 22.830
9.3322 22.927
9.3473 22.923
9.3625 22.790
9.3777 22.810
9.3929 22.612
9.4080 22.802
9.4232 23.060
9.4384 23.151
9.4536 23.138
9.4687 23.220
9.4839 22.975
9.4991 23.030
9.5143 23.191
9.5294 23.084
9.5446 22.835
9.5598 23.005
9.5750 23.005
9.5901 22.812
9.6053 22.991
9.6205 23.014
9.6357 23.294
9.6508 23.131
9.6660 23.198
9.6812 23.595
9.6964 23.800
9.7115 24.198
9.7267 24.015
9.7419 23.703
9.7571 23.876
9.7722 23.904
9.7874 23.941
9.8026 23.773
9.8178 23.417
9.8329 23.195
9.8481 22.854
9.8633 22.977
9.8785 23.224
9.8936 23.072
9.9088 23.157
9.9240 23.287
9.9392 23.044
9.9543 23.077
9.9695 23.231
9.9847 22.928
9.9999 22.768
10.0150 23.106
10.0302 23.115
10.0454 23.166
10.0606 23.006
10.0757 23.009
10.0909 23.231
10.1061 23.650
10.1213 23.745
10.1364 23.655
10.1516 23.664
10.1668 23.636
10.1820 23.497
10.1971 23.352
10.2123 23.219
10.2275 23.295
10.2427 22.941
10.2578 22.857
10.2730 22.773
10.2882 22.651
10.3034 22.894
10.3185 22.968
10.3337 22.916
10.3489 23.143
10.3641 22.970
10.3792 22.688
10.3944 22.822
10.4096 22.433
10.4248 22.879
10.4399 22.617
10.4551 22.459
10.4703 22.553
10.4855 22.843
10.5006 22.726
10.5158 22.677
10.5310 22.843
10.5462 22.769
10.5613 22.669
10.5765 22.409
10.5917 22.533
10.6069 22.400
10.6220 22.640
10.6372 22.404
10.6524 22.497
10.6676 22.711
10.6827 22.519
10.6979 22.329
10.7131 22.459
10.7283 22.707
10.7434 22.386
10.7586 22.425
10.7738 22.339
10.7890 22.453
10.8041 22.517
10.8193 22.279
10.8345 22.337
10.8497 21.994
10.8648 22.234
10.8800 22.401
10.8952 22.546
10.9104 22.429
10.9255 21.933
10.9407 21.681
10.9559 21.880
10.9711 21.955
10.9862 22.196
11.0014 22.156
11.0166 22.155
11.0318 22.046
11.0469 21.370
11.0621 21.170
11.0773 21.730
11.0925 21.768
11.1076 21.974
11.1228 21.674
11.1380 21.631
11.1532 21.671
11.1683 21.571
11.1835 21.882
11.1987 21.860
11.2139 21.504
11.2290 21.563
11.2442 21.564
11.2594 21.900
11.2746 21.498
11.2897 21.208
11.3049 21.275
11.3201 21.648
11.3353 21.560
11.3504 21.505
11.3656 21.818
11.3808 21.588
11.3960 21.293
11.4111 21.199
11.4263 21.040
11.4415 21.326
11.4567 21.299
11.4718 21.451
11.4870 21.008
11.5022 20.909
11.5174 21.153
11.5325 20.864
11.5477 20.589
11.5629 20.560
11.5781 20.786
11.5932 20.962
11.6084 21.010
11.6236 21.187
11.6388 20.887
11.6539 20.558
11.6691 20.280
11.6843 20.237
11.6995 20.034
11.7146 20.367
11.7298 20.564
11.7450 20.362
11.7602 20.210
11.7753 19.937
11.7905 20.361
11.8057 19.869
11.8209 19.706
11.8360 20.023
11.8512 19.941
11.8664 20.065
11.8816 19.756
11.8967 19.367
11.9119 19.490
11.9271 19.615
11.9423 19.209
11.9574 19.485
11.9726 19.666
11.9878 19.292
12.0030 19.092
12.0181 19.542
12.0333 19.665
12.0485 19.075
12.0637 18.828
12.0788 18.915
12.0940 18.819
12.1092 19.069
12.1244 18.933
12.1395 18.803
12.1547 18.334
12.1699 18.473
12.1851 18.253
12.2002 18.131
12.2154 18.030
12.2306 18.199
12.2458 18.108
12.2609 17.671
12.2761 17.786
12.2913 17.882
12.3065 17.874
12.3216 17.608
12.3368 17.486
12.3520 17.349
12.3672 17.359
12.3823 17.357
12.3975 17.492
12.4127 17.270
12.4279 17.063
12.4430 16.803
12.4582 16.670
12.4734 16.504
12.4886 16.527
12.5037 16.864
12.5189 16.759
12.5341 16.748
12.5493 16.696
12.5644 16.369
12.5796 16.136
12.5948 16.155
12.6100 16.284
12.6251 16.125
12.6403 16.045
12.6555 16.046
12.6707 15.701
12.6858 15.716
12.7010 15.922
12.7162 15.781
12.7314 15.327
12.7465 15.421
12.7617 15.599
12.7769 15.556
12.7921 15.336
12.8072 15.172
12.8224 15.013
12.8376 14.902
12.8528 14.813
12.8679 14.563
12.8831 14.552
12.8983 14.742
12.9135 14.703
12.9286 14.482
12.9438 14.326
12.9590 14.453
12.9742 14.554
12.9893 14.460
13.0045 14.243
13.0197 14.267
13.0349 14.279
13.0500 14.016
13.0652 13.765
13.0804 13.621
13.0956 13.704
13.1107 13.839
13.1259 13.700
13.1411 13.478
13.1563 13.654
13.1714 13.922
13.1866 13.671
13.2018 13.483
13.2170 13.484
13.2321 13.421
13.2473 13.399
13.2625 13.183
13.2777 13.347
13.2928 13.406
13.3080 13.077
13.3232 13.019
13.3384 12.855
13.3535 12.998
13.3687 13.246
13.3839 13.057
13.3991 12.993
13.4142 12.974
13.4294 12.897
13.4446 12.939
13.4598 12.775
13.4749 12.493
13.4901 12.543
13.5053 12.457
13.5205 12.339
13.5356 12.195
13.5508 12.372
13.5660 12.361
13.5812 12.112
13.5963 12.310
13.6115 12.272
13.6267 12.194
13.6419 12.237
13.6570 12.218
13.6722 11.964
13.6874 11.923
13.7026 11.920
13.7177 11.686
13.7329 11.730
13.7481 11.721
13.7633 11.861
13.7784 12.176
13.7936 12.077
13.8088 11.975
13.8239 12.009
13.8391 12.250
13.8543 12.230
13.8695 12.201
13.8846 12.317
13.8998 12.192
13.9150 12.037
13.9302 12.160
13.9453 11.978
13.9605 11.669
13.9757 11.675
13.9909 11.650
14.0060 11.607
14.0212 11.468
14.0364 11.652
14.0516 11.410
14.0667 11.508
14.0819 11.379
14.0971 11.371
14.1123 11.500
14.1274 11.716
14.1426 11.492
14.1578 11.456
14.1730 11.182
14.1881 11.310
14.2033 11.240
14.2185 11.628
14.2337 11.540
14.2488 11.593
14.2640 11.773
14.2792 11.781
14.2944 11.655
14.3095 11.971
14.3247 12.117
14.3399 12.293
14.3551 12.757
14.3702 12.610
14.3854 12.884
14.4006 13.214
14.4158 13.025
14.4309 13.054
14.4461 12.839
14.4613 12.971
14.4765 12.718
14.4916 12.653
14.5068 12.298
14.5220 11.906
14.5372 11.463
14.5523 11.652
14.5675 10.856
14.5827 10.842
14.5979 10.992
14.6130 11.119
14.6282 11.207
14.6434 10.809
14.6586 11.011
14.6737 10.679
14.6889 10.719
14.7041 10.786
14.7193 10.856
14.7344 10.546
14.7496 10.599
14.7648 10.664
14.7800 10.522
14.7951 10.636
14.8103 10.359
14.8255 10.678
14.8407 10.496
14.8558 10.449
14.8710 10.438
14.8862 10.483
14.9014 10.261
14.9165 10.695
14.9317 10.408
14.9469 10.709
14.9621 10.432
14.9772 10.282
14.9924 9.931
15.0076 9.991
15.0228 10.362
15.0379 10.452
15.0531 10.037
15.0683 10.149
15.0835 10.271
15.0986 9.985
15.1138 10.541
15.1290 10.452
15.1442 10.340
15.1593 10.275
15.1745 10.049
15.1897 10.210
15.2049 9.754
15.2200 10.535
15.2352 10.092
15.2504 10.424
15.2656 9.865
15.2807 10.018
15.2959 10.050
15.3111 10.066
15.3263 10.064
15.3414 10.129
15.3566 9.967
15.3718 9.989
15.3870 10.218
15.4021 9.907
15.4173 10.188
15.4325 10.153
15.4477 10.156
15.4628 10.478
15.4780 10.222
15.4932 10.351
15.5084 10.070
15.5235 9.816
15.5387 9.870
15.5539 10.012
15.5691 9.957
15.5842 9.829
15.5994 9.774
15.6146 9.647
15.6298 9.937
15.6449 9.614
15.6601 9.813
15.6753 9.901
15.6905 9.788
15.7056 9.705
15.7208 9.669
15.7360 9.663
15.7512 9.698
15.7663 9.603
15.7815 9.706
15.7967 9.814
15.8119 9.567
15.8270 9.574
15.8422 9.460
15.8574 9.686
15.8726 9.670
15.8877 9.568
15.9029 9.434
15.9181 9.747
15.9333 9.694
15.9484 9.741
15.9636 9.450
15.9788 9.517
15.9940 9.645
16.0091 9.380
16.0243 9.508
16.0395 9.574
16.0547 9.424
16.0698 9.483
16.0850 9.561
16.1002 9.457
16.1154 9.521
16.1305 9.387
16.1457 9.433
16.1609 9.538
16.1761 9.645
16.1912 9.739
16.2064 9.985
16.2216 9.786
16.2368 9.808
16.2519 9.553
16.2671 9.593
16.2823 9.773
16.2975 9.525
16.3126 9.366
16.3278 9.603
16.3430 9.773
16.3582 9.878
16.3733 10.063
16.3885 9.908
16.4037 9.736
16.4189 10.045
16.4340 9.803
16.4492 9.595
16.4644 9.605
16.4796 9.806
16.4947 9.620
16.5099 9.429
16.5251 9.502
16.5403 9.598
16.5554 9.622
16.5706 9.525
16.5858 9.595
16.6010 9.660
16.6161 9.526
16.6313 9.394
16.6465 9.470
16.6617 9.678
16.6768 9.671
16.6920 9.712
16.7072 10.058
16.7224 10.142
16.7375 9.853
16.7527 9.739
16.7679 9.722
16.7831 9.788
16.7982 9.809
16.8134 9.833
16.8286 9.771
16.8438 9.790
16.8589 9.845
16.8741 9.720
16.8893 9.469
16.9045 9.381
16.9196 9.706
16.9348 9.834
16.9500 9.830
16.9652 9.767
16.9803 9.725
16.9955 9.833
17.0107 9.775
17.0259 10.089
17.0410 10.081
17.0562 9.825
17.0714 9.987
17.0866 10.211
17.1017 10.463
17.1169 10.796
17.1321 10.878
17.1473 11.191
17.1624 11.684
17.1776 12.317
17.1928 12.923
17.2080 13.601
17.2231 14.740
17.2383 16.400
17.2535 17.697
17.2687 18.238
17.2838 18.543
17.2990 18.130
17.3142 17.009
17.3294 16.449
17.3445 16.255
17.3597 15.842
17.3749 15.754
17.3901 15.368
17.4052 14.210
17.4204 13.124
17.4356 12.554
17.4508 11.891
17.4659 11.412
17.4811 11.618
17.4963 11.730
17.5115 11.343
17.5266 10.839
17.5418 10.802
17.5570 10.932
17.5722 10.865
17.5873 10.871
17.6025 11.060
17.6177 11.101
17.6329 10.957
17.6480 10.967
17.6632 11.166
17.6784 11.578
17.6936 11.885
17.7087 11.942
17.7239 11.850
17.7391 11.707
17.7543 11.479
17.7694 11.235
17.7846 11.121
17.7998 11.323
17.8150 11.344
17.8301 10.899
17.8453 10.423
17.8605 10.407
17.8757 10.216
17.8908 10.103
17.9060 10.522
17.9212 10.445
17.9364 10.256
17.9515 10.031
17.9667 10.135
17.9819 10.458
17.9971 10.281
18.0122 9.972
18.0274 10.078
18.0426 10.235
18.0578 10.310
18.0729 10.272
18.0881 10.146
18.1033 10.051
18.1185 9.946
18.1336 10.029
18.1488 10.240
18.1640 10.140
18.1792 9.999
18.1943 10.027
18.2095 10.006
18.2247 9.927
18.2399 9.998
18.2550 9.799
18.2702 9.769
18.2854 10.090
18.3006 10.196
18.3157 10.102
18.3309 9.995
18.3461 10.042
18.3613 9.875
18.3764 9.815
18.3916 9.767
18.4068 9.853
18.4220 10.017
18.4371 9.928
18.4523 9.743
18.4675 9.793
18.4827 9.935
18.4978 9.702
18.5130 9.566
18.5282 9.691
18.5434 9.690
18.5585 9.849
18.5737 9.920
18.5889 9.560
18.6041 9.562
18.6192 9.723
18.6344 9.659
18.6496 9.800
18.6648 9.663
18.6799 9.789
18.6951 9.909
18.7103 9.795
18.7255 9.830
18.7406 9.649
18.7558 9.478
18.7710 9.730
18.7862 9.787
18.8013 9.598
18.8165 9.550
18.8317 9.770
18.8469 9.864
18.8620 9.904
18.8772 9.695
18.8924 9.790
18.9076 9.956
18.9227 9.965
18.9379 9.973
18.9531 10.197
18.9683 10.056
18.9834 10.052
18.9986 10.166
19.0138 10.214
19.0290 10.252
19.0441 10.232
19.0593 10.142
19.0745 10.224
19.0897 10.211
19.1048 10.349
19.1200 10.344
19.1352 10.435
19.1504 10.654
19.1655 10.479
19.1807 10.397
19.1959 10.528
19.2111 10.553
19.2262 10.711
19.2414 10.886
19.2566 10.698
19.2718 10.854
19.2869 11.062
19.3021 10.950
19.3173 10.792
19.3325 10.772
19.3476 10.818
19.3628 10.787
19.3780 10.834
19.3932 11.106
19.4083 11.217
19.4235 11.273
19.4387 11.199
19.4539 11.388
19.4690 11.545
19.4842 11.343
19.4994 11.380
19.5146 11.292
19.5297 11.182
19.5449 11.290
19.5601 11.592
19.5753 11.877
19.5904 11.567
19.6056 11.472
19.6208 11.525
19.6360 11.482
19.6511 11.545
19.6663 11.456
19.6815 11.334
19.6967 11.534
19.7118 11.917
19.7270 11.744
19.7422 11.716
19.7574 11.919
19.7725 11.944
19.7877 12.031
19.8029 12.082
19.8180 12.227
19.8332 12.404
19.8484 12.409
19.8636 12.477
19.8787 12.659
19.8939 12.884
19.9091 13.209
19.9243 13.548
19.9394 13.836
19.9546 14.184
19.9698 14.414
19.9850 14.241
20.0001 14.243
20.0153 14.095
20.0305 13.809
20.0457 13.841
20.0608 13.682
20.0760 13.458
20.0912 13.527
20.1064 13.740
20.1215 13.626
20.1367 13.502
20.1519 13.260
20.1671 12.945
20.1822 12.789
20.1974 12.651
20.2126 12.706
20.2278 12.626
20.2429 12.572
20.2581 12.309
20.2733 11.998
20.2885 12.064
20.3036 11.957
20.3188 11.978
20.3340 12.123
20.3492 12.091
20.3643 11.892
20.3795 11.711
20.3947 11.796
20.4099 11.771
20.4250 11.702
20.4402 11.978
20.4554 11.940
20.4706 12.057
20.4857 11.920
20.5009 11.901
20.5161 12.080
20.5313 12.190
20.5464 11.640
20.5616 11.500
20.5768 11.723
20.5920 11.344
20.6071 11.321
20.6223 11.161
20.6375 11.022
20.6527 10.943
20.6678 10.953
20.6830 10.882
20.6982 10.883
20.7134 10.599
20.7285 10.487
20.7437 10.394
20.7589 10.446
20.7741 10.400
20.7892 10.206
20.8044 10.413
20.8196 10.080
20.8348 10.252
20.8499 10.326
20.8651 10.299
20.8803 10.395
20.8955 10.031
20.9106 10.088
20.9258 10.110
20.9410 10.000
20.9562 10.069
20.9713 9.864
20.9865 10.039
21.0017 9.854
21.0169 9.980
21.0320 10.263
21.0472 10.152
21.0624 9.978
21.0776 10.377
21.0927 9.681
21.1079 9.655
21.1231 10.123
21.1383 9.647
21.1534 10.140
21.1686 9.956
21.1838 9.420
21.1990 9.643
21.2141 9.782
21.2293 9.778
21.2445 9.919
21.2597 9.509
21.2748 9.660
21.2900 9.523
21.3052 9.309
21.3204 9.384
21.3355 9.593
21.3507 9.490
21.3659 9.496
21.3811 9.419
21.3962 9.427
21.4114 9.568
21.4266 9.497
21.4418 9.626
21.4569 9.317
21.4721 9.352
21.4873 9.145
21.5025 9.202
21.5176 9.343
21.5328 9.380
21.5480 8.874
21.5632 9.264
21.5783 9.318
21.5935 9.065
21.6087 9.069
21.6239 9.222
21.6390 9.053
21.6542 9.077
21.6694 8.852
21.6846 8.936
21.6997 9.174
21.7149 9.096
21.7301 9.054
21.7453 8.917
21.7604 8.953
21.7756 9.057
21.7908 9.135
21.8060 9.002
21.8211 9.202
21.8363 9.236
21.8515 9.188
21.8667 9.119
21.8818 9.088
21.8970 8.799
21.9122 8.760
21.9274 8.899
21.9425 9.019
21.9577 8.949
21.9729 8.729
21.9881 8.717
22.0032 8.608
22.0184 8.578
22.0336 8.606
22.0488 8.642
22.0639 8.669
22.0791 8.632
22.0943 8.635
22.1095 8.632
22.1246 8.703
22.1398 8.618
22.1550 8.540
22.1702 8.789
22.1853 8.798
22.2005 8.579
22.2157 8.481
22.2309 8.381
22.2460 8.721
22.2612 8.734
22.2764 8.491
22.2916 8.596
22.3067 8.449
22.3219 8.614
22.3371 8.351
22.3523 8.349
22.3674 8.476
22.3826 8.557
22.3978 8.508
22.4130 8.639
22.4281 8.461
22.4433 8.695
22.4585 8.644
22.4737 8.490
22.4888 8.540
22.5040 8.503
22.5192 8.340
22.5344 8.400
22.5495 8.271
22.5647 8.255
22.5799 8.385
22.5951 8.477
22.6102 8.291
22.6254 8.045
22.6406 8.625
22.6558 8.275
22.6709 8.384
22.6861 8.285
22.7013 8.259
22.7165 7.910
22.7316 6.465
