'Id: "" Comment: "" Operator: "Lab Manager" Anode: "Mo" Scantype: "Still (Eiger2R_500K (1D mode))" TimePerStep: "300" X: "11.8" Y: "9.4" Z: "11.284" 
7.2532 19.042
7.2684 19.439
7.2836 18.942
7.2987 18.900
7.3139 18.865
7.3291 18.910
7.3443 19.050
7.3594 19.188
7.3746 19.403
7.3898 19.355
7.4050 19.289
7.4201 19.162
7.4353 19.357
7.4505 19.634
7.4657 19.280
7.4808 19.335
7.4960 19.717
7.5112 19.452
7.5264 19.858
7.5415 19.985
7.5567 19.634
7.5719 19.863
7.5871 19.903
7.6022 20.056
7.6174 19.930
7.6326 19.863
7.6478 19.702
7.6629 20.031
7.6781 20.300
7.6933 20.425
7.7085 20.429
7.7236 20.304
7.7388 20.177
7.7540 20.157
7.7692 20.434
7.7843 20.514
7.7995 20.621
7.8147 20.919
7.8299 20.988
7.8450 20.955
7.8602 20.912
7.8754 20.670
7.8905 20.780
7.9057 21.288
7.9209 21.410
7.9361 21.195
7.9512 21.106
7.9664 21.011
7.9816 20.987
7.9968 20.990
8.0119 21.197
8.0271 21.101
8.0423 21.128
8.0575 21.399
8.0726 21.232
8.0878 21.378
8.1030 21.402
8.1182 21.374
8.1333 21.269
8.1485 21.536
8.1637 21.365
8.1789 21.463
8.1940 21.545
8.2092 21.178
8.2244 21.779
8.2396 21.614
8.2547 21.460
8.2699 21.091
8.2851 21.693
8.3003 21.895
8.3154 22.072
8.3306 21.772
8.3458 22.135
8.3610 21.829
8.3761 21.792
8.3913 21.919
8.4065 21.846
8.4217 21.875
8.4368 21.756
8.4520 21.935
8.4672 21.624
8.4824 21.551
8.4975 21.931
8.5127 22.134
8.5279 22.231
8.5431 21.986
8.5582 22.820
8.5734 22.330
8.5886 22.364
8.6038 22.329
8.6189 22.278
8.6341 22.170
8.6493 21.952
8.6645 22.243
8.6796 22.712
8.6948 22.234
8.7100 22.703
8.7252 22.332
8.7403 23.169
8.7555 23.287
8.7707 22.811
8.7859 22.705
8.8010 22.350
8.8162 22.740
8.8314 22.818
8.8466 22.829
8.8617 22.580
8.8769 22.542
8.8921 22.846
8.9073 22.930
8.9224 22.413
8.9376 22.486
8.9528 22.865
8.9680 22.765
8.9831 22.729
8.9983 22.559
9.0135 22.958
9.0287 22.539
9.0438 22.787
9.0590 23.099
9.0742 22.690
9.0894 22.987
9.1045 22.636
9.1197 22.839
9.1349 22.830
9.1501 23.262
9.1652 22.792
9.1804 22.522
9.1956 22.417
9.2108 22.686
9.2259 23.349
9.2411 23.157
9.2563 22.906
9.2715 22.679
9.2866 23.141
9.3018 23.211
9.3170 23.286
9.3322 23.054
9.3473 23.012
9.3625 23.362
9.3777 23.336
9.3929 23.094
9.4080 23.279
9.4232 23.100
9.4384 23.016
9.4536 23.059
9.4687 23.144
9.4839 23.093
9.4991 23.148
9.5143 23.295
9.5294 23.572
9.5446 23.514
9.5598 23.339
9.5750 23.179
9.5901 23.463
9.6053 23.437
9.6205 23.286
9.6357 23.176
9.6508 23.510
9.6660 23.694
9.6812 23.732
9.6964 23.642
9.7115 23.617
9.7267 24.011
9.7419 24.292
9.7571 24.107
9.7722 24.083
9.7874 24.040
9.8026 23.830
9.8178 23.637
9.8329 23.374
9.8481 23.740
9.8633 23.899
9.8785 23.584
9.8936 23.340
9.9088 23.111
9.9240 23.222
9.9392 23.176
9.9543 23.077
9.9695 23.436
9.9847 23.692
9.9999 23.439
10.0150 23.485
10.0302 23.684
10.0454 23.964
10.0606 23.891
10.0757 23.599
10.0909 23.679
10.1061 23.850
10.1213 23.362
10.1364 23.414
10.1516 23.836
10.1668 23.919
10.1820 23.852
10.1971 23.680
10.2123 24.084
10.2275 24.055
10.2427 23.625
10.2578 23.968
10.2730 23.942
10.2882 23.523
10.3034 23.604
10.3185 23.472
10.3337 23.008
10.3489 22.847
10.3641 23.243
10.3792 23.044
10.3944 22.874
10.4096 22.775
10.4248 22.856
10.4399 22.490
10.4551 22.469
10.4703 22.676
10.4855 22.895
10.5006 22.734
10.5158 22.476
10.5310 22.856
10.5462 22.812
10.5613 22.645
10.5765 22.758
10.5917 22.782
10.6069 22.747
10.6220 22.989
10.6372 22.607
10.6524 22.611
10.6676 22.693
10.6827 22.670
10.6979 22.546
10.7131 22.650
10.7283 22.318
10.7434 22.463
10.7586 22.524
10.7738 22.306
10.7890 22.210
10.8041 22.359
10.8193 21.959
10.8345 22.297
10.8497 22.333
10.8648 22.373
10.8800 22.465
10.8952 21.918
10.9104 22.106
10.9255 22.170
10.9407 22.101
10.9559 22.142
10.9711 22.114
10.9862 22.044
11.0014 22.246
11.0166 22.238
11.0318 22.063
11.0469 22.042
11.0621 21.984
11.0773 22.017
11.0925 21.871
11.1076 22.158
11.1228 22.116
11.1380 22.178
11.1532 22.060
11.1683 21.735
11.1835 21.959
11.1987 21.916
11.2139 21.662
11.2290 21.921
11.2442 21.711
11.2594 21.891
11.2746 21.923
11.2897 21.956
11.3049 21.849
11.3201 21.894
11.3353 22.257
11.3504 21.900
11.3656 21.588
11.3808 21.674
11.3960 21.523
11.4111 21.266
11.4263 21.390
11.4415 20.952
11.4567 21.018
11.4718 21.568
11.4870 21.227
11.5022 21.057
11.5174 21.102
11.5325 21.079
11.5477 21.471
11.5629 21.046
11.5781 20.862
11.5932 20.805
11.6084 20.785
11.6236 21.209
11.6388 20.759
11.6539 20.538
11.6691 20.813
11.6843 20.626
11.6995 20.494
11.7146 20.310
11.7298 20.569
11.7450 20.465
11.7602 20.178
11.7753 20.144
11.7905 20.392
11.8057 20.138
11.8209 20.304
11.8360 20.209
11.8512 19.910
11.8664 19.755
11.8816 19.825
11.8967 19.552
11.9119 19.684
11.9271 19.474
11.9423 19.459
11.9574 19.602
11.9726 19.388
11.9878 19.227
12.0030 19.300
12.0181 19.252
12.0333 19.549
12.0485 19.307
12.0637 18.986
12.0788 18.711
12.0940 18.980
12.1092 18.787
12.1244 18.659
12.1395 18.705
12.1547 18.539
12.1699 18.639
12.1851 18.633
12.2002 18.710
12.2154 18.373
12.2306 18.086
12.2458 17.860
12.2609 17.937
12.2761 17.811
12.2913 17.661
12.3065 17.852
12.3216 17.647
12.3368 17.501
12.3520 17.594
12.3672 17.525
12.3823 17.634
12.3975 17.328
12.4127 17.220
12.4279 17.385
12.4430 17.580
12.4582 17.258
12.4734 17.146
12.4886 17.197
12.5037 17.005
12.5189 16.868
12.5341 16.710
12.5493 16.443
12.5644 16.229
12.5796 16.365
12.5948 16.357
12.6100 16.130
12.6251 16.442
12.6403 16.401
12.6555 16.011
12.6707 15.905
12.6858 15.817
12.7010 15.742
12.7162 15.800
12.7314 15.537
12.7465 15.434
12.7617 15.587
12.7769 15.605
12.7921 15.363
12.8072 15.282
12.8224 15.279
12.8376 15.080
12.8528 15.156
12.8679 15.120
12.8831 15.059
12.8983 14.852
12.9135 14.661
12.9286 14.827
12.9438 14.990
12.9590 14.554
12.9742 14.221
12.9893 14.318
13.0045 14.259
13.0197 14.114
13.0349 13.956
13.0500 13.901
13.0652 13.980
13.0804 14.084
13.0956 14.279
13.1107 14.140
13.1259 13.991
13.1411 13.980
13.1563 13.660
13.1714 13.595
13.1866 13.711
13.2018 13.559
13.2170 13.403
13.2321 13.217
13.2473 13.234
13.2625 13.459
13.2777 13.467
13.2928 13.188
13.3080 12.908
13.3232 13.070
13.3384 13.181
13.3535 13.049
13.3687 12.992
13.3839 12.988
13.3991 12.954
13.4142 12.954
13.4294 12.955
13.4446 12.918
13.4598 12.683
13.4749 12.650
13.4901 12.560
13.5053 12.567
13.5205 12.537
13.5356 12.485
13.5508 12.703
13.5660 12.547
13.5812 12.328
13.5963 12.277
13.6115 12.100
13.6267 12.030
13.6419 12.061
13.6570 12.053
13.6722 12.159
13.6874 12.093
13.7026 12.052
13.7177 11.972
13.7329 11.795
13.7481 11.906
13.7633 12.008
13.7784 12.142
13.7936 12.099
13.8088 12.068
13.8239 12.029
13.8391 12.056
13.8543 12.192
13.8695 12.245
13.8846 12.151
13.8998 11.939
13.9150 11.808
13.9302 12.220
13.9453 12.129
13.9605 11.913
13.9757 11.745
13.9909 11.569
14.0060 11.596
14.0212 11.431
14.0364 11.259
14.0516 11.558
14.0667 11.359
14.0819 11.315
14.0971 11.424
14.1123 11.501
14.1274 11.649
14.1426 11.515
14.1578 11.417
14.1730 11.729
14.1881 11.740
14.2033 11.809
14.2185 11.642
14.2337 11.858
14.2488 12.075
14.2640 11.860
14.2792 11.912
14.2944 11.956
14.3095 12.069
14.3247 12.344
14.3399 12.446
14.3551 12.651
14.3702 13.071
14.3854 13.205
14.4006 13.371
14.4158 13.131
14.4309 12.789
14.4461 12.689
14.4613 12.547
14.4765 12.653
14.4916 12.566
14.5068 12.279
14.5220 11.926
14.5372 11.686
14.5523 11.728
14.5675 11.506
14.5827 11.686
14.5979 11.524
14.6130 11.211
14.6282 11.296
14.6434 11.064
14.6586 11.301
14.6737 10.977
14.6889 11.026
14.7041 11.128
14.7193 10.960
14.7344 10.885
14.7496 10.965
14.7648 10.871
14.7800 10.902
14.7951 10.571
14.8103 10.774
14.8255 10.616
14.8407 10.544
14.8558 10.532
14.8710 10.852
14.8862 10.547
14.9014 10.394
14.9165 10.821
14.9317 10.854
14.9469 10.360
14.9621 10.502
14.9772 10.504
14.9924 10.460
15.0076 10.734
15.0228 10.728
15.0379 10.556
15.0531 10.558
15.0683 10.656
15.0835 10.523
15.0986 10.416
15.1138 10.657
15.1290 10.666
15.1442 10.129
15.1593 10.636
15.1745 10.306
15.1897 10.467
15.2049 10.529
15.2200 10.414
15.2352 10.177
15.2504 10.367
15.2656 10.413
15.2807 10.430
15.2959 10.186
15.3111 10.181
15.3263 10.595
15.3414 10.196
15.3566 10.330
15.3718 10.162
15.3870 10.283
15.4021 10.631
15.4173 10.369
15.4325 10.420
15.4477 10.417
15.4628 10.235
15.4780 10.519
15.4932 10.353
15.5084 10.418
15.5235 10.412
15.5387 10.287
15.5539 10.318
15.5691 10.347
15.5842 10.092
15.5994 10.074
15.6146 10.437
15.6298 10.243
15.6449 10.140
15.6601 9.546
15.6753 9.908
15.6905 9.939
15.7056 10.019
15.7208 9.806
15.7360 9.685
15.7512 9.937
15.7663 10.088
15.7815 9.951
15.7967 9.918
15.8119 10.016
15.8270 9.987
15.8422 9.622
15.8574 9.565
15.8726 9.983
15.8877 9.819
15.9029 9.482
15.9181 9.589
15.9333 9.697
15.9484 9.733
15.9636 9.899
15.9788 9.868
15.9940 9.966
16.0091 9.867
16.0243 9.661
16.0395 9.637
16.0547 9.660
16.0698 9.876
16.0850 9.813
16.1002 9.605
16.1154 9.691
16.1305 9.949
16.1457 9.750
16.1609 9.681
16.1761 9.694
16.1912 9.770
16.2064 9.908
16.2216 9.815
16.2368 9.710
16.2519 9.642
16.2671 9.724
16.2823 10.009
16.2975 9.991
16.3126 9.829
16.3278 9.996
16.3430 10.037
16.3582 10.206
16.3733 10.266
16.3885 9.979
16.4037 10.174
16.4189 10.038
16.4340 10.028
16.4492 10.163
16.4644 9.812
16.4796 9.791
16.4947 9.763
16.5099 9.698
16.5251 9.731
16.5403 9.618
16.5554 9.488
16.5706 9.555
16.5858 9.603
16.6010 9.888
16.6161 9.903
16.6313 9.738
16.6465 9.585
16.6617 9.735
16.6768 9.995
16.6920 9.852
16.7072 9.887
16.7224 10.039
16.7375 10.155
16.7527 10.232
16.7679 10.190
16.7831 10.040
16.7982 10.064
16.8134 10.016
16.8286 9.999
16.8438 9.888
16.8589 9.898
16.8741 9.839
16.8893 9.757
16.9045 9.855
16.9196 9.842
16.9348 9.722
16.9500 9.879
16.9652 9.890
16.9803 9.881
16.9955 9.850
17.0107 9.888
17.0259 9.750
17.0410 9.920
17.0562 10.148
17.0714 10.143
17.0866 10.310
17.1017 10.427
17.1169 10.528
17.1321 10.726
17.1473 11.127
17.1624 11.693
17.1776 12.190
17.1928 12.853
17.2080 13.787
17.2231 15.086
17.2383 16.231
17.2535 17.331
17.2687 18.403
17.2838 18.399
17.2990 17.595
17.3142 16.910
17.3294 16.415
17.3445 16.143
17.3597 15.997
17.3749 15.845
17.3901 15.149
17.4052 14.109
17.4204 13.268
17.4356 12.347
17.4508 11.970
17.4659 11.745
17.4811 11.493
17.4963 11.650
17.5115 11.483
17.5266 11.315
17.5418 11.350
17.5570 11.441
17.5722 11.645
17.5873 11.764
17.6025 11.707
17.6177 11.400
17.6329 11.261
17.6480 11.191
17.6632 10.997
17.6784 11.013
17.6936 11.087
17.7087 10.817
17.7239 10.594
17.7391 10.582
17.7543 10.683
17.7694 10.646
17.7846 10.504
17.7998 10.513
17.8150 10.625
17.8301 10.571
17.8453 10.584
17.8605 10.694
17.8757 10.540
17.8908 10.392
17.9060 10.348
17.9212 10.195
17.9364 10.264
17.9515 10.262
17.9667 10.239
17.9819 10.311
17.9971 10.312
18.0122 10.311
18.0274 10.066
18.0426 10.183
18.0578 10.064
18.0729 10.027
18.0881 10.182
18.1033 10.317
18.1185 10.250
18.1336 10.095
18.1488 9.865
18.1640 9.839
18.1792 9.975
18.1943 9.915
18.2095 10.018
18.2247 10.095
18.2399 9.792
18.2550 9.596
18.2702 9.637
18.2854 9.712
18.3006 9.706
18.3157 9.657
18.3309 9.631
18.3461 9.726
18.3613 9.916
18.3764 9.845
18.3916 9.775
18.4068 9.855
18.4220 9.894
18.4371 9.877
18.4523 9.798
18.4675 9.692
18.4827 9.945
18.4978 9.886
18.5130 9.654
18.5282 9.606
18.5434 9.813
18.5585 9.817
18.5737 9.879
18.5889 9.953
18.6041 9.900
18.6192 9.874
18.6344 9.878
18.6496 9.725
18.6648 9.751
18.6799 9.743
18.6951 9.798
18.7103 9.712
18.7255 9.887
18.7406 9.989
18.7558 9.895
18.7710 9.788
18.7862 9.888
18.8013 9.830
18.8165 9.771
18.8317 9.728
18.8469 9.659
18.8620 9.960
18.8772 10.140
18.8924 9.879
18.9076 9.815
18.9227 9.814
18.9379 9.765
18.9531 9.769
18.9683 9.854
18.9834 9.965
18.9986 9.912
19.0138 10.052
19.0290 10.224
19.0441 10.201
19.0593 10.225
19.0745 10.095
19.0897 10.212
19.1048 10.439
19.1200 10.528
19.1352 10.498
19.1504 10.305
19.1655 10.213
19.1807 10.309
19.1959 10.515
19.2111 10.582
19.2262 10.862
19.2414 10.901
19.2566 10.758
19.2718 10.916
19.2869 10.967
19.3021 10.696
19.3173 10.858
19.3325 11.045
19.3476 11.182
19.3628 11.145
19.3780 11.084
19.3932 11.163
19.4083 10.987
19.4235 10.954
19.4387 11.124
19.4539 11.315
19.4690 11.370
19.4842 11.554
19.4994 11.605
19.5146 11.375
19.5297 11.498
19.5449 11.502
19.5601 11.610
19.5753 11.370
19.5904 11.378
19.6056 11.673
19.6208 11.620
19.6360 11.573
19.6511 11.495
19.6663 11.536
19.6815 11.526
19.6967 11.606
19.7118 11.746
19.7270 11.718
19.7422 11.621
19.7574 11.751
19.7725 11.873
19.7877 11.806
19.8029 11.952
19.8180 12.041
19.8332 12.021
19.8484 12.049
19.8636 12.273
19.8787 12.418
19.8939 12.798
19.9091 13.021
19.9243 12.952
19.9394 13.243
19.9546 13.778
19.9698 14.278
19.9850 14.255
20.0001 14.160
20.0153 14.093
20.0305 14.157
20.0457 14.099
20.0608 13.876
20.0760 13.838
20.0912 13.890
20.1064 13.533
20.1215 13.398
20.1367 13.457
20.1519 13.403
20.1671 13.305
20.1822 13.018
20.1974 13.177
20.2126 13.267
20.2278 12.802
20.2429 12.709
20.2581 12.605
20.2733 12.194
20.2885 12.203
20.3036 11.771
20.3188 11.841
20.3340 11.920
20.3492 11.691
20.3643 11.642
20.3795 11.642
20.3947 11.213
20.4099 10.857
20.4250 10.695
20.4402 10.808
20.4554 10.789
20.4706 10.768
20.4857 10.927
20.5009 10.907
20.5161 10.822
20.5313 10.716
20.5464 10.746
20.5616 10.632
20.5768 10.601
20.5920 10.646
20.6071 10.667
20.6223 10.988
20.6375 10.826
20.6527 10.859
20.6678 11.101
20.6830 10.515
20.6982 10.636
20.7134 10.648
20.7285 10.470
20.7437 10.626
20.7589 10.572
20.7741 10.721
20.7892 10.664
20.8044 10.472
20.8196 10.357
20.8348 10.188
20.8499 10.134
20.8651 10.139
20.8803 10.215
20.8955 10.151
20.9106 10.319
20.9258 10.190
20.9410 10.328
20.9562 9.947
20.9713 10.081
20.9865 10.317
21.0017 10.327
21.0169 9.930
21.0320 9.862
21.0472 10.054
21.0624 10.087
21.0776 10.215
21.0927 10.258
21.1079 9.714
21.1231 10.103
21.1383 9.874
21.1534 9.881
21.1686 9.853
21.1838 9.896
21.1990 9.939
21.2141 9.853
21.2293 9.464
21.2445 9.550
21.2597 9.726
21.2748 9.952
21.2900 9.561
21.3052 9.523
21.3204 9.283
21.3355 9.354
21.3507 9.586
21.3659 9.542
21.3811 9.344
21.3962 9.601
21.4114 9.586
21.4266 9.607
21.4418 9.381
21.4569 9.544
21.4721 9.357
21.4873 9.549
21.5025 9.317
21.5176 9.235
21.5328 9.398
21.5480 9.193
21.5632 9.021
21.5783 9.358
21.5935 9.109
21.6087 9.044
21.6239 9.057
21.6390 9.139
21.6542 9.087
21.6694 9.196
21.6846 9.118
21.6997 8.976
21.7149 8.988
21.7301 8.995
21.7453 9.180
21.7604 9.013
21.7756 8.918
21.7908 8.921
21.8060 8.924
21.8211 8.978
21.8363 8.942
21.8515 9.210
21.8667 9.332
21.8818 9.192
21.8970 9.094
21.9122 8.910
21.9274 8.964
21.9425 9.133
21.9577 9.083
21.9729 8.822
21.9881 8.524
22.0032 8.811
22.0184 8.989
22.0336 8.916
22.0488 8.772
22.0639 8.745
22.0791 8.555
22.0943 8.532
22.1095 8.695
22.1246 8.679
22.1398 8.754
22.1550 8.582
22.1702 8.659
22.1853 8.938
22.2005 8.839
22.2157 8.684
22.2309 8.773
22.2460 8.619
22.2612 8.643
22.2764 8.568
22.2916 8.636
22.3067 8.800
22.3219 8.606
22.3371 8.642
22.3523 8.466
22.3674 8.582
22.3826 8.564
22.3978 8.665
22.4130 8.746
22.4281 8.499
22.4433 8.466
22.4585 8.616
22.4737 8.539
22.4888 8.511
22.5040 8.157
22.5192 8.389
22.5344 8.351
22.5495 8.418
22.5647 8.386
22.5799 8.526
22.5951 8.829
22.6102 8.435
22.6254 8.603
22.6406 8.489
22.6558 8.200
22.6709 8.595
22.6861 8.512
22.7013 8.286
22.7165 8.083
22.7316 6.619
