'Id: "" Comment: "" Operator: "Lab Manager" Anode: "Mo" Scantype: "Still (Eiger2R_500K (1D mode))" TimePerStep: "300" X: "11.8" Y: "9.4" Z: "11.284" 
7.2532 18.982
7.2684 18.949
7.2836 19.035
7.2987 19.258
7.3139 19.174
7.3291 19.107
7.3443 19.125
7.3594 19.440
7.3746 19.829
7.3898 19.353
7.4050 19.556
7.4201 19.189
7.4353 19.454
7.4505 19.687
7.4657 19.623
7.4808 19.451
7.4960 19.590
7.5112 19.685
7.5264 19.778
7.5415 19.497
7.5567 20.024
7.5719 19.778
7.5871 19.667
7.6022 19.597
7.6174 19.764
7.6326 20.023
7.6478 20.156
7.6629 19.921
7.6781 20.044
7.6933 20.281
7.7085 20.334
7.7236 20.368
7.7388 20.190
7.7540 20.111
7.7692 20.268
7.7843 20.495
7.7995 20.909
7.8147 20.959
7.8299 20.847
7.8450 21.024
7.8602 21.038
7.8754 20.803
7.8905 20.933
7.9057 20.934
7.9209 20.843
7.9361 20.891
7.9512 20.830
7.9664 21.027
7.9816 21.007
7.9968 21.112
8.0119 20.883
8.0271 21.284
8.0423 21.306
8.0575 21.473
8.0726 21.269
8.0878 21.366
8.1030 21.578
8.1182 21.689
8.1333 21.434
8.1485 21.398
8.1637 21.366
8.1789 21.507
8.1940 21.695
8.2092 21.238
8.2244 21.610
8.2396 21.616
8.2547 21.649
8.2699 21.640
8.2851 21.864
8.3003 22.039
8.3154 21.876
8.3306 21.806
8.3458 21.740
8.3610 22.130
8.3761 22.065
8.3913 21.711
8.4065 21.495
8.4217 22.307
8.4368 22.040
8.4520 22.240
8.4672 22.120
8.4824 21.622
8.4975 21.983
8.5127 22.516
8.5279 22.795
8.5431 21.988
8.5582 22.280
8.5734 22.375
8.5886 22.524
8.6038 22.471
8.6189 22.251
8.6341 22.237
8.6493 22.340
8.6645 22.156
8.6796 22.447
8.6948 22.229
8.7100 22.377
8.7252 22.199
8.7403 22.206
8.7555 22.392
8.7707 21.846
8.7859 22.969
8.8010 22.446
8.8162 22.134
8.8314 22.707
8.8466 22.190
8.8617 22.735
8.8769 22.820
8.8921 22.515
8.9073 22.994
8.9224 22.578
8.9376 22.761
8.9528 22.643
8.9680 22.796
8.9831 22.737
8.9983 22.919
9.0135 23.136
9.0287 23.093
9.0438 22.903
9.0590 22.702
9.0742 23.040
9.0894 22.674
9.1045 22.860
9.1197 22.615
9.1349 22.987
9.1501 23.164
9.1652 23.014
9.1804 22.875
9.1956 23.297
9.2108 23.503
9.2259 23.314
9.2411 22.565
9.2563 22.810
9.2715 23.131
9.2866 23.017
9.3018 22.753
9.3170 22.861
9.3322 22.903
9.3473 23.341
9.3625 23.044
9.3777 23.121
9.3929 23.080
9.4080 23.134
9.4232 23.219
9.4384 23.278
9.4536 23.181
9.4687 23.284
9.4839 22.996
9.4991 22.944
9.5143 23.228
9.5294 23.428
9.5446 23.385
9.5598 23.458
9.5750 23.608
9.5901 23.133
9.6053 23.403
9.6205 23.789
9.6357 23.740
9.6508 23.389
9.6660 23.395
9.6812 23.771
9.6964 23.791
9.7115 24.010
9.7267 24.126
9.7419 23.813
9.7571 23.609
9.7722 23.806
9.7874 23.977
9.8026 23.706
9.8178 23.401
9.8329 23.486
9.8481 23.555
9.8633 23.840
9.8785 24.134
9.8936 23.822
9.9088 23.695
9.9240 24.023
9.9392 23.946
9.9543 24.179
9.9695 23.913
9.9847 23.590
9.9999 23.772
10.0150 23.818
10.0302 23.418
10.0454 23.346
10.0606 23.477
10.0757 23.314
10.0909 23.225
10.1061 23.209
10.1213 23.101
10.1364 23.046
10.1516 23.176
10.1668 23.327
10.1820 23.531
10.1971 23.023
10.2123 22.855
10.2275 22.835
10.2427 22.888
10.2578 23.256
10.2730 23.401
10.2882 23.144
10.3034 22.970
10.3185 22.938
10.3337 23.138
10.3489 23.192
10.3641 23.145
10.3792 22.753
10.3944 22.960
10.4096 22.870
10.4248 22.925
10.4399 23.142
10.4551 23.109
10.4703 23.081
10.4855 22.825
10.5006 22.793
10.5158 22.773
10.5310 22.722
10.5462 22.964
10.5613 22.635
10.5765 22.507
10.5917 22.610
10.6069 23.055
10.6220 23.235
10.6372 22.839
10.6524 22.474
10.6676 22.477
10.6827 22.457
10.6979 22.550
10.7131 22.676
10.7283 22.533
10.7434 22.630
10.7586 22.701
10.7738 22.396
10.7890 22.487
10.8041 22.269
10.8193 22.371
10.8345 22.163
10.8497 22.051
10.8648 21.926
10.8800 22.307
10.8952 21.995
10.9104 21.619
10.9255 22.128
10.9407 22.185
10.9559 22.452
10.9711 21.948
10.9862 21.915
11.0014 21.994
11.0166 22.011
11.0318 22.286
11.0469 22.069
11.0621 21.849
11.0773 22.118
11.0925 22.191
11.1076 22.041
11.1228 22.042
11.1380 21.752
11.1532 21.756
11.1683 22.030
11.1835 21.878
11.1987 21.565
11.2139 21.957
11.2290 22.102
11.2442 21.900
11.2594 21.545
11.2746 21.691
11.2897 22.342
11.3049 21.717
11.3201 21.790
11.3353 21.543
11.3504 21.490
11.3656 21.584
11.3808 21.377
11.3960 21.362
11.4111 21.410
11.4263 21.397
11.4415 21.297
11.4567 21.556
11.4718 21.225
11.4870 21.669
11.5022 21.405
11.5174 21.276
11.5325 21.028
11.5477 21.083
11.5629 21.218
11.5781 21.147
11.5932 20.971
11.6084 20.739
11.6236 21.057
11.6388 20.935
11.6539 20.698
11.6691 20.517
11.6843 20.393
11.6995 20.553
11.7146 20.823
11.7298 20.377
11.7450 20.466
11.7602 20.621
11.7753 20.558
11.7905 20.197
11.8057 19.986
11.8209 20.068
11.8360 20.248
11.8512 20.196
11.8664 19.871
11.8816 20.032
11.8967 19.682
11.9119 19.537
11.9271 19.592
11.9423 19.568
11.9574 19.610
11.9726 19.548
11.9878 19.331
12.0030 18.969
12.0181 19.334
12.0333 19.239
12.0485 19.010
12.0637 19.083
12.0788 19.050
12.0940 18.773
12.1092 18.501
12.1244 18.657
12.1395 18.414
12.1547 18.421
12.1699 18.498
12.1851 18.295
12.2002 18.544
12.2154 18.486
12.2306 18.360
12.2458 18.009
12.2609 18.033
12.2761 18.128
12.2913 17.609
12.3065 17.865
12.3216 18.071
12.3368 17.711
12.3520 17.707
12.3672 17.972
12.3823 17.564
12.3975 17.127
12.4127 17.224
12.4279 16.886
12.4430 16.754
12.4582 17.044
12.4734 16.698
12.4886 16.431
12.5037 16.633
12.5189 16.657
12.5341 16.456
12.5493 16.307
12.5644 16.056
12.5796 16.261
12.5948 16.506
12.6100 16.094
12.6251 15.898
12.6403 15.720
12.6555 15.440
12.6707 15.559
12.6858 15.675
12.7010 15.602
12.7162 15.570
12.7314 15.558
12.7465 15.523
12.7617 15.350
12.7769 15.248
12.7921 15.165
12.8072 15.301
12.8224 15.129
12.8376 15.093
12.8528 15.033
12.8679 14.749
12.8831 14.659
12.8983 14.630
12.9135 14.533
12.9286 14.354
12.9438 14.419
12.9590 14.473
12.9742 14.429
12.9893 14.472
13.0045 14.400
13.0197 14.321
13.0349 14.292
13.0500 13.948
13.0652 14.039
13.0804 14.243
13.0956 13.911
13.1107 13.687
13.1259 13.734
13.1411 13.691
13.1563 13.733
13.1714 13.817
13.1866 13.643
13.2018 13.712
13.2170 13.502
13.2321 13.346
13.2473 13.518
13.2625 13.468
13.2777 13.505
13.2928 13.576
13.3080 13.243
13.3232 13.060
13.3384 13.185
13.3535 13.077
13.3687 13.418
13.3839 13.377
13.3991 13.124
13.4142 12.964
13.4294 12.792
13.4446 12.698
13.4598 12.567
13.4749 12.867
13.4901 12.799
13.5053 12.602
13.5205 12.567
13.5356 12.574
13.5508 12.351
13.5660 12.339
13.5812 12.316
13.5963 12.480
13.6115 12.461
13.6267 12.218
13.6419 12.323
13.6570 12.410
13.6722 12.303
13.6874 12.094
13.7026 11.962
13.7177 12.118
13.7329 11.985
13.7481 12.091
13.7633 12.042
13.7784 12.264
13.7936 12.315
13.8088 12.513
13.8239 12.336
13.8391 12.155
13.8543 12.456
13.8695 12.601
13.8846 12.391
13.8998 12.308
13.9150 12.187
13.9302 11.936
13.9453 11.980
13.9605 11.783
13.9757 11.691
13.9909 11.642
14.0060 11.472
14.0212 11.771
14.0364 11.552
14.0516 11.433
14.0667 11.499
14.0819 11.508
14.0971 11.532
14.1123 11.545
14.1274 11.476
14.1426 11.416
14.1578 11.317
14.1730 11.213
14.1881 11.156
14.2033 11.356
14.2185 11.345
14.2337 11.223
14.2488 11.591
14.2640 11.302
14.2792 11.294
14.2944 11.494
14.3095 11.809
14.3247 11.773
14.3399 11.797
14.3551 11.967
14.3702 12.174
14.3854 12.572
14.4006 12.605
14.4158 12.694
14.4309 12.541
14.4461 12.579
14.4613 12.658
14.4765 12.586
14.4916 12.258
14.5068 12.129
14.5220 12.136
14.5372 11.952
14.5523 11.746
14.5675 11.639
14.5827 11.463
14.5979 11.047
14.6130 11.201
14.6282 11.208
14.6434 11.113
14.6586 11.213
14.6737 11.250
14.6889 10.973
14.7041 10.856
14.7193 11.226
14.7344 10.953
14.7496 11.063
14.7648 11.213
14.7800 11.132
14.7951 10.638
14.8103 10.797
14.8255 10.882
14.8407 10.793
14.8558 10.997
14.8710 10.862
14.8862 11.049
14.9014 10.462
14.9165 10.841
14.9317 10.794
14.9469 10.673
14.9621 10.374
14.9772 10.333
14.9924 10.558
15.0076 10.554
15.0228 10.710
15.0379 10.666
15.0531 10.869
15.0683 10.197
15.0835 10.602
15.0986 10.507
15.1138 10.097
15.1290 10.353
15.1442 10.167
15.1593 10.400
15.1745 10.406
15.1897 10.447
15.2049 10.224
15.2200 10.546
15.2352 10.407
15.2504 10.491
15.2656 10.248
15.2807 10.169
15.2959 10.153
15.3111 10.326
15.3263 10.338
15.3414 10.457
15.3566 10.049
15.3718 10.175
15.3870 10.409
15.4021 10.170
15.4173 10.290
15.4325 10.065
15.4477 10.283
15.4628 10.487
15.4780 10.446
15.4932 10.475
15.5084 10.270
15.5235 10.294
15.5387 10.024
15.5539 10.569
15.5691 10.433
15.5842 10.065
15.5994 10.033
15.6146 10.006
15.6298 10.050
15.6449 10.035
15.6601 10.271
15.6753 9.985
15.6905 10.160
15.7056 10.016
15.7208 10.040
15.7360 9.945
15.7512 10.100
15.7663 10.016
15.7815 10.086
15.7967 10.033
15.8119 9.896
15.8270 9.813
15.8422 10.042
15.8574 9.837
15.8726 9.946
15.8877 9.900
15.9029 9.814
15.9181 9.936
15.9333 9.715
15.9484 9.704
15.9636 9.838
15.9788 9.875
15.9940 9.690
16.0091 9.723
16.0243 9.830
16.0395 9.961
16.0547 9.835
16.0698 9.940
16.0850 9.693
16.1002 9.864
16.1154 9.430
16.1305 9.442
16.1457 9.561
16.1609 9.823
16.1761 9.524
16.1912 9.578
16.2064 9.575
16.2216 9.546
16.2368 9.823
16.2519 10.018
16.2671 9.910
16.2823 9.908
16.2975 10.104
16.3126 9.867
16.3278 9.803
16.3430 9.927
16.3582 10.035
16.3733 10.089
16.3885 10.195
16.4037 9.889
16.4189 9.967
16.4340 9.973
16.4492 9.848
16.4644 9.977
16.4796 10.137
16.4947 9.959
16.5099 10.084
16.5251 10.045
16.5403 9.972
16.5554 9.865
16.5706 9.930
16.5858 9.997
16.6010 9.767
16.6161 9.837
16.6313 9.872
16.6465 10.039
16.6617 10.032
16.6768 10.063
16.6920 10.187
16.7072 10.064
16.7224 9.834
16.7375 9.913
16.7527 10.164
16.7679 10.268
16.7831 10.340
16.7982 10.068
16.8134 10.177
16.8286 10.147
16.8438 10.032
16.8589 9.952
16.8741 9.834
16.8893 9.687
16.9045 9.679
16.9196 9.802
16.9348 9.882
16.9500 10.017
16.9652 9.986
16.9803 10.064
16.9955 10.161
17.0107 10.160
17.0259 10.242
17.0410 10.209
17.0562 10.169
17.0714 10.376
17.0866 10.791
17.1017 11.010
17.1169 11.251
17.1321 11.329
17.1473 11.514
17.1624 12.041
17.1776 12.626
17.1928 13.287
17.2080 14.154
17.2231 15.223
17.2383 16.258
17.2535 17.612
17.2687 18.644
17.2838 18.697
17.2990 18.093
17.3142 17.191
17.3294 16.589
17.3445 16.190
17.3597 16.049
17.3749 15.886
17.3901 15.182
17.4052 14.210
17.4204 13.169
17.4356 12.212
17.4508 11.659
17.4659 11.470
17.4811 11.366
17.4963 11.469
17.5115 11.032
17.5266 10.452
17.5418 10.431
17.5570 10.334
17.5722 10.286
17.5873 10.255
17.6025 10.336
17.6177 10.345
17.6329 10.269
17.6480 10.384
17.6632 10.369
17.6784 10.335
17.6936 10.436
17.7087 10.389
17.7239 10.434
17.7391 10.661
17.7543 10.564
17.7694 10.330
17.7846 10.455
17.7998 10.641
17.8150 10.896
17.8301 11.065
17.8453 11.157
17.8605 11.243
17.8757 11.113
17.8908 11.179
17.9060 11.136
17.9212 10.937
17.9364 10.843
17.9515 10.614
17.9667 10.510
17.9819 10.618
17.9971 10.543
18.0122 10.605
18.0274 10.528
18.0426 10.397
18.0578 10.254
18.0729 10.121
18.0881 10.196
18.1033 10.081
18.1185 10.138
18.1336 9.993
18.1488 10.098
18.1640 10.120
18.1792 10.014
18.1943 9.976
18.2095 9.893
18.2247 9.909
18.2399 9.782
18.2550 9.686
18.2702 9.877
18.2854 10.079
18.3006 10.014
18.3157 10.079
18.3309 10.207
18.3461 9.994
18.3613 9.748
18.3764 9.973
18.3916 9.831
18.4068 9.688
18.4220 9.860
18.4371 9.724
18.4523 9.642
18.4675 9.823
18.4827 9.899
18.4978 9.740
18.5130 9.882
18.5282 9.973
18.5434 9.775
18.5585 9.866
18.5737 9.956
18.5889 9.845
18.6041 9.741
18.6192 9.873
18.6344 9.846
18.6496 9.937
18.6648 9.769
18.6799 9.596
18.6951 9.528
18.7103 9.733
18.7255 9.899
18.7406 9.775
18.7558 9.881
18.7710 9.897
18.7862 9.873
18.8013 9.800
18.8165 9.746
18.8317 9.713
18.8469 10.042
18.8620 10.064
18.8772 9.875
18.8924 9.786
18.9076 9.689
18.9227 9.793
18.9379 9.768
18.9531 9.940
18.9683 10.171
18.9834 10.358
18.9986 10.174
19.0138 10.146
19.0290 10.253
19.0441 10.293
19.0593 10.414
19.0745 10.317
19.0897 10.196
19.1048 10.360
19.1200 10.360
19.1352 10.446
19.1504 10.641
19.1655 10.751
19.1807 10.849
19.1959 10.774
19.2111 10.737
19.2262 10.632
19.2414 10.751
19.2566 10.885
19.2718 10.775
19.2869 10.911
19.3021 10.962
19.3173 11.127
19.3325 11.246
19.3476 11.130
19.3628 11.062
19.3780 11.156
19.3932 11.234
19.4083 11.333
19.4235 11.371
19.4387 11.465
19.4539 11.408
19.4690 11.331
19.4842 11.440
19.4994 11.535
19.5146 11.454
19.5297 11.543
19.5449 11.550
19.5601 11.435
19.5753 11.578
19.5904 11.579
19.6056 11.546
19.6208 11.674
19.6360 11.609
19.6511 11.335
19.6663 11.320
19.6815 11.335
19.6967 11.580
19.7118 11.985
19.7270 11.909
19.7422 11.773
19.7574 11.733
19.7725 11.710
19.7877 11.892
19.8029 11.849
19.8180 11.975
19.8332 12.189
19.8484 12.243
19.8636 12.283
19.8787 12.592
19.8939 13.039
19.9091 13.427
19.9243 13.902
19.9394 14.103
19.9546 14.219
19.9698 14.366
19.9850 14.590
20.0001 14.685
20.0153 14.417
20.0305 14.173
20.0457 14.037
20.0608 13.746
20.0760 13.750
20.0912 14.009
20.1064 13.875
20.1215 13.466
20.1367 13.149
20.1519 13.065
20.1671 13.275
20.1822 13.170
20.1974 12.672
20.2126 12.669
20.2278 12.793
20.2429 12.296
20.2581 12.043
20.2733 11.766
20.2885 11.751
20.3036 11.651
20.3188 11.648
20.3340 11.428
20.3492 11.514
20.3643 11.630
20.3795 11.438
20.3947 11.294
20.4099 11.078
20.4250 10.854
20.4402 10.519
20.4554 10.788
20.4706 11.233
20.4857 10.963
20.5009 10.871
20.5161 10.830
20.5313 10.834
20.5464 10.939
20.5616 10.854
20.5768 10.424
20.5920 10.337
20.6071 10.285
20.6223 10.592
20.6375 10.316
20.6527 10.408
20.6678 10.532
20.6830 10.441
20.6982 10.609
20.7134 10.308
20.7285 10.403
20.7437 10.483
20.7589 10.493
20.7741 10.365
20.7892 10.212
20.8044 10.638
20.8196 10.478
20.8348 10.530
20.8499 10.244
20.8651 10.257
20.8803 10.461
20.8955 10.506
20.9106 10.416
20.9258 10.452
20.9410 10.513
20.9562 10.011
20.9713 10.359
20.9865 10.568
21.0017 10.602
21.0169 10.186
21.0320 10.497
21.0472 10.019
21.0624 10.334
21.0776 10.214
21.0927 10.098
21.1079 9.910
21.1231 10.064
21.1383 9.851
21.1534 10.250
21.1686 9.723
21.1838 10.068
21.1990 10.162
21.2141 9.749
21.2293 9.839
21.2445 10.178
21.2597 9.839
21.2748 9.931
21.2900 9.527
21.3052 9.744
21.3204 9.194
21.3355 9.817
21.3507 9.641
21.3659 9.613
21.3811 9.514
21.3962 9.785
21.4114 9.981
21.4266 9.325
21.4418 9.440
21.4569 9.202
21.4721 9.526
21.4873 9.336
21.5025 9.323
21.5176 9.100
21.5328 9.161
21.5480 9.058
21.5632 9.432
21.5783 9.451
21.5935 9.200
21.6087 9.349
21.6239 8.969
21.6390 8.884
21.6542 9.001
21.6694 9.190
21.6846 9.259
21.6997 9.022
21.7149 9.131
21.7301 9.296
21.7453 9.232
21.7604 9.324
21.7756 9.072
21.7908 9.021
21.8060 8.929
21.8211 8.866
21.8363 9.021
21.8515 8.822
21.8667 8.943
21.8818 9.138
21.8970 9.036
21.9122 9.034
21.9274 9.113
21.9425 9.048
21.9577 8.870
21.9729 8.904
21.9881 8.797
22.0032 8.878
22.0184 8.935
22.0336 9.017
22.0488 9.016
22.0639 8.945
22.0791 8.736
22.0943 8.637
22.1095 8.991
22.1246 8.936
22.1398 8.788
22.1550 8.595
22.1702 8.529
22.1853 8.655
22.2005 8.414
22.2157 8.559
22.2309 8.710
22.2460 8.710
22.2612 8.538
22.2764 8.519
22.2916 8.609
22.3067 8.771
22.3219 8.631
22.3371 8.621
22.3523 8.504
22.3674 8.345
22.3826 8.520
22.3978 8.702
22.4130 8.576
22.4281 8.405
22.4433 8.576
22.4585 8.729
22.4737 8.746
22.4888 8.533
22.5040 8.620
22.5192 8.807
22.5344 8.321
22.5495 8.211
22.5647 8.791
22.5799 8.187
22.5951 8.423
22.6102 8.507
22.6254 8.726
22.6406 8.743
22.6558 8.580
22.6709 8.138
22.6861 8.441
22.7013 8.366
22.7165 8.157
22.7316 6.257
