'Id: "" Comment: "" Operator: "Lab Manager" Anode: "Mo" Scantype: "Still (Eiger2R_500K (1D mode))" TimePerStep: "300" X: "11.8" Y: "9.4" Z: "11.284" 
7.2532 18.737
7.2684 18.854
7.2836 18.854
7.2987 19.355
7.3139 19.299
7.3291 19.148
7.3443 19.484
7.3594 19.328
7.3746 19.649
7.3898 19.550
7.4050 19.401
7.4201 19.343
7.4353 18.952
7.4505 19.227
7.4657 19.576
7.4808 19.826
7.4960 19.803
7.5112 20.117
7.5264 20.048
7.5415 19.826
7.5567 19.714
7.5719 19.976
7.5871 19.770
7.6022 20.291
7.6174 20.553
7.6326 20.300
7.6478 20.373
7.6629 20.041
7.6781 20.028
7.6933 20.457
7.7085 20.386
7.7236 20.371
7.7388 20.433
7.7540 20.208
7.7692 20.174
7.7843 20.352
7.7995 20.519
7.8147 20.682
7.8299 20.794
7.8450 20.676
7.8602 20.497
7.8754 21.009
7.8905 21.288
7.9057 21.063
7.9209 21.061
7.9361 20.998
7.9512 20.938
7.9664 21.218
7.9816 21.083
7.9968 21.126
8.0119 21.243
8.0271 21.414
8.0423 21.465
8.0575 21.383
8.0726 21.409
8.0878 21.794
8.1030 22.011
8.1182 21.968
8.1333 21.831
8.1485 22.036
8.1637 21.707
8.1789 21.713
8.1940 21.593
8.2092 21.734
8.2244 21.416
8.2396 21.806
8.2547 21.868
8.2699 21.604
8.2851 21.961
8.3003 21.800
8.3154 21.965
8.3306 21.472
8.3458 21.963
8.3610 22.062
8.3761 22.002
8.3913 21.804
8.4065 21.888
8.4217 21.787
8.4368 22.158
8.4520 22.081
8.4672 21.797
8.4824 22.391
8.4975 22.133
8.5127 22.364
8.5279 22.114
8.5431 22.168
8.5582 22.378
8.5734 21.837
8.5886 22.203
8.6038 22.296
8.6189 22.298
8.6341 22.916
8.6493 22.914
8.6645 22.153
8.6796 22.488
8.6948 22.508
8.7100 22.162
8.7252 22.512
8.7403 22.126
8.7555 22.469
8.7707 22.043
8.7859 22.526
8.8010 22.463
8.8162 22.579
8.8314 22.611
8.8466 22.554
8.8617 22.410
8.8769 22.568
8.8921 23.086
8.9073 22.621
8.9224 23.031
8.9376 22.762
8.9528 22.591
8.9680 22.576
8.9831 22.964
8.9983 22.914
9.0135 22.571
9.0287 22.679
9.0438 22.809
9.0590 22.722
9.0742 22.622
9.0894 22.775
9.1045 22.886
9.1197 22.680
9.1349 22.592
9.1501 22.795
9.1652 22.679
9.1804 22.372
9.1956 22.500
9.2108 22.671
9.2259 22.787
9.2411 23.116
9.2563 23.294
9.2715 23.009
9.2866 22.771
9.3018 22.705
9.3170 23.216
9.3322 23.007
9.3473 22.947
9.3625 22.896
9.3777 22.878
9.3929 22.717
9.4080 22.854
9.4232 23.359
9.4384 23.320
9.4536 23.403
9.4687 23.331
9.4839 23.484
9.4991 23.305
9.5143 23.016
9.5294 23.155
9.5446 23.385
9.5598 23.257
9.5750 23.350
9.5901 23.208
9.6053 23.344
9.6205 23.403
9.6357 23.636
9.6508 23.730
9.6660 23.480
9.6812 23.713
9.6964 23.981
9.7115 24.148
9.7267 24.197
9.7419 24.078
9.7571 23.998
9.7722 24.247
9.7874 24.420
9.8026 24.187
9.8178 24.224
9.8329 24.161
9.8481 23.918
9.8633 23.674
9.8785 23.735
9.8936 23.980
9.9088 23.971
9.9240 23.879
9.9392 23.725
9.9543 23.817
9.9695 23.891
9.9847 23.857
9.9999 23.459
10.0150 23.289
10.0302 23.244
10.0454 23.428
10.0606 23.110
10.0757 22.764
10.0909 23.020
10.1061 23.109
10.1213 23.329
10.1364 23.268
10.1516 23.012
10.1668 23.298
10.1820 23.396
10.1971 23.125
10.2123 23.183
10.2275 23.585
10.2427 23.587
10.2578 23.256
10.2730 23.137
10.2882 23.122
10.3034 22.932
10.3185 23.058
10.3337 23.394
10.3489 23.275
10.3641 23.045
10.3792 23.056
10.3944 22.986
10.4096 22.759
10.4248 22.754
10.4399 22.750
10.4551 23.342
10.4703 23.077
10.4855 22.760
10.5006 22.583
10.5158 22.697
10.5310 22.433
10.5462 22.931
10.5613 22.920
10.5765 22.374
10.5917 22.434
10.6069 22.509
10.6220 22.170
10.6372 22.228
10.6524 22.364
10.6676 22.605
10.6827 22.385
10.6979 22.419
10.7131 22.474
10.7283 22.332
10.7434 22.469
10.7586 22.568
10.7738 22.530
10.7890 22.899
10.8041 22.821
10.8193 22.450
10.8345 22.188
10.8497 22.092
10.8648 22.285
10.8800 22.362
10.8952 22.274
10.9104 22.478
10.9255 22.501
10.9407 22.025
10.9559 21.812
10.9711 22.204
10.9862 22.216
11.0014 22.088
11.0166 22.259
11.0318 22.167
11.0469 22.062
11.0621 21.908
11.0773 21.915
11.0925 22.124
11.1076 21.969
11.1228 22.213
11.1380 21.839
11.1532 21.818
11.1683 21.515
11.1835 21.848
11.1987 21.903
11.2139 21.419
11.2290 21.889
11.2442 22.087
11.2594 21.714
11.2746 21.712
11.2897 21.380
11.3049 21.298
11.3201 21.411
11.3353 21.698
11.3504 21.331
11.3656 21.242
11.3808 21.543
11.3960 21.540
11.4111 21.237
11.4263 21.304
11.4415 21.454
11.4567 21.625
11.4718 21.958
11.4870 21.458
11.5022 21.376
11.5174 21.645
11.5325 21.634
11.5477 21.098
11.5629 21.016
11.5781 21.058
11.5932 21.219
11.6084 21.241
11.6236 20.962
11.6388 20.823
11.6539 20.762
11.6691 20.871
11.6843 20.821
11.6995 20.681
11.7146 20.527
11.7298 20.381
11.7450 20.571
11.7602 20.440
11.7753 20.340
11.7905 20.643
11.8057 20.305
11.8209 20.179
11.8360 20.055
11.8512 20.223
11.8664 20.657
11.8816 19.946
11.8967 19.769
11.9119 19.897
11.9271 19.839
11.9423 19.927
11.9574 19.654
11.9726 19.586
11.9878 19.726
12.0030 19.705
12.0181 19.675
12.0333 19.115
12.0485 19.237
12.0637 19.187
12.0788 18.919
12.0940 18.707
12.1092 18.695
12.1244 18.678
12.1395 18.773
12.1547 18.702
12.1699 18.270
12.1851 18.393
12.2002 18.136
12.2154 18.353
12.2306 18.057
12.2458 18.029
12.2609 18.231
12.2761 18.118
12.2913 18.008
12.3065 17.976
12.3216 17.552
12.3368 17.186
12.3520 17.238
12.3672 17.299
12.3823 17.236
12.3975 17.253
12.4127 17.185
12.4279 17.147
12.4430 17.107
12.4582 17.145
12.4734 16.783
12.4886 16.725
12.5037 16.778
12.5189 16.664
12.5341 16.458
12.5493 16.287
12.5644 16.378
12.5796 16.435
12.5948 16.181
12.6100 16.050
12.6251 16.127
12.6403 16.105
12.6555 15.997
12.6707 15.767
12.6858 15.651
12.7010 15.791
12.7162 15.656
12.7314 15.559
12.7465 15.357
12.7617 15.021
12.7769 15.219
12.7921 15.405
12.8072 15.402
12.8224 14.970
12.8376 14.897
12.8528 15.219
12.8679 14.968
12.8831 14.692
12.8983 14.841
12.9135 14.834
12.9286 14.857
12.9438 14.730
12.9590 14.718
12.9742 14.840
12.9893 14.734
13.0045 14.643
13.0197 14.485
13.0349 14.177
13.0500 14.094
13.0652 14.188
13.0804 14.142
13.0956 13.947
13.1107 13.725
13.1259 13.863
13.1411 13.986
13.1563 13.500
13.1714 13.335
13.1866 13.702
13.2018 13.494
13.2170 13.267
13.2321 13.679
13.2473 13.535
13.2625 13.172
13.2777 13.257
13.2928 13.368
13.3080 13.376
13.3232 13.391
13.3384 13.340
13.3535 13.131
13.3687 13.316
13.3839 13.177
13.3991 13.026
13.4142 13.002
13.4294 12.972
13.4446 13.062
13.4598 13.160
13.4749 13.047
13.4901 12.749
13.5053 12.714
13.5205 12.527
13.5356 12.444
13.5508 12.650
13.5660 12.550
13.5812 12.518
13.5963 12.498
13.6115 12.397
13.6267 12.234
13.6419 11.953
13.6570 12.043
13.6722 12.219
13.6874 12.279
13.7026 12.127
13.7177 12.006
13.7329 11.988
13.7481 11.849
13.7633 11.963
13.7784 12.119
13.7936 12.217
13.8088 12.423
13.8239 12.433
13.8391 12.389
13.8543 12.407
13.8695 12.353
13.8846 12.175
13.8998 12.250
13.9150 12.004
13.9302 11.673
13.9453 11.668
13.9605 12.122
13.9757 11.993
13.9909 12.048
14.0060 11.527
14.0212 11.443
14.0364 11.563
14.0516 11.561
14.0667 11.716
14.0819 11.485
14.0971 11.485
14.1123 11.170
14.1274 11.203
14.1426 11.356
14.1578 11.285
14.1730 11.427
14.1881 11.313
14.2033 11.447
14.2185 11.287
14.2337 11.510
14.2488 11.551
14.2640 11.603
14.2792 11.533
14.2944 11.678
14.3095 11.693
14.3247 11.928
14.3399 12.056
14.3551 12.015
14.3702 12.414
14.3854 12.566
14.4006 12.980
14.4158 12.957
14.4309 12.748
14.4461 12.774
14.4613 13.033
14.4765 12.679
14.4916 12.133
14.5068 12.098
14.5220 12.037
14.5372 12.096
14.5523 11.739
14.5675 11.520
14.5827 11.132
14.5979 11.256
14.6130 11.463
14.6282 11.140
14.6434 11.036
14.6586 11.107
14.6737 11.129
14.6889 11.018
14.7041 11.062
14.7193 10.873
14.7344 10.976
14.7496 11.130
14.7648 10.917
14.7800 10.913
14.7951 11.058
14.8103 10.995
14.8255 11.106
14.8407 11.339
14.8558 11.108
14.8710 10.788
14.8862 10.953
14.9014 10.942
14.9165 10.845
14.9317 11.273
14.9469 10.798
14.9621 10.712
14.9772 10.566
14.9924 10.372
15.0076 10.726
15.0228 10.590
15.0379 10.526
15.0531 10.724
15.0683 10.667
15.0835 10.558
15.0986 10.252
15.1138 10.464
15.1290 10.864
15.1442 10.394
15.1593 10.830
15.1745 10.342
15.1897 10.322
15.2049 10.341
15.2200 10.664
15.2352 10.498
15.2504 10.573
15.2656 10.583
15.2807 10.124
15.2959 10.339
15.3111 10.418
15.3263 10.410
15.3414 10.023
15.3566 10.336
15.3718 10.399
15.3870 10.421
15.4021 10.483
15.4173 10.326
15.4325 10.448
15.4477 10.733
15.4628 10.415
15.4780 10.405
15.4932 10.272
15.5084 10.063
15.5235 10.307
15.5387 10.126
15.5539 10.624
15.5691 10.510
15.5842 10.254
15.5994 10.402
15.6146 9.953
15.6298 9.843
15.6449 10.264
15.6601 10.135
15.6753 9.943
15.6905 10.277
15.7056 10.287
15.7208 10.132
15.7360 9.948
15.7512 10.075
15.7663 9.812
15.7815 9.887
15.7967 10.108
15.8119 10.043
15.8270 9.880
15.8422 10.041
15.8574 9.878
15.8726 9.777
15.8877 9.951
15.9029 9.526
15.9181 9.839
15.9333 9.692
15.9484 9.771
15.9636 9.934
15.9788 10.216
15.9940 9.924
16.0091 9.678
16.0243 9.716
16.0395 9.897
16.0547 9.776
16.0698 9.956
16.0850 9.577
16.1002 9.366
16.1154 9.799
16.1305 9.503
16.1457 9.669
16.1609 9.876
16.1761 9.756
16.1912 9.667
16.2064 9.761
16.2216 9.711
16.2368 9.809
16.2519 9.784
16.2671 9.846
16.2823 10.018
16.2975 10.032
16.3126 10.247
16.3278 10.127
16.3430 9.828
16.3582 9.989
16.3733 10.152
16.3885 10.144
16.4037 10.063
16.4189 10.237
16.4340 10.072
16.4492 9.925
16.4644 9.904
16.4796 9.730
16.4947 9.879
16.5099 9.816
16.5251 9.765
16.5403 9.760
16.5554 9.773
16.5706 9.819
16.5858 9.773
16.6010 9.972
16.6161 9.977
16.6313 10.096
16.6465 9.875
16.6617 9.651
16.6768 9.867
16.6920 9.882
16.7072 9.868
16.7224 10.005
16.7375 10.140
16.7527 10.139
16.7679 10.143
16.7831 10.150
16.7982 10.042
16.8134 9.994
16.8286 10.247
16.8438 10.188
16.8589 9.897
16.8741 9.841
16.8893 10.137
16.9045 9.904
16.9196 9.795
16.9348 9.825
16.9500 9.566
16.9652 9.796
16.9803 10.017
16.9955 9.949
17.0107 10.154
17.0259 10.251
17.0410 10.347
17.0562 10.504
17.0714 10.551
17.0866 10.732
17.1017 10.986
17.1169 10.874
17.1321 11.059
17.1473 11.422
17.1624 11.809
17.1776 12.481
17.1928 13.271
17.2080 14.073
17.2231 15.212
17.2383 16.628
17.2535 17.692
17.2687 18.834
17.2838 19.069
17.2990 18.146
17.3142 17.200
17.3294 16.510
17.3445 16.204
17.3597 15.810
17.3749 15.734
17.3901 15.546
17.4052 14.524
17.4204 13.192
17.4356 12.287
17.4508 11.892
17.4659 11.490
17.4811 11.193
17.4963 11.044
17.5115 10.931
17.5266 10.810
17.5418 10.631
17.5570 10.386
17.5722 10.267
17.5873 10.361
17.6025 10.520
17.6177 10.468
17.6329 10.484
17.6480 10.454
17.6632 10.277
17.6784 10.218
17.6936 10.303
17.7087 10.604
17.7239 10.717
17.7391 10.713
17.7543 10.714
17.7694 10.794
17.7846 10.893
17.7998 10.941
17.8150 10.977
17.8301 11.129
17.8453 11.310
17.8605 11.403
17.8757 11.431
17.8908 11.232
17.9060 10.992
17.9212 10.956
17.9364 10.961
17.9515 10.774
17.9667 10.629
17.9819 10.845
17.9971 10.575
18.0122 10.285
18.0274 10.512
18.0426 10.662
18.0578 10.378
18.0729 10.186
18.0881 10.145
18.1033 10.069
18.1185 9.907
18.1336 9.896
18.1488 10.076
18.1640 10.093
18.1792 9.894
18.1943 9.743
18.2095 9.960
18.2247 10.183
18.2399 10.210
18.2550 9.854
18.2702 9.940
18.2854 10.093
18.3006 9.938
18.3157 10.076
18.3309 10.046
18.3461 9.992
18.3613 9.905
18.3764 9.657
18.3916 9.755
18.4068 9.919
18.4220 9.952
18.4371 9.869
18.4523 9.895
18.4675 9.739
18.4827 9.692
18.4978 9.672
18.5130 9.688
18.5282 9.720
18.5434 9.979
18.5585 10.019
18.5737 10.038
18.5889 9.810
18.6041 9.782
18.6192 10.132
18.6344 9.903
18.6496 9.780
18.6648 9.964
18.6799 9.764
18.6951 9.662
18.7103 9.624
18.7255 9.747
18.7406 9.889
18.7558 9.753
18.7710 9.587
18.7862 9.733
18.8013 9.772
18.8165 9.615
18.8317 9.748
18.8469 9.855
18.8620 9.990
18.8772 9.996
18.8924 10.003
18.9076 9.898
18.9227 10.033
18.9379 10.125
18.9531 10.099
18.9683 10.095
18.9834 10.070
18.9986 10.026
19.0138 10.154
19.0290 10.115
19.0441 10.317
19.0593 10.180
19.0745 10.114
19.0897 10.221
19.1048 10.298
19.1200 10.252
19.1352 10.343
19.1504 10.512
19.1655 10.536
19.1807 10.641
19.1959 10.612
19.2111 10.728
19.2262 10.829
19.2414 10.833
19.2566 10.946
19.2718 10.947
19.2869 11.041
19.3021 11.125
19.3173 11.134
19.3325 11.030
19.3476 11.197
19.3628 11.244
19.3780 11.015
19.3932 11.098
19.4083 11.170
19.4235 11.287
19.4387 11.265
19.4539 11.193
19.4690 11.174
19.4842 11.449
19.4994 11.632
19.5146 11.545
19.5297 11.594
19.5449 11.577
19.5601 11.485
19.5753 11.503
19.5904 11.614
19.6056 11.531
19.6208 11.606
19.6360 11.572
19.6511 11.634
19.6663 11.794
19.6815 11.691
19.6967 11.720
19.7118 11.867
19.7270 11.764
19.7422 11.594
19.7574 11.573
19.7725 11.763
19.7877 12.026
19.8029 12.130
19.8180 12.151
19.8332 12.283
19.8484 12.402
19.8636 12.599
19.8787 12.683
19.8939 12.734
19.9091 12.975
19.9243 13.515
19.9394 13.887
19.9546 14.168
19.9698 14.672
19.9850 14.597
20.0001 14.538
20.0153 14.559
20.0305 14.330
20.0457 13.904
20.0608 13.816
20.0760 14.051
20.0912 13.842
20.1064 13.527
20.1215 13.451
20.1367 13.247
20.1519 12.997
20.1671 12.973
20.1822 12.710
20.1974 12.545
20.2126 12.634
20.2278 12.418
20.2429 12.214
20.2581 12.209
20.2733 11.869
20.2885 11.625
20.3036 11.554
20.3188 11.647
20.3340 11.755
20.3492 11.522
20.3643 11.423
20.3795 11.139
20.3947 10.949
20.4099 11.068
20.4250 11.148
20.4402 10.755
20.4554 10.594
20.4706 10.653
20.4857 10.808
20.5009 10.767
20.5161 11.003
20.5313 10.742
20.5464 10.793
20.5616 10.840
20.5768 10.704
20.5920 10.623
20.6071 10.591
20.6223 10.307
20.6375 10.564
20.6527 10.510
20.6678 10.243
20.6830 10.291
20.6982 10.546
20.7134 10.493
20.7285 10.408
20.7437 10.590
20.7589 10.610
20.7741 10.595
20.7892 10.491
20.8044 10.362
20.8196 10.410
20.8348 10.307
20.8499 10.064
20.8651 10.399
20.8803 10.301
20.8955 10.442
20.9106 10.339
20.9258 10.275
20.9410 10.344
20.9562 10.534
20.9713 10.734
20.9865 10.424
21.0017 10.510
21.0169 10.233
21.0320 10.337
21.0472 10.117
21.0624 10.117
21.0776 9.919
21.0927 10.247
21.1079 10.110
21.1231 10.197
21.1383 9.935
21.1534 10.064
21.1686 9.879
21.1838 9.795
21.1990 9.630
21.2141 9.997
21.2293 9.586
21.2445 9.694
21.2597 9.556
21.2748 9.677
21.2900 9.549
21.3052 9.645
21.3204 9.348
21.3355 9.537
21.3507 9.625
21.3659 9.513
21.3811 9.634
21.3962 9.759
21.4114 9.687
21.4266 9.643
21.4418 9.530
21.4569 9.473
21.4721 9.224
21.4873 9.331
21.5025 9.336
21.5176 9.428
21.5328 9.396
21.5480 9.458
21.5632 9.236
21.5783 9.418
21.5935 9.340
21.6087 9.542
21.6239 9.245
21.6390 9.522
21.6542 9.353
21.6694 9.383
21.6846 9.279
21.6997 9.100
21.7149 9.100
21.7301 9.025
21.7453 9.108
21.7604 9.166
21.7756 8.933
21.7908 8.954
21.8060 8.838
21.8211 9.081
21.8363 9.036
21.8515 8.796
21.8667 8.998
21.8818 9.181
21.8970 9.031
21.9122 8.856
21.9274 8.904
21.9425 9.004
21.9577 8.890
21.9729 8.739
21.9881 8.696
22.0032 8.674
22.0184 8.854
22.0336 9.048
22.0488 8.884
22.0639 8.614
22.0791 8.610
22.0943 8.597
22.1095 8.666
22.1246 8.642
22.1398 8.619
22.1550 8.691
22.1702 8.694
22.1853 8.799
22.2005 8.775
22.2157 8.619
22.2309 8.940
22.2460 8.822
22.2612 8.864
22.2764 8.591
22.2916 8.578
22.3067 8.669
22.3219 8.493
22.3371 8.486
22.3523 8.791
22.3674 8.886
22.3826 8.546
22.3978 8.441
22.4130 8.662
22.4281 8.749
22.4433 8.364
22.4585 8.666
22.4737 8.738
22.4888 8.249
22.5040 8.519
22.5192 8.318
22.5344 8.274
22.5495 8.349
22.5647 8.443
22.5799 8.408
22.5951 8.609
22.6102 8.580
22.6254 8.588
22.6406 8.788
22.6558 8.421
22.6709 8.454
22.6861 8.334
22.7013 8.370
22.7165 7.987
22.7316 6.432
