'Id: "" Comment: "" Operator: "Lab Manager" Anode: "Mo" Scantype: "Still (Eiger2R_500K (1D mode))" TimePerStep: "300" X: "11.8" Y: "9.4" Z: "11.284" 
7.2532 18.956
7.2684 18.424
7.2836 18.637
7.2987 18.846
7.3139 18.776
7.3291 19.276
7.3443 19.003
7.3594 19.122
7.3746 19.084
7.3898 19.205
7.4050 19.693
7.4201 19.708
7.4353 19.296
7.4505 19.571
7.4657 19.701
7.4808 19.857
7.4960 19.661
7.5112 19.923
7.5264 20.050
7.5415 19.994
7.5567 19.892
7.5719 19.754
7.5871 19.754
7.6022 20.079
7.6174 20.481
7.6326 20.377
7.6478 20.196
7.6629 20.433
7.6781 20.139
7.6933 20.445
7.7085 20.820
7.7236 20.678
7.7388 20.577
7.7540 20.414
7.7692 20.355
7.7843 20.595
7.7995 20.906
7.8147 20.703
7.8299 20.621
7.8450 20.646
7.8602 20.807
7.8754 20.638
7.8905 21.026
7.9057 21.411
7.9209 21.176
7.9361 21.040
7.9512 21.189
7.9664 21.203
7.9816 21.123
7.9968 21.141
8.0119 21.243
8.0271 21.404
8.0423 21.108
8.0575 21.262
8.0726 21.207
8.0878 21.109
8.1030 21.393
8.1182 21.254
8.1333 21.526
8.1485 21.268
8.1637 21.280
8.1789 21.386
8.1940 21.597
8.2092 21.390
8.2244 21.275
8.2396 21.763
8.2547 21.607
8.2699 21.603
8.2851 21.924
8.3003 21.658
8.3154 21.821
8.3306 21.551
8.3458 21.419
8.3610 21.702
8.3761 22.110
8.3913 21.642
8.4065 22.627
8.4217 21.688
8.4368 22.024
8.4520 22.706
8.4672 22.123
8.4824 22.141
8.4975 22.294
8.5127 22.218
8.5279 22.115
8.5431 21.620
8.5582 22.864
8.5734 22.064
8.5886 22.395
8.6038 22.508
8.6189 22.432
8.6341 22.230
8.6493 22.649
8.6645 22.683
8.6796 22.581
8.6948 23.002
8.7100 22.944
8.7252 22.881
8.7403 22.751
8.7555 22.912
8.7707 22.867
8.7859 22.239
8.8010 22.576
8.8162 22.689
8.8314 22.415
8.8466 23.172
8.8617 22.763
8.8769 22.633
8.8921 22.575
8.9073 22.478
8.9224 22.958
8.9376 22.686
8.9528 22.706
8.9680 22.654
8.9831 22.706
8.9983 22.674
9.0135 22.579
9.0287 22.326
9.0438 23.139
9.0590 23.088
9.0742 22.647
9.0894 23.112
9.1045 22.775
9.1197 22.448
9.1349 23.084
9.1501 23.321
9.1652 23.092
9.1804 23.017
9.1956 23.364
9.2108 23.386
9.2259 23.397
9.2411 23.383
9.2563 23.093
9.2715 22.995
9.2866 23.512
9.3018 23.170
9.3170 23.126
9.3322 23.487
9.3473 23.044
9.3625 22.853
9.3777 23.040
9.3929 22.958
9.4080 23.315
9.4232 23.374
9.4384 23.278
9.4536 23.325
9.4687 23.216
9.4839 23.157
9.4991 23.095
9.5143 22.954
9.5294 23.238
9.5446 23.341
9.5598 22.964
9.5750 23.389
9.5901 23.310
9.6053 23.237
9.6205 23.652
9.6357 23.662
9.6508 23.881
9.6660 23.600
9.6812 23.394
9.6964 23.419
9.7115 23.655
9.7267 24.133
9.7419 24.260
9.7571 24.001
9.7722 23.787
9.7874 23.771
9.8026 23.876
9.8178 23.435
9.8329 23.465
9.8481 23.545
9.8633 23.231
9.8785 23.460
9.8936 23.561
9.9088 23.306
9.9240 23.351
9.9392 23.356
9.9543 23.111
9.9695 23.062
9.9847 23.303
9.9999 23.423
10.0150 23.703
10.0302 23.662
10.0454 23.593
10.0606 23.742
10.0757 23.599
10.0909 23.413
10.1061 23.339
10.1213 23.433
10.1364 23.300
10.1516 23.280
10.1668 23.554
10.1820 23.471
10.1971 23.467
10.2123 23.778
10.2275 23.986
10.2427 23.900
10.2578 23.848
10.2730 23.645
10.2882 23.611
10.3034 23.603
10.3185 23.236
10.3337 22.932
10.3489 22.869
10.3641 22.927
10.3792 22.967
10.3944 22.988
10.4096 22.808
10.4248 23.086
10.4399 23.061
10.4551 22.844
10.4703 22.943
10.4855 22.577
10.5006 22.259
10.5158 22.285
10.5310 22.329
10.5462 22.905
10.5613 22.755
10.5765 22.599
10.5917 22.884
10.6069 22.756
10.6220 22.617
10.6372 22.576
10.6524 22.576
10.6676 22.667
10.6827 22.811
10.6979 22.485
10.7131 22.554
10.7283 22.710
10.7434 22.486
10.7586 22.397
10.7738 22.428
10.7890 22.256
10.8041 22.334
10.8193 22.471
10.8345 22.110
10.8497 22.523
10.8648 22.710
10.8800 22.295
10.8952 22.148
10.9104 22.042
10.9255 22.136
10.9407 22.042
10.9559 22.023
10.9711 22.106
10.9862 22.471
11.0014 22.585
11.0166 22.292
11.0318 22.461
11.0469 22.020
11.0621 21.913
11.0773 21.655
11.0925 21.842
11.1076 22.009
11.1228 21.929
11.1380 21.886
11.1532 22.105
11.1683 21.855
11.1835 21.895
11.1987 21.803
11.2139 21.999
11.2290 21.633
11.2442 21.874
11.2594 21.975
11.2746 22.048
11.2897 22.057
11.3049 22.049
11.3201 22.004
11.3353 21.704
11.3504 21.707
11.3656 21.711
11.3808 21.874
11.3960 21.683
11.4111 21.482
11.4263 21.481
11.4415 21.362
11.4567 21.247
11.4718 20.964
11.4870 21.068
11.5022 21.172
11.5174 20.995
11.5325 20.946
11.5477 21.030
11.5629 21.051
11.5781 20.948
11.5932 20.872
11.6084 20.868
11.6236 20.933
11.6388 20.750
11.6539 20.741
11.6691 20.632
11.6843 20.526
11.6995 20.734
11.7146 20.714
11.7298 20.411
11.7450 20.549
11.7602 20.557
11.7753 20.211
11.7905 20.276
11.8057 20.325
11.8209 20.011
11.8360 19.905
11.8512 19.931
11.8664 19.817
11.8816 19.697
11.8967 19.576
11.9119 19.578
11.9271 19.546
11.9423 19.656
11.9574 19.580
11.9726 19.347
11.9878 19.155
12.0030 19.182
12.0181 19.346
12.0333 19.241
12.0485 19.172
12.0637 19.149
12.0788 19.026
12.0940 18.625
12.1092 18.655
12.1244 18.539
12.1395 18.607
12.1547 18.670
12.1699 18.598
12.1851 18.490
12.2002 18.413
12.2154 18.408
12.2306 18.005
12.2458 17.549
12.2609 17.852
12.2761 18.035
12.2913 17.738
12.3065 17.391
12.3216 17.587
12.3368 17.599
12.3520 17.466
12.3672 17.410
12.3823 17.369
12.3975 17.094
12.4127 17.027
12.4279 16.961
12.4430 17.262
12.4582 17.229
12.4734 16.806
12.4886 16.856
12.5037 17.335
12.5189 17.256
12.5341 16.837
12.5493 16.803
12.5644 16.809
12.5796 16.435
12.5948 16.150
12.6100 16.214
12.6251 16.205
12.6403 15.908
12.6555 15.753
12.6707 15.755
12.6858 15.574
12.7010 15.702
12.7162 15.750
12.7314 15.769
12.7465 15.613
12.7617 15.311
12.7769 15.454
12.7921 15.406
12.8072 15.161
12.8224 14.960
12.8376 14.932
12.8528 14.945
12.8679 14.896
12.8831 14.819
12.8983 14.684
12.9135 14.687
12.9286 14.832
12.9438 14.426
12.9590 14.496
12.9742 14.712
12.9893 14.350
13.0045 14.371
13.0197 14.365
13.0349 14.274
13.0500 14.333
13.0652 13.874
13.0804 13.779
13.0956 14.138
13.1107 14.157
13.1259 13.957
13.1411 13.803
13.1563 13.853
13.1714 13.801
13.1866 13.448
13.2018 13.332
13.2170 13.520
13.2321 13.687
13.2473 13.434
13.2625 12.936
13.2777 13.121
13.2928 13.277
13.3080 13.115
13.3232 13.045
13.3384 13.208
13.3535 13.215
13.3687 12.841
13.3839 12.751
13.3991 12.859
13.4142 12.977
13.4294 13.110
13.4446 12.979
13.4598 12.771
13.4749 12.948
13.4901 12.865
13.5053 12.431
13.5205 12.446
13.5356 12.409
13.5508 12.641
13.5660 12.562
13.5812 12.390
13.5963 12.531
13.6115 12.290
13.6267 11.945
13.6419 12.082
13.6570 12.227
13.6722 12.157
13.6874 12.073
13.7026 12.153
13.7177 12.061
13.7329 11.998
13.7481 12.123
13.7633 12.054
13.7784 12.179
13.7936 12.292
13.8088 12.051
13.8239 12.102
13.8391 12.170
13.8543 12.210
13.8695 12.170
13.8846 12.418
13.8998 12.395
13.9150 12.237
13.9302 12.047
13.9453 12.189
13.9605 11.863
13.9757 11.506
13.9909 11.784
14.0060 11.883
14.0212 11.638
14.0364 11.654
14.0516 11.701
14.0667 11.504
14.0819 11.668
14.0971 11.615
14.1123 11.575
14.1274 11.249
14.1426 11.456
14.1578 11.743
14.1730 11.749
14.1881 11.790
14.2033 11.606
14.2185 11.944
14.2337 11.672
14.2488 11.730
14.2640 12.031
14.2792 12.160
14.2944 12.075
14.3095 12.210
14.3247 11.949
14.3399 12.613
14.3551 12.515
14.3702 12.980
14.3854 12.985
14.4006 12.709
14.4158 12.915
14.4309 12.740
14.4461 12.559
14.4613 12.195
14.4765 11.989
14.4916 11.988
14.5068 11.666
14.5220 11.523
14.5372 11.665
14.5523 11.544
14.5675 11.333
14.5827 11.462
14.5979 11.131
14.6130 11.416
14.6282 11.110
14.6434 11.278
14.6586 10.814
14.6737 11.204
14.6889 10.885
14.7041 10.745
14.7193 10.696
14.7344 10.966
14.7496 10.843
14.7648 11.142
14.7800 10.774
14.7951 10.810
14.8103 10.673
14.8255 10.930
14.8407 10.774
14.8558 10.928
14.8710 10.923
14.8862 10.613
14.9014 10.659
14.9165 10.876
14.9317 10.847
14.9469 10.851
14.9621 10.665
14.9772 10.548
14.9924 10.477
15.0076 10.617
15.0228 10.156
15.0379 10.639
15.0531 10.322
15.0683 10.444
15.0835 10.592
15.0986 10.040
15.1138 10.523
15.1290 10.458
15.1442 10.699
15.1593 10.577
15.1745 10.739
15.1897 10.366
15.2049 10.325
15.2200 10.126
15.2352 10.583
15.2504 10.581
15.2656 10.378
15.2807 10.354
15.2959 10.617
15.3111 10.368
15.3263 10.159
15.3414 10.573
15.3566 10.426
15.3718 10.416
15.3870 10.418
15.4021 10.440
15.4173 10.508
15.4325 10.436
15.4477 10.490
15.4628 10.551
15.4780 10.392
15.4932 10.105
15.5084 10.370
15.5235 10.401
15.5387 10.266
15.5539 10.156
15.5691 10.631
15.5842 10.130
15.5994 10.414
15.6146 10.157
15.6298 10.011
15.6449 10.318
15.6601 10.114
15.6753 9.864
15.6905 9.866
15.7056 10.058
15.7208 9.988
15.7360 9.837
15.7512 9.876
15.7663 10.191
15.7815 9.802
15.7967 9.956
15.8119 9.803
15.8270 9.885
15.8422 9.788
15.8574 10.060
15.8726 10.055
15.8877 9.980
15.9029 9.894
15.9181 9.841
15.9333 9.900
15.9484 9.889
15.9636 9.886
15.9788 9.634
15.9940 9.547
16.0091 9.733
16.0243 9.976
16.0395 9.861
16.0547 9.787
16.0698 9.722
16.0850 9.755
16.1002 9.829
16.1154 9.635
16.1305 9.569
16.1457 9.770
16.1609 9.687
16.1761 9.795
16.1912 9.751
16.2064 9.683
16.2216 9.747
16.2368 9.698
16.2519 9.725
16.2671 9.901
16.2823 9.902
16.2975 9.527
16.3126 9.614
16.3278 10.045
16.3430 9.968
16.3582 9.816
16.3733 10.036
16.3885 10.003
16.4037 9.888
16.4189 9.939
16.4340 9.976
16.4492 10.096
16.4644 9.974
16.4796 9.956
16.4947 10.016
16.5099 9.664
16.5251 9.443
16.5403 9.627
16.5554 9.842
16.5706 10.043
16.5858 9.841
16.6010 9.531
16.6161 9.639
16.6313 9.804
16.6465 9.912
16.6617 9.975
16.6768 9.929
16.6920 9.893
16.7072 9.847
16.7224 10.009
16.7375 10.015
16.7527 10.000
16.7679 9.801
16.7831 9.879
16.7982 10.205
16.8134 10.185
16.8286 10.001
16.8438 9.767
16.8589 9.873
16.8741 10.123
16.8893 10.165
16.9045 10.033
16.9196 9.982
16.9348 9.845
16.9500 9.774
16.9652 10.022
16.9803 10.041
16.9955 10.031
17.0107 10.017
17.0259 10.114
17.0410 10.160
17.0562 9.980
17.0714 9.878
17.0866 10.220
17.1017 10.719
17.1169 10.662
17.1321 10.894
17.1473 11.383
17.1624 11.829
17.1776 12.412
17.1928 13.208
17.2080 14.207
17.2231 15.129
17.2383 16.000
17.2535 17.413
17.2687 18.701
17.2838 18.773
17.2990 18.316
17.3142 17.348
17.3294 16.474
17.3445 16.126
17.3597 16.007
17.3749 15.916
17.3901 15.207
17.4052 14.008
17.4204 12.942
17.4356 12.359
17.4508 12.071
17.4659 11.906
17.4811 11.749
17.4963 11.632
17.5115 11.278
17.5266 11.190
17.5418 11.534
17.5570 11.580
17.5722 11.399
17.5873 11.436
17.6025 11.577
17.6177 11.251
17.6329 10.937
17.6480 11.002
17.6632 11.091
17.6784 11.010
17.6936 11.010
17.7087 10.861
17.7239 10.410
17.7391 10.190
17.7543 10.337
17.7694 10.253
17.7846 10.080
17.7998 9.931
17.8150 9.861
17.8301 10.174
17.8453 10.217
17.8605 10.085
17.8757 10.134
17.8908 10.128
17.9060 10.207
17.9212 10.181
17.9364 10.393
17.9515 10.401
17.9667 10.428
17.9819 10.532
17.9971 10.457
18.0122 10.433
18.0274 10.396
18.0426 10.294
18.0578 10.091
18.0729 10.178
18.0881 10.163
18.1033 9.900
18.1185 10.071
18.1336 10.059
18.1488 10.091
18.1640 10.152
18.1792 9.985
18.1943 9.801
18.2095 9.811
18.2247 9.549
18.2399 9.542
18.2550 9.794
18.2702 9.902
18.2854 9.945
18.3006 9.983
18.3157 9.798
18.3309 9.712
18.3461 9.778
18.3613 9.772
18.3764 9.886
18.3916 9.896
18.4068 9.911
18.4220 9.750
18.4371 9.773
18.4523 9.932
18.4675 9.872
18.4827 9.890
18.4978 9.953
18.5130 9.796
18.5282 9.643
18.5434 9.767
18.5585 9.692
18.5737 9.686
18.5889 9.761
18.6041 10.098
18.6192 9.926
18.6344 9.733
18.6496 9.795
18.6648 9.601
18.6799 9.780
18.6951 9.811
18.7103 9.822
18.7255 9.867
18.7406 9.877
18.7558 9.640
18.7710 9.685
18.7862 9.813
18.8013 9.816
18.8165 9.873
18.8317 9.998
18.8469 10.002
18.8620 10.037
18.8772 9.801
18.8924 9.698
18.9076 9.749
18.9227 9.899
18.9379 9.992
18.9531 9.923
18.9683 9.921
18.9834 10.159
18.9986 10.447
19.0138 10.224
19.0290 10.181
19.0441 10.257
19.0593 10.439
19.0745 10.331
19.0897 10.146
19.1048 10.430
19.1200 10.485
19.1352 10.453
19.1504 10.326
19.1655 10.248
19.1807 10.487
19.1959 10.431
19.2111 10.421
19.2262 10.570
19.2414 10.740
19.2566 10.823
19.2718 10.932
19.2869 10.978
19.3021 10.851
19.3173 11.157
19.3325 11.137
19.3476 10.958
19.3628 11.010
19.3780 11.141
19.3932 11.420
19.4083 11.421
19.4235 11.255
19.4387 11.384
19.4539 11.182
19.4690 11.332
19.4842 11.611
19.4994 11.476
19.5146 11.656
19.5297 11.541
19.5449 11.216
19.5601 11.251
19.5753 11.544
19.5904 11.619
19.6056 11.498
19.6208 11.552
19.6360 11.704
19.6511 11.784
19.6663 11.770
19.6815 11.782
19.6967 11.753
19.7118 11.760
19.7270 11.680
19.7422 11.625
19.7574 11.730
19.7725 11.706
19.7877 11.900
19.8029 12.013
19.8180 11.966
19.8332 12.133
19.8484 12.326
19.8636 12.380
19.8787 12.655
19.8939 12.983
19.9091 13.160
19.9243 13.615
19.9394 14.002
19.9546 13.951
19.9698 14.195
19.9850 14.441
20.0001 14.391
20.0153 14.277
20.0305 13.809
20.0457 13.801
20.0608 13.751
20.0760 13.695
20.0912 13.810
20.1064 13.611
20.1215 13.569
20.1367 13.431
20.1519 13.223
20.1671 13.197
20.1822 13.160
20.1974 13.242
20.2126 12.989
20.2278 12.857
20.2429 12.614
20.2581 12.534
20.2733 12.231
20.2885 12.030
20.3036 11.939
20.3188 11.766
20.3340 11.735
20.3492 11.739
20.3643 11.777
20.3795 11.390
20.3947 10.810
20.4099 10.807
20.4250 10.956
20.4402 10.866
20.4554 10.839
20.4706 10.783
20.4857 10.898
20.5009 10.820
20.5161 10.628
20.5313 10.632
20.5464 10.777
20.5616 10.726
20.5768 10.620
20.5920 10.587
20.6071 10.708
20.6223 10.768
20.6375 10.773
20.6527 10.881
20.6678 10.492
20.6830 10.635
20.6982 10.499
20.7134 10.404
20.7285 10.655
20.7437 10.622
20.7589 10.424
20.7741 10.260
20.7892 10.424
20.8044 10.499
20.8196 10.277
20.8348 10.256
20.8499 10.026
20.8651 10.153
20.8803 10.107
20.8955 10.080
20.9106 10.275
20.9258 10.083
20.9410 9.882
20.9562 10.170
20.9713 10.136
20.9865 10.090
21.0017 9.819
21.0169 10.168
21.0320 10.197
21.0472 10.066
21.0624 9.694
21.0776 9.688
21.0927 9.949
21.1079 9.879
21.1231 9.730
21.1383 10.084
21.1534 9.799
21.1686 10.141
21.1838 9.729
21.1990 9.777
21.2141 9.912
21.2293 9.631
21.2445 9.801
21.2597 9.602
21.2748 9.772
21.2900 9.711
21.3052 9.774
21.3204 9.700
21.3355 9.390
21.3507 9.478
21.3659 9.766
21.3811 9.894
21.3962 9.550
21.4114 9.606
21.4266 9.474
21.4418 9.416
21.4569 9.249
21.4721 9.212
21.4873 9.439
21.5025 9.254
21.5176 9.092
21.5328 8.941
21.5480 8.985
21.5632 9.376
21.5783 9.431
21.5935 9.269
21.6087 9.287
21.6239 9.231
21.6390 9.305
21.6542 9.344
21.6694 9.164
21.6846 9.183
21.6997 9.332
21.7149 9.149
21.7301 9.107
21.7453 8.859
21.7604 8.991
21.7756 8.919
21.7908 9.033
21.8060 9.096
21.8211 8.992
21.8363 9.165
21.8515 9.079
21.8667 9.013
21.8818 8.875
21.8970 9.005
21.9122 9.085
21.9274 9.113
21.9425 9.110
21.9577 9.240
21.9729 9.108
21.9881 8.840
22.0032 9.006
22.0184 9.042
22.0336 9.053
22.0488 8.941
22.0639 8.932
22.0791 8.902
22.0943 8.865
22.1095 8.667
22.1246 8.799
22.1398 8.950
22.1550 8.883
22.1702 8.993
22.1853 8.928
22.2005 8.694
22.2157 8.622
22.2309 8.756
22.2460 8.619
22.2612 8.544
22.2764 8.776
22.2916 8.614
22.3067 8.771
22.3219 8.759
22.3371 8.549
22.3523 8.550
22.3674 8.551
22.3826 8.704
22.3978 8.501
22.4130 8.136
22.4281 8.406
22.4433 8.697
22.4585 8.533
22.4737 8.392
22.4888 8.429
22.5040 8.504
22.5192 8.476
22.5344 8.436
22.5495 8.479
22.5647 8.497
22.5799 8.379
22.5951 8.626
22.6102 8.697
22.6254 8.637
22.6406 8.678
22.6558 8.712
22.6709 8.368
22.6861 8.333
22.7013 8.278
22.7165 8.059
22.7316 6.608
