'Id: "" Comment: "" Operator: "Lab Manager" Anode: "Mo" Scantype: "Still (Eiger2R_500K (1D mode))" TimePerStep: "300" X: "11.8" Y: "9.4" Z: "11.284" 
7.2532 18.679
7.2684 18.959
7.2836 18.824
7.2987 18.910
7.3139 18.924
7.3291 19.193
7.3443 19.575
7.3594 18.966
7.3746 19.353
7.3898 19.230
7.4050 19.132
7.4201 19.692
7.4353 19.914
7.4505 19.834
7.4657 19.679
7.4808 19.833
7.4960 19.809
7.5112 19.586
7.5264 19.701
7.5415 19.738
7.5567 19.685
7.5719 19.397
7.5871 20.009
7.6022 20.366
7.6174 20.299
7.6326 20.275
7.6478 20.204
7.6629 20.268
7.6781 20.193
7.6933 20.265
7.7085 20.350
7.7236 20.274
7.7388 20.490
7.7540 20.616
7.7692 20.690
7.7843 20.872
7.7995 20.825
7.8147 20.665
7.8299 20.263
7.8450 20.347
7.8602 20.774
7.8754 21.070
7.8905 20.909
7.9057 20.589
7.9209 20.481
7.9361 20.758
7.9512 20.765
7.9664 20.699
7.9816 20.972
7.9968 21.206
8.0119 21.181
8.0271 21.156
8.0423 21.390
8.0575 21.302
8.0726 21.412
8.0878 21.403
8.1030 21.498
8.1182 21.332
8.1333 21.323
8.1485 21.288
8.1637 21.602
8.1789 21.754
8.1940 21.646
8.2092 22.070
8.2244 21.672
8.2396 21.781
8.2547 22.290
8.2699 21.933
8.2851 21.901
8.3003 21.816
8.3154 21.336
8.3306 22.250
8.3458 21.869
8.3610 21.821
8.3761 21.958
8.3913 21.745
8.4065 21.681
8.4217 21.943
8.4368 21.340
8.4520 21.989
8.4672 22.077
8.4824 21.773
8.4975 21.826
8.5127 21.920
8.5279 21.906
8.5431 22.378
8.5582 22.083
8.5734 22.220
8.5886 22.204
8.6038 22.214
8.6189 22.142
8.6341 22.476
8.6493 22.089
8.6645 22.190
8.6796 22.459
8.6948 21.741
8.7100 22.504
8.7252 22.138
8.7403 22.157
8.7555 22.132
8.7707 22.513
8.7859 22.684
8.8010 22.677
8.8162 22.687
8.8314 22.489
8.8466 22.842
8.8617 22.682
8.8769 22.674
8.8921 22.598
8.9073 22.656
8.9224 22.743
8.9376 22.390
8.9528 22.141
8.9680 22.780
8.9831 22.622
8.9983 22.843
9.0135 22.248
9.0287 22.714
9.0438 23.019
9.0590 22.798
9.0742 22.887
9.0894 22.804
9.1045 23.006
9.1197 22.828
9.1349 23.040
9.1501 23.001
9.1652 23.037
9.1804 22.856
9.1956 22.817
9.2108 22.686
9.2259 22.898
9.2411 22.384
9.2563 22.441
9.2715 22.922
9.2866 22.903
9.3018 22.972
9.3170 22.970
9.3322 23.321
9.3473 23.515
9.3625 23.103
9.3777 23.015
9.3929 23.151
9.4080 22.744
9.4232 22.669
9.4384 23.190
9.4536 23.175
9.4687 23.271
9.4839 23.480
9.4991 23.443
9.5143 22.999
9.5294 22.692
9.5446 23.037
9.5598 23.250
9.5750 22.980
9.5901 23.268
9.6053 23.652
9.6205 23.912
9.6357 23.613
9.6508 23.154
9.6660 23.405
9.6812 23.716
9.6964 23.774
9.7115 23.702
9.7267 23.899
9.7419 24.137
9.7571 24.211
9.7722 23.969
9.7874 23.936
9.8026 24.152
9.8178 24.175
9.8329 23.889
9.8481 23.517
9.8633 23.724
9.8785 24.102
9.8936 24.090
9.9088 23.703
9.9240 23.596
9.9392 23.995
9.9543 24.049
9.9695 23.885
9.9847 23.764
9.9999 23.767
10.0150 23.186
10.0302 22.753
10.0454 22.850
10.0606 22.894
10.0757 23.090
10.0909 23.071
10.1061 23.024
10.1213 23.003
10.1364 23.082
10.1516 23.251
10.1668 23.207
10.1820 22.975
10.1971 23.045
10.2123 23.232
10.2275 23.040
10.2427 23.139
10.2578 23.097
10.2730 23.455
10.2882 23.384
10.3034 23.278
10.3185 23.244
10.3337 23.212
10.3489 23.329
10.3641 23.003
10.3792 22.609
10.3944 22.767
10.4096 23.257
10.4248 23.183
10.4399 23.186
10.4551 23.179
10.4703 23.072
10.4855 22.963
10.5006 22.864
10.5158 22.624
10.5310 22.692
10.5462 22.577
10.5613 22.633
10.5765 22.485
10.5917 22.399
10.6069 22.706
10.6220 22.629
10.6372 22.959
10.6524 22.682
10.6676 22.354
10.6827 22.480
10.6979 22.628
10.7131 22.535
10.7283 22.501
10.7434 22.179
10.7586 22.204
10.7738 22.447
10.7890 22.595
10.8041 22.393
10.8193 21.924
10.8345 22.055
10.8497 22.142
10.8648 22.151
10.8800 22.218
10.8952 22.281
10.9104 22.440
10.9255 22.394
10.9407 22.332
10.9559 21.987
10.9711 21.899
10.9862 21.874
11.0014 21.836
11.0166 21.995
11.0318 21.891
11.0469 21.678
11.0621 21.901
11.0773 21.916
11.0925 21.964
11.1076 21.759
11.1228 21.692
11.1380 21.696
11.1532 21.668
11.1683 21.503
11.1835 21.548
11.1987 21.319
11.2139 21.421
11.2290 21.393
11.2442 21.809
11.2594 21.352
11.2746 21.642
11.2897 21.546
11.3049 21.632
11.3201 21.730
11.3353 21.508
11.3504 21.553
11.3656 21.440
11.3808 21.392
11.3960 21.091
11.4111 21.294
11.4263 21.273
11.4415 21.506
11.4567 21.603
11.4718 21.533
11.4870 21.796
11.5022 21.732
11.5174 21.522
11.5325 21.197
11.5477 21.320
11.5629 21.273
11.5781 21.053
11.5932 21.234
11.6084 20.709
11.6236 20.700
11.6388 20.757
11.6539 20.712
11.6691 20.571
11.6843 20.558
11.6995 20.588
11.7146 20.421
11.7298 20.283
11.7450 20.762
11.7602 20.650
11.7753 20.436
11.7905 20.214
11.8057 20.164
11.8209 19.724
11.8360 19.911
11.8512 20.364
11.8664 20.393
11.8816 19.592
11.8967 19.611
11.9119 19.618
11.9271 19.768
11.9423 19.024
11.9574 19.076
11.9726 19.366
11.9878 19.550
12.0030 19.664
12.0181 19.526
12.0333 19.238
12.0485 19.289
12.0637 19.219
12.0788 18.893
12.0940 18.614
12.1092 18.831
12.1244 18.755
12.1395 18.841
12.1547 18.615
12.1699 18.280
12.1851 18.224
12.2002 18.069
12.2154 18.127
12.2306 18.032
12.2458 18.083
12.2609 17.718
12.2761 17.580
12.2913 17.781
12.3065 17.873
12.3216 17.633
12.3368 17.567
12.3520 17.555
12.3672 17.619
12.3823 17.401
12.3975 17.404
12.4127 17.322
12.4279 16.935
12.4430 17.078
12.4582 17.182
12.4734 16.966
12.4886 16.925
12.5037 16.879
12.5189 16.518
12.5341 16.379
12.5493 16.231
12.5644 16.333
12.5796 16.094
12.5948 16.070
12.6100 16.233
12.6251 16.309
12.6403 16.009
12.6555 15.958
12.6707 16.202
12.6858 15.815
12.7010 15.618
12.7162 15.733
12.7314 15.575
12.7465 15.433
12.7617 15.317
12.7769 15.388
12.7921 14.920
12.8072 14.892
12.8224 15.092
12.8376 15.140
12.8528 15.040
12.8679 14.909
12.8831 14.861
12.8983 14.721
12.9135 14.679
12.9286 14.605
12.9438 14.634
12.9590 14.632
12.9742 14.666
12.9893 14.626
13.0045 14.440
13.0197 14.331
13.0349 14.398
13.0500 14.314
13.0652 14.257
13.0804 14.289
13.0956 14.234
13.1107 14.227
13.1259 13.938
13.1411 13.589
13.1563 13.622
13.1714 13.857
13.1866 13.809
13.2018 13.663
13.2170 13.646
13.2321 13.585
13.2473 13.429
13.2625 13.157
13.2777 13.377
13.2928 13.716
13.3080 13.385
13.3232 13.206
13.3384 13.325
13.3535 13.106
13.3687 12.926
13.3839 12.987
13.3991 13.105
13.4142 13.104
13.4294 12.759
13.4446 12.626
13.4598 12.666
13.4749 12.672
13.4901 12.575
13.5053 12.504
13.5205 12.683
13.5356 12.609
13.5508 12.386
13.5660 12.272
13.5812 12.199
13.5963 12.261
13.6115 12.283
13.6267 12.256
13.6419 12.179
13.6570 12.070
13.6722 11.997
13.6874 12.086
13.7026 12.148
13.7177 12.063
13.7329 12.121
13.7481 12.202
13.7633 12.047
13.7784 11.960
13.7936 12.088
13.8088 12.135
13.8239 12.196
13.8391 12.297
13.8543 12.312
13.8695 12.212
13.8846 12.130
13.8998 12.248
13.9150 12.247
13.9302 12.022
13.9453 11.996
13.9605 11.812
13.9757 11.779
13.9909 11.879
14.0060 11.911
14.0212 11.829
14.0364 11.684
14.0516 11.627
14.0667 11.264
14.0819 11.160
14.0971 11.453
14.1123 11.398
14.1274 11.523
14.1426 11.516
14.1578 11.355
14.1730 11.270
14.1881 11.081
14.2033 11.329
14.2185 10.984
14.2337 11.228
14.2488 11.361
14.2640 11.500
14.2792 11.301
14.2944 11.497
14.3095 11.556
14.3247 11.851
14.3399 11.785
14.3551 12.304
14.3702 12.225
14.3854 11.996
14.4006 12.465
14.4158 12.830
14.4309 12.910
14.4461 12.828
14.4613 12.467
14.4765 12.461
14.4916 12.475
14.5068 12.111
14.5220 11.970
14.5372 11.785
14.5523 11.719
14.5675 11.401
14.5827 11.220
14.5979 11.213
14.6130 11.048
14.6282 11.297
14.6434 11.095
14.6586 11.294
14.6737 11.039
14.6889 10.936
14.7041 11.220
14.7193 11.244
14.7344 10.872
14.7496 11.110
14.7648 11.005
14.7800 10.720
14.7951 11.254
14.8103 10.969
14.8255 10.954
14.8407 11.082
14.8558 10.978
14.8710 10.898
14.8862 10.931
14.9014 11.049
14.9165 11.254
14.9317 11.392
14.9469 10.762
14.9621 10.871
14.9772 10.246
14.9924 10.336
15.0076 10.263
15.0228 10.279
15.0379 10.637
15.0531 10.651
15.0683 10.491
15.0835 10.384
15.0986 10.324
15.1138 10.585
15.1290 10.530
15.1442 10.241
15.1593 10.447
15.1745 10.190
15.1897 10.272
15.2049 10.655
15.2200 10.535
15.2352 10.502
15.2504 10.382
15.2656 10.162
15.2807 10.099
15.2959 9.883
15.3111 10.133
15.3263 9.907
15.3414 10.113
15.3566 10.349
15.3718 10.504
15.3870 10.362
15.4021 10.414
15.4173 10.506
15.4325 10.611
15.4477 10.394
15.4628 10.772
15.4780 10.900
15.4932 10.474
15.5084 10.309
15.5235 10.486
15.5387 10.471
15.5539 10.375
15.5691 10.516
15.5842 10.652
15.5994 10.353
15.6146 10.161
15.6298 10.211
15.6449 10.030
15.6601 10.163
15.6753 9.869
15.6905 10.228
15.7056 10.028
15.7208 9.820
15.7360 9.754
15.7512 9.930
15.7663 9.820
15.7815 9.884
15.7967 9.976
15.8119 9.980
15.8270 9.695
15.8422 9.691
15.8574 9.759
15.8726 9.866
15.8877 9.772
15.9029 9.582
15.9181 9.503
15.9333 9.754
15.9484 10.007
15.9636 9.653
15.9788 10.017
15.9940 9.951
16.0091 9.849
16.0243 9.646
16.0395 9.956
16.0547 9.881
16.0698 9.658
16.0850 9.749
16.1002 9.857
16.1154 9.924
16.1305 9.883
16.1457 10.032
16.1609 9.841
16.1761 9.753
16.1912 9.714
16.2064 10.030
16.2216 10.223
16.2368 9.934
16.2519 9.803
16.2671 9.932
16.2823 9.913
16.2975 10.024
16.3126 9.909
16.3278 9.929
16.3430 10.063
16.3582 9.917
16.3733 9.995
16.3885 9.870
16.4037 9.934
16.4189 10.002
16.4340 10.062
16.4492 10.001
16.4644 9.855
16.4796 9.770
16.4947 9.784
16.5099 9.620
16.5251 9.698
16.5403 9.841
16.5554 9.825
16.5706 9.791
16.5858 9.849
16.6010 9.999
16.6161 9.998
16.6313 9.926
16.6465 10.035
16.6617 9.989
16.6768 10.107
16.6920 10.271
16.7072 10.188
16.7224 10.087
16.7375 10.101
16.7527 9.965
16.7679 10.061
16.7831 10.115
16.7982 9.917
16.8134 10.038
16.8286 9.984
16.8438 10.068
16.8589 9.889
16.8741 9.729
16.8893 9.916
16.9045 9.856
16.9196 9.892
16.9348 9.982
16.9500 9.859
16.9652 9.861
16.9803 9.938
16.9955 10.152
17.0107 10.023
17.0259 10.082
17.0410 10.127
17.0562 10.264
17.0714 10.323
17.0866 10.324
17.1017 10.449
17.1169 10.771
17.1321 11.048
17.1473 11.292
17.1624 11.684
17.1776 12.330
17.1928 13.158
17.2080 13.896
17.2231 15.113
17.2383 16.520
17.2535 17.771
17.2687 18.591
17.2838 18.649
17.2990 18.237
17.3142 17.334
17.3294 16.658
17.3445 16.022
17.3597 15.720
17.3749 15.864
17.3901 15.149
17.4052 14.229
17.4204 13.372
17.4356 12.511
17.4508 11.898
17.4659 11.504
17.4811 11.364
17.4963 11.374
17.5115 11.098
17.5266 10.641
17.5418 10.472
17.5570 10.345
17.5722 10.427
17.5873 10.571
17.6025 10.347
17.6177 10.182
17.6329 10.167
17.6480 10.175
17.6632 10.282
17.6784 10.019
17.6936 9.927
17.7087 10.048
17.7239 10.087
17.7391 10.207
17.7543 10.410
17.7694 10.503
17.7846 10.711
17.7998 10.818
17.8150 10.730
17.8301 10.836
17.8453 11.030
17.8605 11.072
17.8757 11.202
17.8908 11.527
17.9060 11.354
17.9212 10.785
17.9364 10.654
17.9515 10.642
17.9667 10.797
17.9819 10.731
17.9971 10.498
18.0122 10.366
18.0274 10.060
18.0426 9.861
18.0578 9.985
18.0729 10.221
18.0881 10.154
18.1033 10.031
18.1185 10.139
18.1336 10.243
18.1488 10.059
18.1640 9.991
18.1792 10.083
18.1943 10.037
18.2095 10.209
18.2247 10.113
18.2399 9.897
18.2550 9.824
18.2702 9.915
18.2854 9.830
18.3006 9.830
18.3157 9.886
18.3309 9.851
18.3461 9.776
18.3613 9.737
18.3764 9.799
18.3916 9.932
18.4068 9.743
18.4220 9.840
18.4371 9.976
18.4523 9.831
18.4675 9.696
18.4827 9.698
18.4978 10.017
18.5130 9.963
18.5282 9.740
18.5434 9.703
18.5585 9.845
18.5737 10.073
18.5889 10.097
18.6041 9.898
18.6192 9.906
18.6344 9.943
18.6496 10.025
18.6648 9.800
18.6799 9.515
18.6951 9.742
18.7103 9.954
18.7255 9.884
18.7406 9.956
18.7558 9.811
18.7710 9.744
18.7862 9.645
18.8013 9.625
18.8165 9.748
18.8317 9.849
18.8469 9.978
18.8620 9.964
18.8772 9.973
18.8924 9.999
18.9076 9.810
18.9227 9.916
18.9379 10.079
18.9531 9.965
18.9683 10.122
18.9834 10.152
18.9986 9.955
19.0138 10.036
19.0290 9.956
19.0441 10.104
19.0593 10.066
19.0745 10.268
19.0897 10.565
19.1048 10.370
19.1200 10.398
19.1352 10.424
19.1504 10.368
19.1655 10.473
19.1807 10.517
19.1959 10.464
19.2111 10.769
19.2262 10.801
19.2414 10.652
19.2566 10.650
19.2718 10.906
19.2869 11.104
19.3021 10.875
19.3173 11.080
19.3325 11.201
19.3476 10.995
19.3628 10.931
19.3780 10.992
19.3932 10.970
19.4083 11.263
19.4235 11.506
19.4387 11.190
19.4539 10.897
19.4690 11.100
19.4842 11.243
19.4994 11.217
19.5146 11.313
19.5297 11.620
19.5449 11.874
19.5601 11.732
19.5753 11.580
19.5904 11.648
19.6056 11.636
19.6208 11.771
19.6360 11.717
19.6511 11.692
19.6663 11.729
19.6815 11.688
19.6967 11.563
19.7118 11.522
19.7270 11.644
19.7422 11.744
19.7574 11.863
19.7725 11.943
19.7877 12.055
19.8029 11.904
19.8180 11.877
19.8332 12.028
19.8484 12.236
19.8636 12.646
19.8787 12.792
19.8939 12.845
19.9091 13.223
19.9243 13.590
19.9394 13.817
19.9546 14.179
19.9698 14.491
19.9850 14.757
20.0001 14.791
20.0153 14.237
20.0305 14.173
20.0457 14.091
20.0608 13.821
20.0760 13.756
20.0912 13.707
20.1064 13.931
20.1215 13.837
20.1367 13.197
20.1519 13.073
20.1671 12.785
20.1822 12.456
20.1974 12.487
20.2126 12.323
20.2278 12.500
20.2429 12.558
20.2581 12.246
20.2733 12.025
20.2885 11.889
20.3036 11.905
20.3188 11.762
20.3340 11.862
20.3492 11.478
20.3643 11.271
20.3795 11.276
20.3947 11.145
20.4099 10.955
20.4250 10.989
20.4402 10.807
20.4554 10.801
20.4706 10.598
20.4857 10.263
20.5009 10.646
20.5161 10.689
20.5313 10.673
20.5464 10.652
20.5616 10.521
20.5768 10.606
20.5920 10.399
20.6071 10.526
20.6223 10.329
20.6375 10.283
20.6527 10.449
20.6678 10.546
20.6830 10.554
20.6982 10.331
20.7134 10.446
20.7285 10.759
20.7437 10.258
20.7589 10.284
20.7741 10.373
20.7892 10.318
20.8044 10.392
20.8196 10.291
20.8348 10.414
20.8499 10.396
20.8651 10.191
20.8803 10.304
20.8955 10.276
20.9106 10.205
20.9258 10.073
20.9410 10.036
20.9562 10.345
20.9713 10.563
20.9865 10.354
21.0017 10.449
21.0169 10.152
21.0320 10.583
21.0472 10.199
21.0624 10.267
21.0776 10.283
21.0927 10.187
21.1079 10.377
21.1231 10.195
21.1383 9.947
21.1534 9.929
21.1686 9.641
21.1838 9.855
21.1990 9.510
21.2141 9.716
21.2293 9.867
21.2445 9.586
21.2597 9.495
21.2748 9.579
21.2900 9.770
21.3052 10.086
21.3204 9.644
21.3355 9.660
21.3507 9.426
21.3659 9.562
21.3811 9.420
21.3962 9.463
21.4114 9.587
21.4266 9.612
21.4418 9.543
21.4569 9.537
21.4721 9.186
21.4873 9.350
21.5025 9.061
21.5176 9.220
21.5328 9.264
21.5480 9.164
21.5632 8.954
21.5783 9.382
21.5935 9.544
21.6087 9.489
21.6239 9.092
21.6390 9.187
21.6542 8.940
21.6694 9.194
21.6846 8.956
21.6997 9.000
21.7149 9.115
21.7301 9.339
21.7453 9.174
21.7604 9.149
21.7756 9.050
21.7908 9.023
21.8060 9.089
21.8211 9.049
21.8363 8.882
21.8515 8.931
21.8667 8.919
21.8818 9.091
21.8970 9.228
21.9122 9.141
21.9274 9.018
21.9425 8.969
21.9577 8.826
21.9729 9.043
21.9881 9.062
22.0032 8.810
22.0184 8.889
22.0336 8.698
22.0488 8.654
22.0639 8.948
22.0791 8.809
22.0943 8.628
22.1095 8.612
22.1246 8.735
22.1398 8.571
22.1550 8.479
22.1702 8.639
22.1853 8.506
22.2005 8.563
22.2157 8.707
22.2309 8.633
22.2460 8.452
22.2612 8.508
22.2764 8.661
22.2916 8.468
22.3067 8.410
22.3219 8.675
22.3371 8.555
22.3523 8.518
22.3674 8.679
22.3826 8.636
22.3978 8.490
22.4130 8.183
22.4281 8.549
22.4433 8.554
22.4585 8.548
22.4737 8.667
22.4888 8.530
22.5040 8.507
22.5192 8.592
22.5344 8.626
22.5495 8.637
22.5647 8.648
22.5799 8.739
22.5951 8.490
22.6102 8.505
22.6254 8.595
22.6406 8.597
22.6558 8.363
22.6709 8.351
22.6861 8.394
22.7013 8.139
22.7165 7.862
22.7316 6.507
