'Id: "" Comment: "" Operator: "Lab Manager" Anode: "Mo" Scantype: "Still (Eiger2R_500K (1D mode))" TimePerStep: "300" X: "11.8" Y: "9.4" Z: "11.284" 
7.2532 19.005
7.2684 18.962
7.2836 18.594
7.2987 19.128
7.3139 18.821
7.3291 19.323
7.3443 18.921
7.3594 18.364
7.3746 19.055
7.3898 19.133
7.4050 19.216
7.4201 19.055
7.4353 19.335
7.4505 18.935
7.4657 19.119
7.4808 19.774
7.4960 19.678
7.5112 19.643
7.5264 19.864
7.5415 19.962
7.5567 19.788
7.5719 19.632
7.5871 19.927
7.6022 19.979
7.6174 20.007
7.6326 20.221
7.6478 19.724
7.6629 19.632
7.6781 20.035
7.6933 19.996
7.7085 19.786
7.7236 19.976
7.7388 20.237
7.7540 19.874
7.7692 20.013
7.7843 20.287
7.7995 20.357
7.8147 20.667
7.8299 20.802
7.8450 20.623
7.8602 20.642
7.8754 20.639
7.8905 20.478
7.9057 20.773
7.9209 20.987
7.9361 21.177
7.9512 20.803
7.9664 20.749
7.9816 20.924
7.9968 20.632
8.0119 20.401
8.0271 20.684
8.0423 21.018
8.0575 21.149
8.0726 21.262
8.0878 21.322
8.1030 21.472
8.1182 21.302
8.1333 21.299
8.1485 21.484
8.1637 21.349
8.1789 20.943
8.1940 21.271
8.2092 21.381
8.2244 21.324
8.2396 21.360
8.2547 21.465
8.2699 21.691
8.2851 21.930
8.3003 21.529
8.3154 22.325
8.3306 21.751
8.3458 21.872
8.3610 21.587
8.3761 21.730
8.3913 22.028
8.4065 21.869
8.4217 21.772
8.4368 21.673
8.4520 22.152
8.4672 21.274
8.4824 21.546
8.4975 21.944
8.5127 21.705
8.5279 21.373
8.5431 21.713
8.5582 21.571
8.5734 21.968
8.5886 22.316
8.6038 22.138
8.6189 22.039
8.6341 22.137
8.6493 22.238
8.6645 21.707
8.6796 22.175
8.6948 22.248
8.7100 22.170
8.7252 21.955
8.7403 22.236
8.7555 22.169
8.7707 22.284
8.7859 22.518
8.8010 22.569
8.8162 22.015
8.8314 22.263
8.8466 22.042
8.8617 22.862
8.8769 22.540
8.8921 22.254
8.9073 22.432
8.9224 22.727
8.9376 22.809
8.9528 22.697
8.9680 22.858
8.9831 22.790
8.9983 22.818
9.0135 22.603
9.0287 22.689
9.0438 22.504
9.0590 22.694
9.0742 23.004
9.0894 22.898
9.1045 23.049
9.1197 22.772
9.1349 22.548
9.1501 22.677
9.1652 22.784
9.1804 22.822
9.1956 23.078
9.2108 22.868
9.2259 22.821
9.2411 22.735
9.2563 22.634
9.2715 22.817
9.2866 22.794
9.3018 22.775
9.3170 22.889
9.3322 23.044
9.3473 23.075
9.3625 22.675
9.3777 22.897
9.3929 23.252
9.4080 23.026
9.4232 22.701
9.4384 22.541
9.4536 23.000
9.4687 22.659
9.4839 22.453
9.4991 22.973
9.5143 23.170
9.5294 23.356
9.5446 23.165
9.5598 23.108
9.5750 23.114
9.5901 22.782
9.6053 22.897
9.6205 22.966
9.6357 23.066
9.6508 23.219
9.6660 23.359
9.6812 23.149
9.6964 23.276
9.7115 23.871
9.7267 24.457
9.7419 24.193
9.7571 23.702
9.7722 23.793
9.7874 23.742
9.8026 23.663
9.8178 23.433
9.8329 23.019
9.8481 22.789
9.8633 22.794
9.8785 22.988
9.8936 22.950
9.9088 22.934
9.9240 23.192
9.9392 23.133
9.9543 23.383
9.9695 23.480
9.9847 23.054
9.9999 23.277
10.0150 23.401
10.0302 23.010
10.0454 23.130
10.0606 23.114
10.0757 23.334
10.0909 23.495
10.1061 23.221
10.1213 23.051
10.1364 23.062
10.1516 23.032
10.1668 23.264
10.1820 23.119
10.1971 22.825
10.2123 22.839
10.2275 22.964
10.2427 22.833
10.2578 22.757
10.2730 22.695
10.2882 23.007
10.3034 22.784
10.3185 22.802
10.3337 22.518
10.3489 22.741
10.3641 22.748
10.3792 22.309
10.3944 22.391
10.4096 22.681
10.4248 22.801
10.4399 22.820
10.4551 22.348
10.4703 22.375
10.4855 22.584
10.5006 22.314
10.5158 22.495
10.5310 22.738
10.5462 22.634
10.5613 22.293
10.5765 22.367
10.5917 22.371
10.6069 22.519
10.6220 22.515
10.6372 22.165
10.6524 22.151
10.6676 21.987
10.6827 22.126
10.6979 22.144
10.7131 22.413
10.7283 22.201
10.7434 22.526
10.7586 22.163
10.7738 21.984
10.7890 21.886
10.8041 22.089
10.8193 22.200
10.8345 22.061
10.8497 21.850
10.8648 21.933
10.8800 22.030
10.8952 21.944
10.9104 22.035
10.9255 22.079
10.9407 22.006
10.9559 21.774
10.9711 21.756
10.9862 21.836
11.0014 21.930
11.0166 22.175
11.0318 22.143
11.0469 21.921
11.0621 21.872
11.0773 21.880
11.0925 22.105
11.1076 21.891
11.1228 21.493
11.1380 21.643
11.1532 21.785
11.1683 21.807
11.1835 21.325
11.1987 21.453
11.2139 21.349
11.2290 21.522
11.2442 21.594
11.2594 21.349
11.2746 21.620
11.2897 21.725
11.3049 21.686
11.3201 21.669
11.3353 21.759
11.3504 21.738
11.3656 21.485
11.3808 21.461
11.3960 21.568
11.4111 21.428
11.4263 21.007
11.4415 20.819
11.4567 20.880
11.4718 20.943
11.4870 21.200
11.5022 21.286
11.5174 21.251
11.5325 21.221
11.5477 20.940
11.5629 20.952
11.5781 20.679
11.5932 20.865
11.6084 21.040
11.6236 21.054
11.6388 20.760
11.6539 20.621
11.6691 20.171
11.6843 20.167
11.6995 20.223
11.7146 20.316
11.7298 20.488
11.7450 20.418
11.7602 20.122
11.7753 20.064
11.7905 20.019
11.8057 20.133
11.8209 19.867
11.8360 20.126
11.8512 19.617
11.8664 19.686
11.8816 19.828
11.8967 19.551
11.9119 19.464
11.9271 19.637
11.9423 19.388
11.9574 19.442
11.9726 19.306
11.9878 19.195
12.0030 19.215
12.0181 19.259
12.0333 18.776
12.0485 18.678
12.0637 18.932
12.0788 18.688
12.0940 18.570
12.1092 18.984
12.1244 18.618
12.1395 18.475
12.1547 18.358
12.1699 18.284
12.1851 18.277
12.2002 18.476
12.2154 18.324
12.2306 18.122
12.2458 18.156
12.2609 18.191
12.2761 17.887
12.2913 17.754
12.3065 17.586
12.3216 17.612
12.3368 17.498
12.3520 17.365
12.3672 17.177
12.3823 17.329
12.3975 17.438
12.4127 17.379
12.4279 17.142
12.4430 16.941
12.4582 16.580
12.4734 16.533
12.4886 16.619
12.5037 16.700
12.5189 16.728
12.5341 16.416
12.5493 16.304
12.5644 16.313
12.5796 16.386
12.5948 16.442
12.6100 16.276
12.6251 15.932
12.6403 15.857
12.6555 15.856
12.6707 15.697
12.6858 15.572
12.7010 15.547
12.7162 15.349
12.7314 15.358
12.7465 15.514
12.7617 15.505
12.7769 15.365
12.7921 15.153
12.8072 15.035
12.8224 14.880
12.8376 14.913
12.8528 14.750
12.8679 14.620
12.8831 14.749
12.8983 14.601
12.9135 14.622
12.9286 14.462
12.9438 14.426
12.9590 14.607
12.9742 14.388
12.9893 14.025
13.0045 13.869
13.0197 14.090
13.0349 14.060
13.0500 14.047
13.0652 14.292
13.0804 14.111
13.0956 13.733
13.1107 13.844
13.1259 13.883
13.1411 13.577
13.1563 13.668
13.1714 13.902
13.1866 13.567
13.2018 13.295
13.2170 13.346
13.2321 13.361
13.2473 13.301
13.2625 13.173
13.2777 13.392
13.2928 13.267
13.3080 13.147
13.3232 13.117
13.3384 12.842
13.3535 12.990
13.3687 13.086
13.3839 12.984
13.3991 12.978
13.4142 12.974
13.4294 12.612
13.4446 12.713
13.4598 12.941
13.4749 12.626
13.4901 12.466
13.5053 12.461
13.5205 12.388
13.5356 12.535
13.5508 12.482
13.5660 12.332
13.5812 12.222
13.5963 12.369
13.6115 12.258
13.6267 12.017
13.6419 11.970
13.6570 12.120
13.6722 12.170
13.6874 12.183
13.7026 12.395
13.7177 12.361
13.7329 12.173
13.7481 12.071
13.7633 12.250
13.7784 12.445
13.7936 12.137
13.8088 12.077
13.8239 12.328
13.8391 12.552
13.8543 12.573
13.8695 12.297
13.8846 12.256
13.8998 12.197
13.9150 12.105
13.9302 12.231
13.9453 12.218
13.9605 12.024
13.9757 11.992
13.9909 11.975
14.0060 11.865
14.0212 11.796
14.0364 11.566
14.0516 11.705
14.0667 11.626
14.0819 11.563
14.0971 11.764
14.1123 11.447
14.1274 11.682
14.1426 11.840
14.1578 11.930
14.1730 12.038
14.1881 12.073
14.2033 11.932
14.2185 12.073
14.2337 11.820
14.2488 11.907
14.2640 11.614
14.2792 11.560
14.2944 12.098
14.3095 11.948
14.3247 12.194
14.3399 12.636
14.3551 12.561
14.3702 12.786
14.3854 13.004
14.4006 13.181
14.4158 13.222
14.4309 12.931
14.4461 12.698
14.4613 12.882
14.4765 12.130
14.4916 11.647
14.5068 11.974
14.5220 11.778
14.5372 11.380
14.5523 11.271
14.5675 11.185
14.5827 11.218
14.5979 10.795
14.6130 10.910
14.6282 10.752
14.6434 10.931
14.6586 10.977
14.6737 10.624
14.6889 10.642
14.7041 10.488
14.7193 10.655
14.7344 10.689
14.7496 10.568
14.7648 10.521
14.7800 10.685
14.7951 10.671
14.8103 10.330
14.8255 10.394
14.8407 10.163
14.8558 10.365
14.8710 10.238
14.8862 10.227
14.9014 10.123
14.9165 10.656
14.9317 10.426
14.9469 10.055
14.9621 10.446
14.9772 10.225
14.9924 10.351
15.0076 10.362
15.0228 10.158
15.0379 10.309
15.0531 10.446
15.0683 10.419
15.0835 10.115
15.0986 9.947
15.1138 10.421
15.1290 10.405
15.1442 10.034
15.1593 10.272
15.1745 10.205
15.1897 10.330
15.2049 10.254
15.2200 10.146
15.2352 10.209
15.2504 10.113
15.2656 9.828
15.2807 10.126
15.2959 9.968
15.3111 9.895
15.3263 10.036
15.3414 10.090
15.3566 10.304
15.3718 10.009
15.3870 9.982
15.4021 10.140
15.4173 10.170
15.4325 10.346
15.4477 10.323
15.4628 9.856
15.4780 10.279
15.4932 9.846
15.5084 10.345
15.5235 10.024
15.5387 9.864
15.5539 10.236
15.5691 10.030
15.5842 9.831
15.5994 10.224
15.6146 10.041
15.6298 10.020
15.6449 10.018
15.6601 9.759
15.6753 9.866
15.6905 9.854
15.7056 9.707
15.7208 9.463
15.7360 9.851
15.7512 9.835
15.7663 9.854
15.7815 9.859
15.7967 9.671
15.8119 9.746
15.8270 9.701
15.8422 9.759
15.8574 9.612
15.8726 9.470
15.8877 9.612
15.9029 9.500
15.9181 9.375
15.9333 9.764
15.9484 9.859
15.9636 9.767
15.9788 9.724
15.9940 9.551
16.0091 9.564
16.0243 9.550
16.0395 9.608
16.0547 9.643
16.0698 9.669
16.0850 9.455
16.1002 9.471
16.1154 9.598
16.1305 9.416
16.1457 9.511
16.1609 9.512
16.1761 9.742
16.1912 9.930
16.2064 9.714
16.2216 9.750
16.2368 9.960
16.2519 9.607
16.2671 9.853
16.2823 9.569
16.2975 9.430
16.3126 9.559
16.3278 9.484
16.3430 9.742
16.3582 9.906
16.3733 9.822
16.3885 9.648
16.4037 9.777
16.4189 10.015
16.4340 9.990
16.4492 9.997
16.4644 9.808
16.4796 9.557
16.4947 9.461
16.5099 9.718
16.5251 9.684
16.5403 9.693
16.5554 9.752
16.5706 9.611
16.5858 9.712
16.6010 9.719
16.6161 9.701
16.6313 9.604
16.6465 9.586
16.6617 9.587
16.6768 9.736
16.6920 9.857
16.7072 10.033
16.7224 10.031
16.7375 9.764
16.7527 9.808
16.7679 9.791
16.7831 10.092
16.7982 10.113
16.8134 9.889
16.8286 9.882
16.8438 9.783
16.8589 9.682
16.8741 9.571
16.8893 9.547
16.9045 9.907
16.9196 9.825
16.9348 9.621
16.9500 9.645
16.9652 9.880
16.9803 9.826
16.9955 9.730
17.0107 9.660
17.0259 9.664
17.0410 9.777
17.0562 10.028
17.0714 10.329
17.0866 10.678
17.1017 10.670
17.1169 10.467
17.1321 10.605
17.1473 11.219
17.1624 11.677
17.1776 12.187
17.1928 12.931
17.2080 13.898
17.2231 15.180
17.2383 16.450
17.2535 17.811
17.2687 18.894
17.2838 18.725
17.2990 18.205
17.3142 17.308
17.3294 16.522
17.3445 16.310
17.3597 16.101
17.3749 15.879
17.3901 15.236
17.4052 14.374
17.4204 13.599
17.4356 12.892
17.4508 12.125
17.4659 11.816
17.4811 11.775
17.4963 11.552
17.5115 11.246
17.5266 11.084
17.5418 10.948
17.5570 10.835
17.5722 10.840
17.5873 10.929
17.6025 11.074
17.6177 11.087
17.6329 11.233
17.6480 11.443
17.6632 11.491
17.6784 11.491
17.6936 11.545
17.7087 11.374
17.7239 11.167
17.7391 11.094
17.7543 11.183
17.7694 11.146
17.7846 10.979
17.7998 10.779
17.8150 10.549
17.8301 10.425
17.8453 10.361
17.8605 10.372
17.8757 10.333
17.8908 10.327
17.9060 10.266
17.9212 10.203
17.9364 10.240
17.9515 9.998
17.9667 10.043
17.9819 10.107
17.9971 9.926
18.0122 10.017
18.0274 10.125
18.0426 10.236
18.0578 10.085
18.0729 9.956
18.0881 10.062
18.1033 9.985
18.1185 10.054
18.1336 10.052
18.1488 9.900
18.1640 9.972
18.1792 10.346
18.1943 10.143
18.2095 9.896
18.2247 9.871
18.2399 9.819
18.2550 10.109
18.2702 9.955
18.2854 9.848
18.3006 9.811
18.3157 9.701
18.3309 9.653
18.3461 9.814
18.3613 9.810
18.3764 9.837
18.3916 9.918
18.4068 9.868
18.4220 9.787
18.4371 9.738
18.4523 9.818
18.4675 9.887
18.4827 9.661
18.4978 9.603
18.5130 9.781
18.5282 9.725
18.5434 9.564
18.5585 9.733
18.5737 9.977
18.5889 9.948
18.6041 9.840
18.6192 9.805
18.6344 9.669
18.6496 9.574
18.6648 9.750
18.6799 9.846
18.6951 9.653
18.7103 9.721
18.7255 9.795
18.7406 9.753
18.7558 9.887
18.7710 9.801
18.7862 9.823
18.8013 9.766
18.8165 9.598
18.8317 9.755
18.8469 9.788
18.8620 9.837
18.8772 10.201
18.8924 9.997
18.9076 9.819
18.9227 9.926
18.9379 9.902
18.9531 9.778
18.9683 10.005
18.9834 9.949
18.9986 10.023
19.0138 10.141
19.0290 10.241
19.0441 10.288
19.0593 10.233
19.0745 10.257
19.0897 10.374
19.1048 10.233
19.1200 10.115
19.1352 10.326
19.1504 10.396
19.1655 10.301
19.1807 10.446
19.1959 10.473
19.2111 10.622
19.2262 10.548
19.2414 10.630
19.2566 11.081
19.2718 11.077
19.2869 10.903
19.3021 11.072
19.3173 11.243
19.3325 11.191
19.3476 11.118
19.3628 10.957
19.3780 10.816
19.3932 11.136
19.4083 11.485
19.4235 11.288
19.4387 11.169
19.4539 11.171
19.4690 11.159
19.4842 11.424
19.4994 11.449
19.5146 11.373
19.5297 11.680
19.5449 11.800
19.5601 11.579
19.5753 11.557
19.5904 11.672
19.6056 11.636
19.6208 11.607
19.6360 11.630
19.6511 11.793
19.6663 11.835
19.6815 11.722
19.6967 11.557
19.7118 11.480
19.7270 11.549
19.7422 11.657
19.7574 11.769
19.7725 11.843
19.7877 11.924
19.8029 12.066
19.8180 12.111
19.8332 12.178
19.8484 12.275
19.8636 12.403
19.8787 12.634
19.8939 12.885
19.9091 13.149
19.9243 13.313
19.9394 13.963
19.9546 14.622
19.9698 14.673
19.9850 14.599
20.0001 14.622
20.0153 14.283
20.0305 13.732
20.0457 13.648
20.0608 13.558
20.0760 13.637
20.0912 13.739
20.1064 13.645
20.1215 13.712
20.1367 13.447
20.1519 13.043
20.1671 12.902
20.1822 12.718
20.1974 12.943
20.2126 12.849
20.2278 12.834
20.2429 12.618
20.2581 12.322
20.2733 12.154
20.2885 12.087
20.3036 12.115
20.3188 12.049
20.3340 12.052
20.3492 12.126
20.3643 12.036
20.3795 11.869
20.3947 11.758
20.4099 11.865
20.4250 11.931
20.4402 11.921
20.4554 12.038
20.4706 11.865
20.4857 11.884
20.5009 11.535
20.5161 11.550
20.5313 11.323
20.5464 11.259
20.5616 11.550
20.5768 11.253
20.5920 11.120
20.6071 11.172
20.6223 10.933
20.6375 10.839
20.6527 10.608
20.6678 10.652
20.6830 10.640
20.6982 10.540
20.7134 10.785
20.7285 10.416
20.7437 10.758
20.7589 10.336
20.7741 10.208
20.7892 10.436
20.8044 10.390
20.8196 10.385
20.8348 10.182
20.8499 10.218
20.8651 10.312
20.8803 10.228
20.8955 10.116
20.9106 9.986
20.9258 10.320
20.9410 10.295
20.9562 10.117
20.9713 10.055
20.9865 10.222
21.0017 9.985
21.0169 9.805
21.0320 10.005
21.0472 9.945
21.0624 10.120
21.0776 9.891
21.0927 9.810
21.1079 9.852
21.1231 10.108
21.1383 9.713
21.1534 10.066
21.1686 9.760
21.1838 9.745
21.1990 9.845
21.2141 9.848
21.2293 9.675
21.2445 9.624
21.2597 9.421
21.2748 9.553
21.2900 9.573
21.3052 9.423
21.3204 9.712
21.3355 9.692
21.3507 9.719
21.3659 9.557
21.3811 9.650
21.3962 9.610
21.4114 9.323
21.4266 9.432
21.4418 9.186
21.4569 9.101
21.4721 9.326
21.4873 9.500
21.5025 9.718
21.5176 9.465
21.5328 9.440
21.5480 9.331
21.5632 9.281
21.5783 9.449
21.5935 9.166
21.6087 9.281
21.6239 9.215
21.6390 8.902
21.6542 9.249
21.6694 9.368
21.6846 9.287
21.6997 9.381
21.7149 9.214
21.7301 9.021
21.7453 9.030
21.7604 8.977
21.7756 9.085
21.7908 9.030
21.8060 8.872
21.8211 8.730
21.8363 8.922
21.8515 9.089
21.8667 8.905
21.8818 8.966
21.8970 9.081
21.9122 9.125
21.9274 8.936
21.9425 8.907
21.9577 8.986
21.9729 8.999
21.9881 9.017
22.0032 9.128
22.0184 8.903
22.0336 8.822
22.0488 8.785
22.0639 8.664
22.0791 8.737
22.0943 8.811
22.1095 8.633
22.1246 8.687
22.1398 8.857
22.1550 8.721
22.1702 8.533
22.1853 8.835
22.2005 9.008
22.2157 8.851
22.2309 8.629
22.2460 8.629
22.2612 8.661
22.2764 8.450
22.2916 8.424
22.3067 8.545
22.3219 8.571
22.3371 8.561
22.3523 8.436
22.3674 8.489
22.3826 8.416
22.3978 8.356
22.4130 8.375
22.4281 8.367
22.4433 8.619
22.4585 8.297
22.4737 8.123
22.4888 8.474
22.5040 8.426
22.5192 8.399
22.5344 8.499
22.5495 8.304
22.5647 8.074
22.5799 8.386
22.5951 8.398
22.6102 8.651
22.6254 8.231
22.6406 8.420
22.6558 8.065
22.6709 8.211
22.6861 8.196
22.7013 7.944
22.7165 7.982
22.7316 6.371
