'Id: "" Comment: "" Operator: "Lab Manager" Anode: "Mo" Scantype: "Still (Eiger2R_500K (1D mode))" TimePerStep: "300" X: "11.8" Y: "9.4" Z: "11.284" 
7.2532 18.685
7.2684 18.980
7.2836 18.699
7.2987 18.763
7.3139 18.853
7.3291 19.203
7.3443 19.138
7.3594 19.408
7.3746 19.515
7.3898 19.339
7.4050 19.255
7.4201 19.386
7.4353 18.998
7.4505 19.423
7.4657 19.770
7.4808 19.879
7.4960 19.639
7.5112 20.127
7.5264 19.890
7.5415 19.747
7.5567 19.914
7.5719 19.992
7.5871 19.800
7.6022 19.753
7.6174 19.921
7.6326 19.997
7.6478 20.162
7.6629 19.932
7.6781 20.037
7.6933 20.077
7.7085 20.386
7.7236 20.486
7.7388 20.162
7.7540 20.449
7.7692 20.480
7.7843 20.505
7.7995 20.423
7.8147 20.276
7.8299 20.473
7.8450 20.503
7.8602 21.001
7.8754 21.022
7.8905 20.927
7.9057 20.752
7.9209 20.892
7.9361 21.010
7.9512 20.993
7.9664 20.860
7.9816 20.998
7.9968 20.962
8.0119 20.849
8.0271 21.220
8.0423 21.237
8.0575 21.377
8.0726 21.408
8.0878 21.204
8.1030 21.314
8.1182 21.867
8.1333 21.815
8.1485 21.617
8.1637 21.710
8.1789 21.878
8.1940 21.760
8.2092 21.803
8.2244 21.535
8.2396 21.463
8.2547 21.814
8.2699 21.685
8.2851 21.665
8.3003 21.455
8.3154 21.547
8.3306 21.977
8.3458 21.685
8.3610 21.607
8.3761 21.851
8.3913 22.052
8.4065 21.884
8.4217 22.136
8.4368 21.714
8.4520 21.707
8.4672 22.089
8.4824 21.847
8.4975 21.772
8.5127 21.632
8.5279 22.053
8.5431 22.313
8.5582 22.294
8.5734 22.405
8.5886 22.180
8.6038 22.452
8.6189 22.471
8.6341 22.323
8.6493 22.457
8.6645 22.703
8.6796 22.715
8.6948 22.289
8.7100 22.218
8.7252 22.084
8.7403 22.254
8.7555 22.691
8.7707 22.543
8.7859 22.564
8.8010 22.355
8.8162 21.554
8.8314 22.677
8.8466 22.266
8.8617 22.847
8.8769 22.227
8.8921 22.722
8.9073 22.595
8.9224 22.703
8.9376 22.709
8.9528 22.683
8.9680 22.564
8.9831 22.553
8.9983 22.847
9.0135 22.983
9.0287 22.924
9.0438 23.055
9.0590 22.911
9.0742 23.431
9.0894 23.234
9.1045 22.969
9.1197 22.495
9.1349 22.639
9.1501 22.218
9.1652 22.545
9.1804 22.611
9.1956 22.946
9.2108 23.468
9.2259 23.471
9.2411 23.014
9.2563 23.157
9.2715 23.420
9.2866 23.176
9.3018 23.064
9.3170 22.835
9.3322 23.016
9.3473 23.088
9.3625 23.082
9.3777 22.953
9.3929 23.223
9.4080 23.188
9.4232 22.979
9.4384 23.091
9.4536 23.223
9.4687 23.009
9.4839 22.991
9.4991 23.436
9.5143 23.365
9.5294 23.342
9.5446 23.574
9.5598 23.344
9.5750 23.181
9.5901 23.387
9.6053 23.588
9.6205 23.355
9.6357 23.671
9.6508 23.726
9.6660 23.773
9.6812 23.955
9.6964 23.655
9.7115 23.702
9.7267 23.954
9.7419 24.219
9.7571 23.988
9.7722 23.529
9.7874 23.501
9.8026 23.638
9.8178 23.771
9.8329 23.766
9.8481 23.562
9.8633 23.521
9.8785 23.667
9.8936 23.868
9.9088 23.796
9.9240 23.765
9.9392 23.924
9.9543 23.837
9.9695 23.794
9.9847 23.757
9.9999 23.333
10.0150 23.150
10.0302 23.532
10.0454 23.495
10.0606 23.456
10.0757 23.197
10.0909 23.156
10.1061 23.167
10.1213 22.978
10.1364 22.898
10.1516 22.751
10.1668 23.073
10.1820 23.120
10.1971 22.824
10.2123 22.968
10.2275 23.174
10.2427 22.975
10.2578 23.058
10.2730 23.258
10.2882 23.476
10.3034 23.251
10.3185 22.978
10.3337 23.106
10.3489 22.744
10.3641 23.236
10.3792 23.084
10.3944 23.140
10.4096 23.418
10.4248 23.472
10.4399 23.238
10.4551 23.012
10.4703 23.027
10.4855 23.125
10.5006 23.016
10.5158 22.584
10.5310 22.159
10.5462 22.427
10.5613 22.413
10.5765 22.326
10.5917 22.571
10.6069 22.798
10.6220 22.748
10.6372 22.550
10.6524 22.604
10.6676 22.375
10.6827 22.430
10.6979 22.652
10.7131 22.812
10.7283 22.439
10.7434 22.354
10.7586 22.527
10.7738 22.498
10.7890 22.695
10.8041 22.477
10.8193 22.161
10.8345 22.208
10.8497 22.293
10.8648 22.112
10.8800 22.195
10.8952 22.349
10.9104 22.674
10.9255 22.336
10.9407 22.106
10.9559 22.745
10.9711 22.041
10.9862 22.141
11.0014 22.318
11.0166 22.482
11.0318 22.414
11.0469 22.268
11.0621 22.079
11.0773 22.046
11.0925 21.639
11.1076 21.595
11.1228 21.703
11.1380 21.692
11.1532 21.905
11.1683 21.984
11.1835 21.663
11.1987 21.568
11.2139 21.530
11.2290 21.682
11.2442 21.740
11.2594 21.781
11.2746 21.787
11.2897 21.713
11.3049 21.786
11.3201 21.769
11.3353 21.943
11.3504 21.906
11.3656 21.742
11.3808 21.546
11.3960 21.710
11.4111 21.825
11.4263 21.628
11.4415 21.834
11.4567 21.630
11.4718 21.553
11.4870 21.244
11.5022 21.262
11.5174 21.549
11.5325 21.101
11.5477 21.080
11.5629 21.296
11.5781 21.438
11.5932 21.329
11.6084 21.036
11.6236 20.556
11.6388 20.655
11.6539 20.902
11.6691 20.884
11.6843 20.677
11.6995 20.584
11.7146 20.522
11.7298 20.528
11.7450 20.426
11.7602 20.272
11.7753 20.343
11.7905 20.164
11.8057 20.101
11.8209 19.818
11.8360 20.192
11.8512 20.173
11.8664 19.788
11.8816 19.866
11.8967 20.023
11.9119 19.886
11.9271 19.518
11.9423 19.693
11.9574 19.635
11.9726 19.530
11.9878 19.416
12.0030 19.062
12.0181 19.002
12.0333 18.922
12.0485 19.195
12.0637 19.549
12.0788 19.278
12.0940 19.035
12.1092 18.912
12.1244 18.761
12.1395 18.681
12.1547 18.572
12.1699 18.779
12.1851 18.540
12.2002 18.277
12.2154 18.112
12.2306 17.973
12.2458 18.048
12.2609 17.976
12.2761 17.967
12.2913 18.033
12.3065 17.894
12.3216 17.768
12.3368 17.373
12.3520 17.563
12.3672 17.666
12.3823 17.407
12.3975 17.486
12.4127 17.629
12.4279 17.139
12.4430 16.778
12.4582 16.981
12.4734 16.897
12.4886 16.849
12.5037 16.810
12.5189 16.701
12.5341 16.711
12.5493 16.434
12.5644 16.443
12.5796 16.457
12.5948 16.297
12.6100 15.916
12.6251 15.951
12.6403 16.270
12.6555 16.058
12.6707 15.949
12.6858 15.882
12.7010 15.859
12.7162 15.713
12.7314 15.518
12.7465 15.529
12.7617 15.390
12.7769 15.240
12.7921 15.295
12.8072 15.136
12.8224 15.072
12.8376 15.059
12.8528 14.974
12.8679 15.058
12.8831 15.022
12.8983 14.749
12.9135 14.857
12.9286 14.914
12.9438 14.671
12.9590 14.431
12.9742 14.639
12.9893 14.798
13.0045 14.558
13.0197 14.275
13.0349 14.012
13.0500 14.215
13.0652 14.180
13.0804 13.949
13.0956 14.074
13.1107 13.905
13.1259 14.033
13.1411 13.979
13.1563 13.609
13.1714 13.794
13.1866 13.753
13.2018 13.462
13.2170 13.473
13.2321 13.560
13.2473 13.458
13.2625 13.366
13.2777 13.418
13.2928 13.275
13.3080 13.175
13.3232 13.188
13.3384 12.766
13.3535 12.903
13.3687 13.414
13.3839 13.321
13.3991 13.128
13.4142 13.116
13.4294 13.154
13.4446 12.885
13.4598 12.586
13.4749 12.627
13.4901 12.773
13.5053 12.808
13.5205 12.902
13.5356 12.687
13.5508 12.474
13.5660 12.399
13.5812 12.455
13.5963 12.272
13.6115 12.338
13.6267 12.337
13.6419 12.228
13.6570 12.081
13.6722 12.132
13.6874 12.037
13.7026 11.937
13.7177 12.034
13.7329 12.341
13.7481 12.312
13.7633 12.089
13.7784 12.065
13.7936 12.224
13.8088 12.471
13.8239 12.556
13.8391 12.336
13.8543 12.540
13.8695 12.466
13.8846 12.167
13.8998 11.919
13.9150 11.950
13.9302 12.155
13.9453 12.206
13.9605 11.943
13.9757 11.489
13.9909 11.698
14.0060 11.762
14.0212 11.773
14.0364 11.862
14.0516 11.378
14.0667 11.486
14.0819 11.545
14.0971 11.482
14.1123 11.097
14.1274 11.381
14.1426 11.630
14.1578 11.425
14.1730 11.352
14.1881 11.484
14.2033 11.609
14.2185 11.622
14.2337 11.291
14.2488 11.627
14.2640 11.665
14.2792 11.488
14.2944 11.807
14.3095 11.677
14.3247 11.910
14.3399 12.129
14.3551 12.018
14.3702 12.052
14.3854 12.374
14.4006 12.634
14.4158 12.601
14.4309 12.445
14.4461 12.545
14.4613 12.290
14.4765 12.059
14.4916 12.323
14.5068 11.926
14.5220 11.650
14.5372 11.461
14.5523 11.194
14.5675 11.411
14.5827 11.207
14.5979 10.957
14.6130 11.062
14.6282 11.277
14.6434 11.027
14.6586 11.266
14.6737 11.191
14.6889 11.075
14.7041 11.037
14.7193 10.964
14.7344 10.878
14.7496 11.124
14.7648 11.162
14.7800 11.061
14.7951 11.093
14.8103 11.062
14.8255 10.983
14.8407 10.912
14.8558 11.248
14.8710 10.855
14.8862 10.892
14.9014 11.178
14.9165 10.940
14.9317 10.714
14.9469 10.985
14.9621 10.464
14.9772 10.273
14.9924 10.387
15.0076 10.803
15.0228 10.270
15.0379 10.783
15.0531 10.309
15.0683 10.378
15.0835 10.294
15.0986 10.635
15.1138 10.215
15.1290 10.549
15.1442 10.368
15.1593 10.616
15.1745 10.426
15.1897 10.149
15.2049 10.442
15.2200 10.110
15.2352 10.488
15.2504 10.135
15.2656 10.688
15.2807 10.411
15.2959 10.011
15.3111 10.138
15.3263 10.438
15.3414 10.427
15.3566 10.349
15.3718 10.454
15.3870 10.427
15.4021 10.271
15.4173 10.296
15.4325 10.589
15.4477 10.326
15.4628 10.429
15.4780 10.367
15.4932 10.304
15.5084 10.334
15.5235 10.540
15.5387 10.347
15.5539 10.084
15.5691 10.316
15.5842 10.287
15.5994 10.179
15.6146 9.952
15.6298 10.196
15.6449 10.114
15.6601 10.430
15.6753 10.287
15.6905 9.949
15.7056 9.927
15.7208 9.999
15.7360 9.997
15.7512 10.127
15.7663 10.081
15.7815 10.219
15.7967 10.021
15.8119 9.970
15.8270 9.957
15.8422 9.843
15.8574 10.030
15.8726 9.528
15.8877 9.660
15.9029 9.648
15.9181 9.749
15.9333 9.849
15.9484 9.875
15.9636 9.685
15.9788 9.829
15.9940 9.797
16.0091 9.725
16.0243 9.804
16.0395 10.025
16.0547 9.795
16.0698 9.946
16.0850 9.867
16.1002 9.945
16.1154 9.920
16.1305 9.701
16.1457 9.869
16.1609 9.753
16.1761 9.837
16.1912 9.721
16.2064 9.876
16.2216 9.922
16.2368 10.039
16.2519 9.789
16.2671 10.062
16.2823 9.930
16.2975 10.159
16.3126 10.161
16.3278 9.997
16.3430 10.016
16.3582 9.820
16.3733 10.165
16.3885 9.877
16.4037 10.069
16.4189 9.916
16.4340 9.848
16.4492 9.807
16.4644 9.797
16.4796 9.830
16.4947 9.726
16.5099 9.893
16.5251 9.745
16.5403 9.921
16.5554 10.178
16.5706 9.983
16.5858 9.891
16.6010 10.057
16.6161 9.827
16.6313 9.814
16.6465 9.866
16.6617 9.931
16.6768 9.955
16.6920 10.011
16.7072 9.995
16.7224 10.092
16.7375 10.034
16.7527 9.857
16.7679 9.841
16.7831 9.971
16.7982 10.114
16.8134 10.027
16.8286 9.976
16.8438 10.068
16.8589 10.162
16.8741 10.117
16.8893 10.039
16.9045 10.000
16.9196 10.032
16.9348 9.922
16.9500 10.072
16.9652 10.022
16.9803 9.899
16.9955 10.036
17.0107 9.928
17.0259 9.874
17.0410 10.097
17.0562 10.159
17.0714 10.398
17.0866 10.561
17.1017 10.526
17.1169 10.766
17.1321 10.947
17.1473 11.316
17.1624 11.959
17.1776 12.427
17.1928 13.092
17.2080 14.236
17.2231 15.321
17.2383 16.404
17.2535 18.064
17.2687 18.895
17.2838 18.713
17.2990 18.148
17.3142 17.158
17.3294 16.571
17.3445 16.272
17.3597 16.065
17.3749 16.051
17.3901 15.465
17.4052 14.309
17.4204 13.119
17.4356 12.243
17.4508 11.851
17.4659 11.453
17.4811 11.286
17.4963 11.261
17.5115 11.049
17.5266 10.644
17.5418 10.243
17.5570 10.238
17.5722 10.175
17.5873 10.194
17.6025 10.228
17.6177 10.100
17.6329 10.103
17.6480 10.131
17.6632 10.037
17.6784 10.000
17.6936 10.156
17.7087 10.248
17.7239 10.338
17.7391 10.256
17.7543 10.247
17.7694 10.263
17.7846 10.267
17.7998 10.559
17.8150 10.862
17.8301 10.790
17.8453 10.486
17.8605 10.381
17.8757 10.693
17.8908 10.804
17.9060 10.752
17.9212 10.928
17.9364 10.824
17.9515 10.400
17.9667 10.501
17.9819 10.655
17.9971 10.502
18.0122 10.261
18.0274 10.249
18.0426 10.520
18.0578 10.483
18.0729 10.280
18.0881 10.163
18.1033 10.175
18.1185 10.095
18.1336 10.124
18.1488 10.142
18.1640 10.327
18.1792 10.207
18.1943 10.165
18.2095 10.189
18.2247 10.095
18.2399 9.960
18.2550 9.942
18.2702 9.840
18.2854 9.787
18.3006 9.952
18.3157 9.947
18.3309 10.036
18.3461 9.890
18.3613 9.809
18.3764 9.645
18.3916 9.782
18.4068 9.861
18.4220 9.851
18.4371 9.782
18.4523 9.656
18.4675 9.672
18.4827 9.723
18.4978 9.832
18.5130 9.900
18.5282 9.740
18.5434 9.868
18.5585 9.861
18.5737 9.864
18.5889 9.991
18.6041 9.877
18.6192 9.722
18.6344 9.726
18.6496 9.599
18.6648 9.652
18.6799 9.555
18.6951 9.851
18.7103 9.945
18.7255 9.840
18.7406 9.781
18.7558 9.603
18.7710 9.665
18.7862 9.743
18.8013 9.705
18.8165 9.583
18.8317 9.576
18.8469 9.813
18.8620 9.947
18.8772 10.158
18.8924 10.097
18.9076 9.951
18.9227 9.991
18.9379 10.047
18.9531 9.898
18.9683 9.882
18.9834 10.007
18.9986 10.252
19.0138 10.189
19.0290 10.004
19.0441 10.134
19.0593 10.224
19.0745 10.383
19.0897 10.365
19.1048 10.202
19.1200 10.308
19.1352 10.379
19.1504 10.192
19.1655 10.399
19.1807 10.664
19.1959 10.622
19.2111 10.483
19.2262 10.443
19.2414 10.446
19.2566 10.794
19.2718 10.806
19.2869 10.916
19.3021 11.115
19.3173 11.029
19.3325 11.019
19.3476 11.070
19.3628 11.190
19.3780 11.269
19.3932 11.088
19.4083 11.245
19.4235 11.456
19.4387 11.267
19.4539 11.283
19.4690 11.343
19.4842 11.408
19.4994 11.499
19.5146 11.331
19.5297 11.271
19.5449 11.438
19.5601 11.579
19.5753 11.746
19.5904 11.926
19.6056 11.867
19.6208 11.574
19.6360 11.489
19.6511 11.838
19.6663 11.651
19.6815 11.617
19.6967 11.729
19.7118 11.569
19.7270 11.550
19.7422 11.650
19.7574 11.932
19.7725 11.984
19.7877 12.094
19.8029 11.972
19.8180 11.938
19.8332 11.959
19.8484 12.002
19.8636 12.416
19.8787 12.769
19.8939 12.842
19.9091 13.118
19.9243 13.488
19.9394 13.719
19.9546 14.047
19.9698 14.440
19.9850 14.678
20.0001 14.545
20.0153 14.066
20.0305 14.139
20.0457 14.089
20.0608 14.088
20.0760 13.952
20.0912 13.461
20.1064 13.257
20.1215 13.241
20.1367 12.917
20.1519 12.979
20.1671 13.011
20.1822 12.773
20.1974 12.751
20.2126 12.495
20.2278 12.533
20.2429 12.536
20.2581 12.133
20.2733 11.779
20.2885 11.651
20.3036 11.648
20.3188 11.591
20.3340 11.663
20.3492 11.530
20.3643 11.284
20.3795 10.970
20.3947 10.945
20.4099 11.006
20.4250 10.697
20.4402 10.622
20.4554 10.684
20.4706 10.808
20.4857 10.886
20.5009 10.634
20.5161 10.533
20.5313 11.030
20.5464 10.796
20.5616 10.583
20.5768 10.457
20.5920 10.420
20.6071 10.710
20.6223 10.429
20.6375 10.630
20.6527 10.576
20.6678 10.573
20.6830 10.362
20.6982 10.500
20.7134 10.491
20.7285 10.362
20.7437 10.384
20.7589 10.344
20.7741 10.261
20.7892 10.280
20.8044 10.286
20.8196 10.198
20.8348 10.417
20.8499 10.294
20.8651 10.134
20.8803 10.380
20.8955 10.579
20.9106 10.529
20.9258 10.236
20.9410 10.319
20.9562 10.491
20.9713 10.568
20.9865 10.240
21.0017 10.241
21.0169 10.076
21.0320 10.218
21.0472 10.397
21.0624 10.019
21.0776 10.051
21.0927 10.121
21.1079 9.691
21.1231 10.030
21.1383 9.745
21.1534 9.870
21.1686 9.996
21.1838 9.784
21.1990 9.692
21.2141 10.072
21.2293 9.949
21.2445 9.516
21.2597 9.462
21.2748 9.700
21.2900 9.529
21.3052 9.581
21.3204 9.615
21.3355 9.371
21.3507 9.588
21.3659 9.650
21.3811 9.456
21.3962 9.496
21.4114 9.501
21.4266 9.455
21.4418 9.295
21.4569 9.583
21.4721 9.761
21.4873 9.355
21.5025 9.152
21.5176 9.532
21.5328 9.552
21.5480 9.416
21.5632 9.107
21.5783 9.423
21.5935 9.363
21.6087 9.306
21.6239 9.283
21.6390 9.102
21.6542 9.013
21.6694 9.208
21.6846 9.126
21.6997 8.789
21.7149 8.916
21.7301 9.252
21.7453 9.232
21.7604 9.108
21.7756 9.048
21.7908 8.877
21.8060 8.901
21.8211 9.044
21.8363 9.156
21.8515 8.992
21.8667 9.193
21.8818 9.199
21.8970 8.991
21.9122 8.907
21.9274 8.910
21.9425 8.983
21.9577 9.197
21.9729 9.036
21.9881 8.970
22.0032 8.911
22.0184 8.783
22.0336 8.698
22.0488 8.641
22.0639 8.615
22.0791 8.662
22.0943 8.755
22.1095 8.831
22.1246 8.803
22.1398 8.665
22.1550 8.654
22.1702 8.814
22.1853 8.928
22.2005 8.882
22.2157 8.829
22.2309 8.707
22.2460 8.624
22.2612 8.670
22.2764 8.558
22.2916 8.672
22.3067 8.431
22.3219 8.512
22.3371 8.482
22.3523 8.724
22.3674 8.625
22.3826 8.610
22.3978 8.745
22.4130 8.622
22.4281 8.566
22.4433 8.701
22.4585 8.506
22.4737 8.208
22.4888 8.820
22.5040 8.498
22.5192 8.671
22.5344 8.546
22.5495 8.631
22.5647 8.778
22.5799 8.279
22.5951 8.632
22.6102 8.532
22.6254 8.393
22.6406 8.575
22.6558 8.364
22.6709 8.284
22.6861 8.345
22.7013 8.232
22.7165 8.053
22.7316 6.380
