'Id: "" Comment: "" Operator: "Lab Manager" Anode: "Mo" Scantype: "Still (Eiger2R_500K (1D mode))" TimePerStep: "300" X: "11.8" Y: "9.4" Z: "11.284" 
7.2532 18.774
7.2684 18.933
7.2836 19.095
7.2987 19.643
7.3139 19.510
7.3291 19.700
7.3443 19.546
7.3594 19.837
7.3746 19.636
7.3898 19.501
7.4050 19.408
7.4201 19.862
7.4353 19.785
7.4505 19.686
7.4657 19.417
7.4808 19.795
7.4960 19.732
7.5112 19.847
7.5264 20.047
7.5415 20.198
7.5567 20.069
7.5719 19.791
7.5871 19.816
7.6022 20.150
7.6174 20.157
7.6326 20.150
7.6478 20.403
7.6629 20.139
7.6781 20.141
7.6933 20.631
7.7085 20.733
7.7236 20.636
7.7388 20.491
7.7540 20.763
7.7692 20.616
7.7843 20.405
7.7995 20.520
7.8147 20.597
7.8299 20.466
7.8450 20.750
7.8602 21.068
7.8754 21.054
7.8905 20.897
7.9057 20.981
7.9209 21.081
7.9361 21.047
7.9512 21.261
7.9664 21.050
7.9816 21.181
7.9968 21.353
8.0119 21.040
8.0271 21.103
8.0423 21.412
8.0575 21.502
8.0726 21.480
8.0878 21.355
8.1030 21.960
8.1182 22.117
8.1333 21.762
8.1485 22.005
8.1637 21.863
8.1789 21.557
8.1940 21.782
8.2092 21.890
8.2244 22.111
8.2396 22.226
8.2547 22.055
8.2699 22.077
8.2851 21.671
8.3003 21.758
8.3154 21.872
8.3306 21.535
8.3458 21.947
8.3610 22.167
8.3761 22.303
8.3913 22.172
8.4065 22.030
8.4217 22.202
8.4368 22.352
8.4520 22.213
8.4672 22.359
8.4824 22.058
8.4975 22.029
8.5127 22.456
8.5279 22.398
8.5431 22.550
8.5582 22.757
8.5734 22.202
8.5886 22.585
8.6038 21.943
8.6189 22.323
8.6341 22.361
8.6493 22.677
8.6645 22.531
8.6796 22.846
8.6948 22.604
8.7100 22.961
8.7252 22.521
8.7403 22.123
8.7555 22.851
8.7707 22.973
8.7859 22.845
8.8010 22.777
8.8162 22.925
8.8314 22.500
8.8466 22.777
8.8617 22.864
8.8769 22.842
8.8921 23.097
8.9073 22.961
8.9224 23.231
8.9376 22.598
8.9528 22.920
8.9680 23.042
8.9831 22.807
8.9983 23.280
9.0135 23.168
9.0287 23.227
9.0438 23.088
9.0590 23.147
9.0742 23.148
9.0894 22.991
9.1045 22.979
9.1197 22.955
9.1349 23.248
9.1501 23.364
9.1652 22.981
9.1804 23.106
9.1956 23.364
9.2108 23.193
9.2259 23.143
9.2411 23.222
9.2563 23.233
9.2715 23.333
9.2866 22.980
9.3018 22.889
9.3170 23.366
9.3322 23.267
9.3473 23.095
9.3625 22.879
9.3777 23.037
9.3929 23.197
9.4080 23.170
9.4232 23.508
9.4384 23.541
9.4536 23.222
9.4687 23.687
9.4839 23.572
9.4991 23.248
9.5143 23.489
9.5294 23.459
9.5446 23.265
9.5598 23.167
9.5750 23.036
9.5901 23.460
9.6053 23.725
9.6205 23.621
9.6357 23.666
9.6508 23.759
9.6660 23.620
9.6812 23.738
9.6964 24.182
9.7115 24.240
9.7267 24.114
9.7419 24.232
9.7571 24.418
9.7722 24.545
9.7874 24.351
9.8026 24.342
9.8178 24.339
9.8329 24.325
9.8481 24.398
9.8633 23.906
9.8785 23.700
9.8936 24.169
9.9088 24.264
9.9240 24.241
9.9392 24.532
9.9543 24.503
9.9695 24.004
9.9847 23.930
9.9999 24.043
10.0150 23.840
10.0302 23.660
10.0454 23.846
10.0606 23.745
10.0757 23.693
10.0909 23.542
10.1061 23.686
10.1213 23.826
10.1364 23.790
10.1516 24.053
10.1668 24.052
10.1820 24.085
10.1971 23.981
10.2123 23.540
10.2275 23.462
10.2427 23.650
10.2578 23.612
10.2730 23.528
10.2882 23.711
10.3034 23.404
10.3185 23.214
10.3337 23.277
10.3489 23.101
10.3641 23.234
10.3792 23.454
10.3944 23.656
10.4096 23.487
10.4248 23.530
10.4399 23.335
10.4551 22.975
10.4703 22.919
10.4855 22.981
10.5006 23.191
10.5158 23.516
10.5310 23.352
10.5462 22.705
10.5613 22.721
10.5765 22.802
10.5917 22.637
10.6069 22.884
10.6220 22.768
10.6372 22.950
10.6524 22.816
10.6676 22.752
10.6827 22.656
10.6979 22.708
10.7131 23.087
10.7283 22.703
10.7434 22.753
10.7586 22.678
10.7738 22.398
10.7890 22.253
10.8041 22.479
10.8193 22.510
10.8345 22.601
10.8497 22.482
10.8648 22.568
10.8800 22.850
10.8952 22.373
10.9104 22.231
10.9255 22.151
10.9407 22.351
10.9559 22.235
10.9711 22.561
10.9862 22.582
11.0014 22.378
11.0166 22.322
11.0318 22.461
11.0469 22.264
11.0621 22.390
11.0773 22.436
11.0925 21.992
11.1076 21.995
11.1228 21.874
11.1380 22.150
11.1532 22.312
11.1683 21.989
11.1835 21.861
11.1987 21.997
11.2139 21.884
11.2290 21.912
11.2442 21.764
11.2594 21.717
11.2746 21.419
11.2897 21.122
11.3049 21.412
11.3201 21.472
11.3353 21.276
11.3504 21.748
11.3656 21.713
11.3808 21.588
11.3960 21.450
11.4111 21.252
11.4263 21.577
11.4415 21.567
11.4567 21.106
11.4718 21.355
11.4870 21.507
11.5022 21.675
11.5174 21.864
11.5325 21.243
11.5477 21.132
11.5629 21.246
11.5781 20.970
11.5932 21.037
11.6084 21.181
11.6236 21.494
11.6388 21.262
11.6539 20.900
11.6691 21.104
11.6843 20.531
11.6995 20.109
11.7146 20.498
11.7298 20.299
11.7450 20.128
11.7602 20.388
11.7753 20.806
11.7905 20.481
11.8057 20.348
11.8209 20.328
11.8360 20.068
11.8512 20.121
11.8664 19.824
11.8816 19.725
11.8967 19.582
11.9119 19.503
11.9271 19.808
11.9423 19.671
11.9574 19.746
11.9726 19.787
11.9878 19.622
12.0030 19.788
12.0181 19.341
12.0333 19.100
12.0485 18.993
12.0637 19.150
12.0788 19.298
12.0940 19.137
12.1092 18.920
12.1244 19.111
12.1395 18.837
12.1547 18.887
12.1699 18.609
12.1851 18.476
12.2002 18.469
12.2154 18.227
12.2306 18.385
12.2458 18.507
12.2609 18.161
12.2761 18.011
12.2913 17.835
12.3065 17.814
12.3216 17.806
12.3368 17.795
12.3520 17.623
12.3672 17.408
12.3823 17.524
12.3975 17.458
12.4127 16.919
12.4279 16.750
12.4430 16.931
12.4582 17.193
12.4734 17.163
12.4886 16.817
12.5037 16.568
12.5189 16.704
12.5341 16.622
12.5493 16.450
12.5644 16.519
12.5796 16.520
12.5948 15.988
12.6100 16.099
12.6251 16.254
12.6403 16.107
12.6555 15.936
12.6707 15.917
12.6858 15.891
12.7010 15.737
12.7162 15.618
12.7314 15.460
12.7465 15.300
12.7617 15.235
12.7769 15.305
12.7921 15.470
12.8072 15.479
12.8224 15.050
12.8376 14.666
12.8528 14.767
12.8679 14.794
12.8831 14.822
12.8983 14.880
12.9135 14.830
12.9286 14.561
12.9438 14.503
12.9590 14.353
12.9742 14.411
12.9893 14.786
13.0045 14.398
13.0197 14.034
13.0349 14.091
13.0500 13.927
13.0652 14.019
13.0804 14.190
13.0956 14.064
13.1107 13.848
13.1259 13.636
13.1411 13.569
13.1563 13.652
13.1714 13.618
13.1866 13.525
13.2018 13.629
13.2170 13.572
13.2321 13.493
13.2473 13.505
13.2625 13.447
13.2777 13.333
13.2928 13.259
13.3080 13.429
13.3232 13.436
13.3384 13.118
13.3535 13.069
13.3687 13.229
13.3839 13.163
13.3991 13.051
13.4142 12.963
13.4294 12.949
13.4446 12.942
13.4598 12.852
13.4749 12.540
13.4901 12.611
13.5053 12.776
13.5205 12.675
13.5356 12.434
13.5508 12.432
13.5660 12.298
13.5812 12.239
13.5963 12.416
13.6115 12.550
13.6267 12.419
13.6419 12.182
13.6570 12.256
13.6722 12.301
13.6874 12.220
13.7026 12.389
13.7177 12.324
13.7329 12.141
13.7481 12.046
13.7633 12.173
13.7784 11.936
13.7936 12.192
13.8088 12.492
13.8239 12.069
13.8391 12.296
13.8543 12.170
13.8695 12.096
13.8846 12.264
13.8998 12.131
13.9150 12.415
13.9302 12.168
13.9453 11.910
13.9605 11.976
13.9757 11.667
13.9909 11.669
14.0060 11.597
14.0212 11.712
14.0364 11.809
14.0516 11.400
14.0667 11.312
14.0819 11.282
14.0971 11.400
14.1123 11.360
14.1274 11.530
14.1426 11.367
14.1578 11.526
14.1730 11.336
14.1881 11.127
14.2033 11.281
14.2185 11.603
14.2337 11.562
14.2488 11.528
14.2640 11.397
14.2792 11.471
14.2944 11.535
14.3095 12.026
14.3247 12.122
14.3399 12.123
14.3551 12.377
14.3702 12.604
14.3854 12.991
14.4006 13.414
14.4158 14.175
14.4309 14.442
14.4461 14.659
14.4613 14.510
14.4765 14.210
14.4916 14.294
14.5068 14.177
14.5220 13.833
14.5372 13.095
14.5523 13.186
14.5675 12.683
14.5827 12.242
14.5979 11.862
14.6130 11.219
14.6282 11.496
14.6434 11.473
14.6586 11.265
14.6737 11.323
14.6889 11.323
14.7041 11.347
14.7193 11.480
14.7344 11.411
14.7496 11.270
14.7648 11.250
14.7800 11.257
14.7951 11.457
14.8103 11.459
14.8255 11.214
14.8407 11.092
14.8558 10.944
14.8710 11.033
14.8862 11.064
14.9014 10.992
14.9165 11.507
14.9317 11.225
14.9469 10.770
14.9621 11.001
14.9772 10.907
14.9924 10.952
15.0076 10.875
15.0228 10.540
15.0379 10.906
15.0531 10.769
15.0683 10.863
15.0835 10.563
15.0986 10.712
15.1138 10.466
15.1290 10.206
15.1442 10.691
15.1593 10.330
15.1745 10.754
15.1897 10.577
15.2049 10.435
15.2200 10.631
15.2352 10.834
15.2504 10.547
15.2656 10.047
15.2807 10.557
15.2959 10.379
15.3111 10.391
15.3263 10.196
15.3414 10.327
15.3566 10.426
15.3718 10.497
15.3870 10.508
15.4021 10.341
15.4173 10.335
15.4325 10.535
15.4477 10.388
15.4628 10.585
15.4780 10.498
15.4932 10.179
15.5084 10.615
15.5235 10.435
15.5387 10.397
15.5539 10.131
15.5691 10.217
15.5842 10.406
15.5994 10.501
15.6146 10.042
15.6298 9.948
15.6449 9.944
15.6601 10.034
15.6753 10.286
15.6905 9.804
15.7056 10.172
15.7208 10.200
15.7360 10.096
15.7512 10.028
15.7663 9.866
15.7815 9.972
15.7967 10.170
15.8119 9.818
15.8270 10.127
15.8422 9.824
15.8574 9.843
15.8726 10.097
15.8877 10.306
15.9029 9.819
15.9181 9.832
15.9333 9.727
15.9484 9.810
15.9636 9.814
15.9788 9.837
15.9940 9.652
16.0091 9.782
16.0243 9.692
16.0395 9.936
16.0547 9.788
16.0698 9.861
16.0850 9.746
16.1002 9.803
16.1154 9.520
16.1305 9.820
16.1457 9.737
16.1609 9.658
16.1761 9.807
16.1912 9.639
16.2064 9.777
16.2216 9.856
16.2368 9.865
16.2519 9.885
16.2671 10.089
16.2823 10.450
16.2975 10.282
16.3126 10.086
16.3278 10.045
16.3430 10.046
16.3582 10.262
16.3733 10.118
16.3885 10.302
16.4037 10.120
16.4189 9.900
16.4340 9.878
16.4492 9.904
16.4644 9.753
16.4796 10.037
16.4947 10.080
16.5099 9.746
16.5251 9.900
16.5403 9.762
16.5554 9.838
16.5706 9.835
16.5858 9.793
16.6010 9.968
16.6161 10.004
16.6313 9.700
16.6465 9.811
16.6617 9.871
16.6768 10.222
16.6920 10.156
16.7072 9.980
16.7224 9.948
16.7375 10.162
16.7527 10.279
16.7679 10.072
16.7831 10.042
16.7982 9.942
16.8134 10.090
16.8286 10.290
16.8438 9.826
16.8589 9.701
16.8741 9.814
16.8893 9.731
16.9045 9.661
16.9196 9.800
16.9348 9.717
16.9500 9.792
16.9652 9.963
16.9803 9.945
16.9955 9.703
17.0107 9.722
17.0259 9.934
17.0410 10.151
17.0562 10.233
17.0714 10.154
17.0866 10.360
17.1017 10.557
17.1169 10.687
17.1321 11.039
17.1473 11.455
17.1624 11.808
17.1776 12.320
17.1928 12.917
17.2080 14.088
17.2231 15.143
17.2383 16.178
17.2535 17.806
17.2687 18.918
17.2838 18.745
17.2990 17.984
17.3142 17.108
17.3294 16.370
17.3445 15.992
17.3597 15.981
17.3749 15.986
17.3901 15.411
17.4052 14.170
17.4204 13.156
17.4356 12.592
17.4508 11.944
17.4659 11.600
17.4811 11.413
17.4963 11.241
17.5115 11.051
17.5266 10.903
17.5418 10.596
17.5570 10.424
17.5722 10.474
17.5873 10.625
17.6025 10.734
17.6177 10.424
17.6329 10.457
17.6480 10.707
17.6632 10.828
17.6784 11.090
17.6936 11.257
17.7087 11.309
17.7239 11.679
17.7391 12.013
17.7543 12.033
17.7694 11.954
17.7846 12.245
17.7998 12.586
17.8150 12.567
17.8301 12.434
17.8453 12.495
17.8605 12.457
17.8757 12.518
17.8908 12.348
17.9060 12.020
17.9212 11.942
17.9364 11.977
17.9515 11.377
17.9667 11.142
17.9819 11.081
17.9971 10.729
18.0122 10.828
18.0274 11.013
18.0426 10.358
18.0578 10.210
18.0729 10.316
18.0881 10.168
18.1033 10.284
18.1185 10.199
18.1336 10.172
18.1488 10.278
18.1640 10.225
18.1792 10.194
18.1943 10.194
18.2095 10.289
18.2247 10.028
18.2399 9.804
18.2550 9.924
18.2702 10.049
18.2854 10.171
18.3006 10.000
18.3157 9.894
18.3309 9.848
18.3461 9.956
18.3613 10.180
18.3764 9.993
18.3916 9.630
18.4068 9.762
18.4220 10.043
18.4371 9.943
18.4523 9.785
18.4675 9.940
18.4827 9.851
18.4978 10.083
18.5130 10.137
18.5282 10.010
18.5434 9.880
18.5585 9.869
18.5737 9.942
18.5889 10.062
18.6041 10.035
18.6192 9.923
18.6344 9.997
18.6496 9.872
18.6648 9.816
18.6799 10.119
18.6951 9.950
18.7103 9.718
18.7255 9.662
18.7406 9.965
18.7558 10.148
18.7710 10.046
18.7862 10.011
18.8013 9.949
18.8165 9.697
18.8317 9.940
18.8469 9.947
18.8620 9.706
18.8772 9.992
18.8924 10.127
18.9076 9.810
18.9227 9.885
18.9379 10.022
18.9531 10.050
18.9683 10.145
18.9834 10.145
18.9986 10.172
19.0138 10.117
19.0290 10.210
19.0441 10.295
19.0593 10.113
19.0745 10.152
19.0897 10.145
19.1048 10.278
19.1200 10.562
19.1352 10.494
19.1504 10.323
19.1655 10.318
19.1807 10.600
19.1959 10.784
19.2111 10.824
19.2262 10.693
19.2414 10.698
19.2566 10.967
19.2718 10.890
19.2869 10.918
19.3021 11.251
19.3173 11.157
19.3325 10.980
19.3476 10.930
19.3628 10.977
19.3780 11.328
19.3932 11.346
19.4083 11.216
19.4235 11.275
19.4387 11.579
19.4539 11.408
19.4690 11.498
19.4842 11.663
19.4994 11.466
19.5146 11.453
19.5297 11.468
19.5449 11.635
19.5601 11.792
19.5753 11.841
19.5904 11.774
19.6056 11.674
19.6208 11.685
19.6360 11.713
19.6511 11.471
19.6663 11.622
19.6815 11.744
19.6967 11.772
19.7118 12.044
19.7270 11.844
19.7422 11.772
19.7574 11.761
19.7725 11.659
19.7877 11.643
19.8029 11.964
19.8180 12.229
19.8332 12.008
19.8484 12.266
19.8636 12.567
19.8787 12.628
19.8939 13.106
19.9091 13.142
19.9243 13.193
19.9394 13.759
19.9546 14.314
19.9698 14.613
19.9850 14.605
20.0001 14.428
20.0153 14.502
20.0305 13.973
20.0457 13.596
20.0608 13.841
20.0760 13.830
20.0912 13.816
20.1064 13.718
20.1215 13.436
20.1367 13.211
20.1519 13.152
20.1671 12.919
20.1822 12.814
20.1974 12.644
20.2126 12.545
20.2278 12.442
20.2429 12.581
20.2581 12.390
20.2733 11.941
20.2885 11.869
20.3036 11.886
20.3188 11.667
20.3340 11.467
20.3492 11.554
20.3643 11.579
20.3795 11.352
20.3947 11.056
20.4099 11.035
20.4250 11.276
20.4402 11.245
20.4554 11.263
20.4706 11.356
20.4857 11.302
20.5009 11.615
20.5161 11.770
20.5313 11.579
20.5464 11.366
20.5616 11.472
20.5768 11.289
20.5920 11.543
20.6071 11.412
20.6223 11.276
20.6375 11.226
20.6527 10.694
20.6678 10.937
20.6830 11.060
20.6982 10.945
20.7134 11.168
20.7285 10.947
20.7437 10.845
20.7589 10.725
20.7741 10.608
20.7892 10.456
20.8044 10.409
20.8196 10.522
20.8348 10.907
20.8499 10.367
20.8651 10.364
20.8803 10.472
20.8955 10.256
20.9106 10.541
20.9258 10.470
20.9410 10.633
20.9562 10.498
20.9713 10.517
20.9865 10.868
21.0017 10.646
21.0169 10.674
21.0320 10.543
21.0472 10.480
21.0624 10.422
21.0776 10.188
21.0927 10.455
21.1079 10.362
21.1231 10.280
21.1383 10.372
21.1534 10.064
21.1686 10.285
21.1838 9.680
21.1990 9.978
21.2141 9.926
21.2293 9.952
21.2445 9.738
21.2597 9.730
21.2748 9.740
21.2900 10.024
21.3052 9.501
21.3204 9.773
21.3355 9.378
21.3507 9.786
21.3659 9.375
21.3811 9.361
21.3962 9.608
21.4114 9.504
21.4266 9.448
21.4418 9.451
21.4569 9.532
21.4721 9.527
21.4873 9.411
21.5025 9.561
21.5176 9.393
21.5328 9.367
21.5480 9.484
21.5632 9.272
21.5783 9.376
21.5935 9.231
21.6087 9.299
21.6239 9.452
21.6390 9.089
21.6542 9.129
21.6694 9.258
21.6846 9.284
21.6997 9.153
21.7149 8.968
21.7301 9.050
21.7453 9.102
21.7604 9.343
21.7756 9.006
21.7908 8.941
21.8060 9.211
21.8211 9.351
21.8363 9.130
21.8515 9.205
21.8667 9.164
21.8818 9.089
21.8970 9.113
21.9122 9.146
21.9274 9.004
21.9425 8.997
21.9577 9.062
21.9729 8.877
21.9881 8.799
22.0032 8.745
22.0184 8.786
22.0336 8.633
22.0488 8.756
22.0639 8.872
22.0791 8.678
22.0943 8.851
22.1095 8.852
22.1246 8.679
22.1398 8.731
22.1550 8.620
22.1702 8.663
22.1853 8.871
22.2005 8.625
22.2157 8.426
22.2309 8.415
22.2460 8.493
22.2612 8.623
22.2764 8.613
22.2916 8.680
22.3067 8.659
22.3219 8.392
22.3371 8.619
22.3523 8.500
22.3674 8.570
22.3826 8.698
22.3978 8.366
22.4130 8.306
22.4281 8.550
22.4433 8.384
22.4585 8.588
22.4737 8.417
22.4888 8.571
22.5040 8.597
22.5192 8.575
22.5344 8.600
22.5495 8.683
22.5647 8.718
22.5799 8.587
22.5951 8.558
22.6102 8.543
22.6254 8.029
22.6406 8.534
22.6558 8.365
22.6709 8.341
22.6861 8.426
22.7013 8.412
22.7165 7.913
22.7316 6.409
