'Id: "" Comment: "" Operator: "Lab Manager" Anode: "Mo" Scantype: "Still (Eiger2R_500K (1D mode))" TimePerStep: "300" X: "11.8" Y: "9.4" Z: "11.284" 
7.2532 18.865
7.2684 18.835
7.2836 19.032
7.2987 19.209
7.3139 19.290
7.3291 18.982
7.3443 19.128
7.3594 19.505
7.3746 19.351
7.3898 19.130
7.4050 18.800
7.4201 19.425
7.4353 19.190
7.4505 18.974
7.4657 19.465
7.4808 19.475
7.4960 19.579
7.5112 19.561
7.5264 19.669
7.5415 19.702
7.5567 19.753
7.5719 19.713
7.5871 20.001
7.6022 19.907
7.6174 19.869
7.6326 20.011
7.6478 19.959
7.6629 20.247
7.6781 20.191
7.6933 20.011
7.7085 20.277
7.7236 20.530
7.7388 20.410
7.7540 20.205
7.7692 20.424
7.7843 20.586
7.7995 20.591
7.8147 20.727
7.8299 21.084
7.8450 21.152
7.8602 20.955
7.8754 20.881
7.8905 21.134
7.9057 21.356
7.9209 21.493
7.9361 21.536
7.9512 21.219
7.9664 21.185
7.9816 21.100
7.9968 21.169
8.0119 21.347
8.0271 21.134
8.0423 21.200
8.0575 20.792
8.0726 21.201
8.0878 21.365
8.1030 21.327
8.1182 21.415
8.1333 21.241
8.1485 21.566
8.1637 21.348
8.1789 22.234
8.1940 21.470
8.2092 21.534
8.2244 21.657
8.2396 21.185
8.2547 21.727
8.2699 21.816
8.2851 21.540
8.3003 21.921
8.3154 22.038
8.3306 21.949
8.3458 21.832
8.3610 22.186
8.3761 22.053
8.3913 21.588
8.4065 21.802
8.4217 21.952
8.4368 21.865
8.4520 21.981
8.4672 22.100
8.4824 22.364
8.4975 21.911
8.5127 22.133
8.5279 21.967
8.5431 22.484
8.5582 22.597
8.5734 21.825
8.5886 22.034
8.6038 22.047
8.6189 22.660
8.6341 22.291
8.6493 22.113
8.6645 22.525
8.6796 22.666
8.6948 22.364
8.7100 22.810
8.7252 22.881
8.7403 22.803
8.7555 23.369
8.7707 22.301
8.7859 22.786
8.8010 22.606
8.8162 22.480
8.8314 22.684
8.8466 22.673
8.8617 22.783
8.8769 22.920
8.8921 23.002
8.9073 22.500
8.9224 22.505
8.9376 22.656
8.9528 22.731
8.9680 22.738
8.9831 22.438
8.9983 22.688
9.0135 22.817
9.0287 22.472
9.0438 22.675
9.0590 22.873
9.0742 22.832
9.0894 22.651
9.1045 22.642
9.1197 22.588
9.1349 22.936
9.1501 22.857
9.1652 23.096
9.1804 23.260
9.1956 22.915
9.2108 23.031
9.2259 22.891
9.2411 22.909
9.2563 22.741
9.2715 22.810
9.2866 22.796
9.3018 23.003
9.3170 22.899
9.3322 23.303
9.3473 23.082
9.3625 22.879
9.3777 22.939
9.3929 23.247
9.4080 23.187
9.4232 23.131
9.4384 23.119
9.4536 22.925
9.4687 22.910
9.4839 23.150
9.4991 23.322
9.5143 23.244
9.5294 22.995
9.5446 23.187
9.5598 23.198
9.5750 23.435
9.5901 23.546
9.6053 23.397
9.6205 23.377
9.6357 23.701
9.6508 23.484
9.6660 23.483
9.6812 23.834
9.6964 23.853
9.7115 24.139
9.7267 24.006
9.7419 24.059
9.7571 24.094
9.7722 23.816
9.7874 23.971
9.8026 24.232
9.8178 23.967
9.8329 23.543
9.8481 23.397
9.8633 23.392
9.8785 23.611
9.8936 23.610
9.9088 23.331
9.9240 23.576
9.9392 23.819
9.9543 23.365
9.9695 23.357
9.9847 23.590
9.9999 23.396
10.0150 23.584
10.0302 23.869
10.0454 23.822
10.0606 23.335
10.0757 23.334
10.0909 23.780
10.1061 23.797
10.1213 24.127
10.1364 23.836
10.1516 23.692
10.1668 23.713
10.1820 23.659
10.1971 23.931
10.2123 24.128
10.2275 24.113
10.2427 24.132
10.2578 23.978
10.2730 24.020
10.2882 23.926
10.3034 23.385
10.3185 23.315
10.3337 23.225
10.3489 23.085
10.3641 23.047
10.3792 22.851
10.3944 22.720
10.4096 22.853
10.4248 22.839
10.4399 22.965
10.4551 22.543
10.4703 22.689
10.4855 22.409
10.5006 22.327
10.5158 22.730
10.5310 23.133
10.5462 23.016
10.5613 22.742
10.5765 22.615
10.5917 22.638
10.6069 22.943
10.6220 23.049
10.6372 22.900
10.6524 22.629
10.6676 22.663
10.6827 22.549
10.6979 22.618
10.7131 22.918
10.7283 22.482
10.7434 22.518
10.7586 22.628
10.7738 22.537
10.7890 22.286
10.8041 22.621
10.8193 22.542
10.8345 22.613
10.8497 22.605
10.8648 22.251
10.8800 22.299
10.8952 22.518
10.9104 22.409
10.9255 22.092
10.9407 22.255
10.9559 22.368
10.9711 22.185
10.9862 21.901
11.0014 22.278
11.0166 22.251
11.0318 22.358
11.0469 22.262
11.0621 22.161
11.0773 22.693
11.0925 22.096
11.1076 21.964
11.1228 21.732
11.1380 21.820
11.1532 21.616
11.1683 21.972
11.1835 21.883
11.1987 22.006
11.2139 21.748
11.2290 22.086
11.2442 21.892
11.2594 21.817
11.2746 22.167
11.2897 22.258
11.3049 21.674
11.3201 21.642
11.3353 21.629
11.3504 21.716
11.3656 21.812
11.3808 21.702
11.3960 21.500
11.4111 21.593
11.4263 21.308
11.4415 21.333
11.4567 21.346
11.4718 21.133
11.4870 21.497
11.5022 21.197
11.5174 21.196
11.5325 21.259
11.5477 21.188
11.5629 20.935
11.5781 20.777
11.5932 20.954
11.6084 20.942
11.6236 20.824
11.6388 20.696
11.6539 20.661
11.6691 20.482
11.6843 20.363
11.6995 20.436
11.7146 20.304
11.7298 19.925
11.7450 19.825
11.7602 20.344
11.7753 20.255
11.7905 20.366
11.8057 20.140
11.8209 19.900
11.8360 20.010
11.8512 19.953
11.8664 19.948
11.8816 19.749
11.8967 19.540
11.9119 19.657
11.9271 19.705
11.9423 19.519
11.9574 19.456
11.9726 19.649
11.9878 19.400
12.0030 19.316
12.0181 19.403
12.0333 19.223
12.0485 18.810
12.0637 18.958
12.0788 18.868
12.0940 18.767
12.1092 18.762
12.1244 18.803
12.1395 18.975
12.1547 18.632
12.1699 18.494
12.1851 18.076
12.2002 17.877
12.2154 18.263
12.2306 18.080
12.2458 18.110
12.2609 17.940
12.2761 17.814
12.2913 17.851
12.3065 17.676
12.3216 17.607
12.3368 17.465
12.3520 17.530
12.3672 17.303
12.3823 17.178
12.3975 17.507
12.4127 17.345
12.4279 17.239
12.4430 17.363
12.4582 17.108
12.4734 17.360
12.4886 17.188
12.5037 16.940
12.5189 16.982
12.5341 16.798
12.5493 16.574
12.5644 16.370
12.5796 16.122
12.5948 16.207
12.6100 16.144
12.6251 16.067
12.6403 15.891
12.6555 15.523
12.6707 15.580
12.6858 15.914
12.7010 15.852
12.7162 15.464
12.7314 15.483
12.7465 15.389
12.7617 15.474
12.7769 15.609
12.7921 15.530
12.8072 15.297
12.8224 15.227
12.8376 15.224
12.8528 15.283
12.8679 15.011
12.8831 14.610
12.8983 14.798
12.9135 14.761
12.9286 14.684
12.9438 14.871
12.9590 14.794
12.9742 14.595
12.9893 14.423
13.0045 14.153
13.0197 14.282
13.0349 14.336
13.0500 14.192
13.0652 14.080
13.0804 13.787
13.0956 13.677
13.1107 13.602
13.1259 13.656
13.1411 13.716
13.1563 13.674
13.1714 13.597
13.1866 13.479
13.2018 13.491
13.2170 13.419
13.2321 13.500
13.2473 13.394
13.2625 13.062
13.2777 13.163
13.2928 13.384
13.3080 13.440
13.3232 13.512
13.3384 13.441
13.3535 13.053
13.3687 12.891
13.3839 12.912
13.3991 12.988
13.4142 12.986
13.4294 12.738
13.4446 12.534
13.4598 12.670
13.4749 12.866
13.4901 12.774
13.5053 12.725
13.5205 12.582
13.5356 12.648
13.5508 12.586
13.5660 12.423
13.5812 12.454
13.5963 12.216
13.6115 12.251
13.6267 12.347
13.6419 12.267
13.6570 12.348
13.6722 12.475
13.6874 12.101
13.7026 11.967
13.7177 12.137
13.7329 12.330
13.7481 12.255
13.7633 12.150
13.7784 12.057
13.7936 12.416
13.8088 12.210
13.8239 12.087
13.8391 12.169
13.8543 12.104
13.8695 11.980
13.8846 12.244
13.8998 12.133
13.9150 12.012
13.9302 12.214
13.9453 12.335
13.9605 11.879
13.9757 11.563
13.9909 11.624
14.0060 11.775
14.0212 11.447
14.0364 11.483
14.0516 11.590
14.0667 11.436
14.0819 11.446
14.0971 11.423
14.1123 11.424
14.1274 11.547
14.1426 11.789
14.1578 11.619
14.1730 11.711
14.1881 11.560
14.2033 11.631
14.2185 11.824
14.2337 12.022
14.2488 11.808
14.2640 11.876
14.2792 12.001
14.2944 11.986
14.3095 12.295
14.3247 12.565
14.3399 12.559
14.3551 13.035
14.3702 13.034
14.3854 12.901
14.4006 12.931
14.4158 12.877
14.4309 13.213
14.4461 12.687
14.4613 12.725
14.4765 12.293
14.4916 12.559
14.5068 12.070
14.5220 11.953
14.5372 12.117
14.5523 11.708
14.5675 11.524
14.5827 11.859
14.5979 11.367
14.6130 11.660
14.6282 11.145
14.6434 11.082
14.6586 11.296
14.6737 11.321
14.6889 10.825
14.7041 11.029
14.7193 11.095
14.7344 10.961
14.7496 10.908
14.7648 10.729
14.7800 10.843
14.7951 10.848
14.8103 10.800
14.8255 10.898
14.8407 10.762
14.8558 10.697
14.8710 10.532
14.8862 10.715
14.9014 10.539
14.9165 10.770
14.9317 11.137
14.9469 10.387
14.9621 10.808
14.9772 10.558
14.9924 10.509
15.0076 10.458
15.0228 10.552
15.0379 10.891
15.0531 10.468
15.0683 10.253
15.0835 10.568
15.0986 10.694
15.1138 10.450
15.1290 10.537
15.1442 10.551
15.1593 10.770
15.1745 10.084
15.1897 10.333
15.2049 10.343
15.2200 10.352
15.2352 10.301
15.2504 10.114
15.2656 10.303
15.2807 10.533
15.2959 10.630
15.3111 10.104
15.3263 10.379
15.3414 10.382
15.3566 10.437
15.3718 10.173
15.3870 10.800
15.4021 10.271
15.4173 10.126
15.4325 10.591
15.4477 10.388
15.4628 10.118
15.4780 10.440
15.4932 10.513
15.5084 10.447
15.5235 10.216
15.5387 10.402
15.5539 10.291
15.5691 10.265
15.5842 10.287
15.5994 9.962
15.6146 9.992
15.6298 10.100
15.6449 10.270
15.6601 10.068
15.6753 10.354
15.6905 9.771
15.7056 10.102
15.7208 9.806
15.7360 10.158
15.7512 9.965
15.7663 10.113
15.7815 9.906
15.7967 9.628
15.8119 9.704
15.8270 9.931
15.8422 9.910
15.8574 10.013
15.8726 9.885
15.8877 9.672
15.9029 9.647
15.9181 9.635
15.9333 9.915
15.9484 9.862
15.9636 9.817
15.9788 9.897
15.9940 9.889
16.0091 10.221
16.0243 9.959
16.0395 9.689
16.0547 9.509
16.0698 9.982
16.0850 9.747
16.1002 9.646
16.1154 9.624
16.1305 9.914
16.1457 9.738
16.1609 9.534
16.1761 9.618
16.1912 9.992
16.2064 9.943
16.2216 9.683
16.2368 9.677
16.2519 9.820
16.2671 9.847
16.2823 10.082
16.2975 10.249
16.3126 10.075
16.3278 9.898
16.3430 9.923
16.3582 9.974
16.3733 9.990
16.3885 10.140
16.4037 10.136
16.4189 9.822
16.4340 9.627
16.4492 9.788
16.4644 9.888
16.4796 9.964
16.4947 10.004
16.5099 9.866
16.5251 9.698
16.5403 9.887
16.5554 9.735
16.5706 9.738
16.5858 9.579
16.6010 9.409
16.6161 9.607
16.6313 9.563
16.6465 9.853
16.6617 9.983
16.6768 9.822
16.6920 9.914
16.7072 9.900
16.7224 9.961
16.7375 9.880
16.7527 9.728
16.7679 9.650
16.7831 9.802
16.7982 10.063
16.8134 10.075
16.8286 9.962
16.8438 9.699
16.8589 9.794
16.8741 10.055
16.8893 9.872
16.9045 9.580
16.9196 9.805
16.9348 9.967
16.9500 9.966
16.9652 9.940
16.9803 9.911
16.9955 9.869
17.0107 9.968
17.0259 10.162
17.0410 10.176
17.0562 10.073
17.0714 10.158
17.0866 10.417
17.1017 10.410
17.1169 10.628
17.1321 11.135
17.1473 11.392
17.1624 11.700
17.1776 12.227
17.1928 12.970
17.2080 13.927
17.2231 14.967
17.2383 16.195
17.2535 17.398
17.2687 18.270
17.2838 18.527
17.2990 17.882
17.3142 17.198
17.3294 16.678
17.3445 16.083
17.3597 16.044
17.3749 16.207
17.3901 15.354
17.4052 14.185
17.4204 13.258
17.4356 12.460
17.4508 11.907
17.4659 11.682
17.4811 11.717
17.4963 11.653
17.5115 11.512
17.5266 11.388
17.5418 11.525
17.5570 11.306
17.5722 11.143
17.5873 11.445
17.6025 11.430
17.6177 11.073
17.6329 10.927
17.6480 10.937
17.6632 10.933
17.6784 11.000
17.6936 10.942
17.7087 10.837
17.7239 10.921
17.7391 10.796
17.7543 10.566
17.7694 10.427
17.7846 10.389
17.7998 10.566
17.8150 10.581
17.8301 10.359
17.8453 10.319
17.8605 10.286
17.8757 10.376
17.8908 10.448
17.9060 10.659
17.9212 10.555
17.9364 10.228
17.9515 10.302
17.9667 10.521
17.9819 10.686
17.9971 10.509
18.0122 10.275
18.0274 10.504
18.0426 10.506
18.0578 10.241
18.0729 9.951
18.0881 9.908
18.1033 9.979
18.1185 10.127
18.1336 10.053
18.1488 9.828
18.1640 9.866
18.1792 10.052
18.1943 9.949
18.2095 9.781
18.2247 9.691
18.2399 9.959
18.2550 10.023
18.2702 9.678
18.2854 9.696
18.3006 9.911
18.3157 10.002
18.3309 9.878
18.3461 9.671
18.3613 9.640
18.3764 9.684
18.3916 9.800
18.4068 9.859
18.4220 9.849
18.4371 9.750
18.4523 9.753
18.4675 9.826
18.4827 9.902
18.4978 9.904
18.5130 9.866
18.5282 9.820
18.5434 9.780
18.5585 9.736
18.5737 9.838
18.5889 9.916
18.6041 9.811
18.6192 9.978
18.6344 9.812
18.6496 9.614
18.6648 9.386
18.6799 9.643
18.6951 9.734
18.7103 9.738
18.7255 9.985
18.7406 9.800
18.7558 9.533
18.7710 9.881
18.7862 9.937
18.8013 9.730
18.8165 9.764
18.8317 9.819
18.8469 9.811
18.8620 9.738
18.8772 9.888
18.8924 9.894
18.9076 9.881
18.9227 9.812
18.9379 9.893
18.9531 9.938
18.9683 9.823
18.9834 10.053
18.9986 9.970
19.0138 9.822
19.0290 10.084
19.0441 10.317
19.0593 10.403
19.0745 10.269
19.0897 10.082
19.1048 10.213
19.1200 10.408
19.1352 10.529
19.1504 10.465
19.1655 10.623
19.1807 10.709
19.1959 10.788
19.2111 10.789
19.2262 10.716
19.2414 10.869
19.2566 10.897
19.2718 10.696
19.2869 10.788
19.3021 10.929
19.3173 11.035
19.3325 11.002
19.3476 10.993
19.3628 11.148
19.3780 11.097
19.3932 11.089
19.4083 11.195
19.4235 11.296
19.4387 11.279
19.4539 11.251
19.4690 11.226
19.4842 11.168
19.4994 11.477
19.5146 11.431
19.5297 11.238
19.5449 11.443
19.5601 11.712
19.5753 11.712
19.5904 11.596
19.6056 11.530
19.6208 11.454
19.6360 11.452
19.6511 11.332
19.6663 11.569
19.6815 11.671
19.6967 11.554
19.7118 11.686
19.7270 11.577
19.7422 11.381
19.7574 11.476
19.7725 11.733
19.7877 11.699
19.8029 11.767
19.8180 11.969
19.8332 12.080
19.8484 12.254
19.8636 12.354
19.8787 12.528
19.8939 12.843
19.9091 12.888
19.9243 13.172
19.9394 13.603
19.9546 13.861
19.9698 14.210
19.9850 14.386
20.0001 14.171
20.0153 14.189
20.0305 14.002
20.0457 13.857
20.0608 13.741
20.0760 13.612
20.0912 13.695
20.1064 13.496
20.1215 13.361
20.1367 13.193
20.1519 12.894
20.1671 12.832
20.1822 13.165
20.1974 13.162
20.2126 13.021
20.2278 12.821
20.2429 12.716
20.2581 12.483
20.2733 12.137
20.2885 12.017
20.3036 11.974
20.3188 11.894
20.3340 11.805
20.3492 11.641
20.3643 11.702
20.3795 11.674
20.3947 11.450
20.4099 10.873
20.4250 10.583
20.4402 10.807
20.4554 10.712
20.4706 10.682
20.4857 10.762
20.5009 10.778
20.5161 10.545
20.5313 10.895
20.5464 10.826
20.5616 10.723
20.5768 10.766
20.5920 10.792
20.6071 10.739
20.6223 10.881
20.6375 10.721
20.6527 10.681
20.6678 10.580
20.6830 10.535
20.6982 10.558
20.7134 10.779
20.7285 10.677
20.7437 10.435
20.7589 10.550
20.7741 10.610
20.7892 10.452
20.8044 10.337
20.8196 10.416
20.8348 10.353
20.8499 10.105
20.8651 10.384
20.8803 10.033
20.8955 9.952
20.9106 10.272
20.9258 10.465
20.9410 10.551
20.9562 10.322
20.9713 10.258
20.9865 10.384
21.0017 10.097
21.0169 10.286
21.0320 9.818
21.0472 10.084
21.0624 9.817
21.0776 9.889
21.0927 10.107
21.1079 9.845
21.1231 9.615
21.1383 9.688
21.1534 9.716
21.1686 9.862
21.1838 9.701
21.1990 9.771
21.2141 9.826
21.2293 9.808
21.2445 9.790
21.2597 9.640
21.2748 9.831
21.2900 9.595
21.3052 9.238
21.3204 9.861
21.3355 9.429
21.3507 9.580
21.3659 9.646
21.3811 9.604
21.3962 9.820
21.4114 9.306
21.4266 9.598
21.4418 9.465
21.4569 9.245
21.4721 9.234
21.4873 9.492
21.5025 9.277
21.5176 9.219
21.5328 9.438
21.5480 9.289
21.5632 9.304
21.5783 9.014
21.5935 9.243
21.6087 9.219
21.6239 9.267
21.6390 9.307
21.6542 9.256
21.6694 8.907
21.6846 9.030
21.6997 9.132
21.7149 9.226
21.7301 8.922
21.7453 9.027
21.7604 9.185
21.7756 9.051
21.7908 9.085
21.8060 9.146
21.8211 9.254
21.8363 9.201
21.8515 9.069
21.8667 8.953
21.8818 9.044
21.8970 8.989
21.9122 8.997
21.9274 9.029
21.9425 8.898
21.9577 8.776
21.9729 8.877
21.9881 8.892
22.0032 8.896
22.0184 8.951
22.0336 8.983
22.0488 8.774
22.0639 8.470
22.0791 8.420
22.0943 8.598
22.1095 8.650
22.1246 8.723
22.1398 8.825
22.1550 8.658
22.1702 8.719
22.1853 8.770
22.2005 8.734
22.2157 8.768
22.2309 8.552
22.2460 8.375
22.2612 8.615
22.2764 8.532
22.2916 8.548
22.3067 8.597
22.3219 8.574
22.3371 8.774
22.3523 8.594
22.3674 8.253
22.3826 8.460
22.3978 8.512
22.4130 8.485
22.4281 8.566
22.4433 8.421
22.4585 8.446
22.4737 8.587
22.4888 8.514
22.5040 8.676
22.5192 8.152
22.5344 8.470
22.5495 8.418
22.5647 8.218
22.5799 8.487
22.5951 8.693
22.6102 8.390
22.6254 8.618
22.6406 8.345
22.6558 8.575
22.6709 8.308
22.6861 8.392
22.7013 8.163
22.7165 8.247
22.7316 6.443
