'Id: "" Comment: "" Operator: "Lab Manager" Anode: "Mo" Scantype: "Still (Eiger2R_500K (1D mode))" TimePerStep: "300" X: "11.8" Y: "9.4" Z: "11.284" 
7.2532 18.693
7.2684 18.853
7.2836 18.482
7.2987 19.333
7.3139 19.335
7.3291 19.043
7.3443 18.624
7.3594 18.797
7.3746 19.636
7.3898 19.551
7.4050 19.197
7.4201 19.475
7.4353 19.700
7.4505 19.141
7.4657 19.473
7.4808 19.792
7.4960 19.841
7.5112 19.902
7.5264 19.908
7.5415 19.695
7.5567 19.657
7.5719 20.148
7.5871 19.861
7.6022 19.915
7.6174 19.936
7.6326 19.735
7.6478 20.183
7.6629 20.546
7.6781 20.351
7.6933 20.273
7.7085 20.293
7.7236 20.494
7.7388 20.423
7.7540 20.408
7.7692 20.636
7.7843 20.835
7.7995 20.393
7.8147 20.184
7.8299 20.663
7.8450 20.785
7.8602 20.821
7.8754 20.858
7.8905 20.733
7.9057 20.426
7.9209 20.626
7.9361 20.476
7.9512 20.596
7.9664 20.748
7.9816 20.876
7.9968 21.162
8.0119 21.395
8.0271 21.190
8.0423 21.203
8.0575 21.297
8.0726 20.774
8.0878 20.962
8.1030 20.937
8.1182 21.252
8.1333 21.564
8.1485 21.287
8.1637 21.362
8.1789 21.489
8.1940 21.458
8.2092 21.364
8.2244 21.860
8.2396 21.572
8.2547 21.846
8.2699 21.438
8.2851 21.502
8.3003 21.573
8.3154 21.513
8.3306 21.267
8.3458 21.400
8.3610 21.919
8.3761 22.251
8.3913 21.868
8.4065 21.732
8.4217 21.795
8.4368 21.671
8.4520 21.716
8.4672 22.069
8.4824 22.279
8.4975 21.951
8.5127 21.883
8.5279 22.609
8.5431 22.141
8.5582 22.190
8.5734 21.835
8.5886 22.360
8.6038 22.221
8.6189 22.502
8.6341 22.029
8.6493 21.908
8.6645 22.243
8.6796 22.406
8.6948 22.401
8.7100 22.415
8.7252 22.713
8.7403 22.421
8.7555 22.569
8.7707 22.265
8.7859 21.673
8.8010 22.301
8.8162 22.214
8.8314 22.602
8.8466 22.513
8.8617 22.637
8.8769 22.790
8.8921 22.880
8.9073 22.783
8.9224 22.403
8.9376 22.585
8.9528 22.740
8.9680 22.817
8.9831 22.789
8.9983 22.529
9.0135 22.571
9.0287 22.522
9.0438 22.573
9.0590 22.712
9.0742 22.866
9.0894 22.823
9.1045 23.071
9.1197 22.891
9.1349 22.809
9.1501 22.468
9.1652 22.594
9.1804 22.578
9.1956 22.757
9.2108 23.088
9.2259 22.854
9.2411 22.932
9.2563 23.187
9.2715 23.238
9.2866 22.868
9.3018 22.759
9.3170 22.838
9.3322 22.974
9.3473 23.285
9.3625 23.095
9.3777 23.032
9.3929 23.154
9.4080 23.191
9.4232 23.262
9.4384 23.355
9.4536 23.160
9.4687 22.801
9.4839 22.777
9.4991 23.201
9.5143 23.408
9.5294 23.226
9.5446 23.221
9.5598 23.141
9.5750 23.072
9.5901 23.043
9.6053 22.951
9.6205 23.114
9.6357 23.500
9.6508 23.607
9.6660 23.759
9.6812 23.680
9.6964 23.520
9.7115 23.641
9.7267 23.681
9.7419 23.945
9.7571 23.884
9.7722 23.597
9.7874 23.933
9.8026 23.889
9.8178 23.538
9.8329 23.484
9.8481 23.151
9.8633 23.039
9.8785 23.186
9.8936 23.178
9.9088 23.204
9.9240 23.063
9.9392 23.145
9.9543 23.264
9.9695 23.289
9.9847 23.067
9.9999 23.022
10.0150 23.208
10.0302 23.352
10.0454 23.558
10.0606 23.141
10.0757 22.927
10.0909 23.716
10.1061 23.804
10.1213 23.671
10.1364 23.732
10.1516 23.923
10.1668 23.631
10.1820 23.097
10.1971 22.962
10.2123 23.338
10.2275 23.355
10.2427 23.297
10.2578 23.022
10.2730 23.096
10.2882 23.103
10.3034 23.063
10.3185 23.163
10.3337 23.165
10.3489 23.372
10.3641 23.510
10.3792 22.920
10.3944 22.812
10.4096 22.589
10.4248 22.645
10.4399 22.531
10.4551 22.546
10.4703 22.729
10.4855 22.859
10.5006 22.703
10.5158 22.664
10.5310 22.521
10.5462 22.696
10.5613 22.950
10.5765 22.443
10.5917 22.269
10.6069 22.661
10.6220 22.650
10.6372 22.459
10.6524 22.770
10.6676 22.473
10.6827 22.603
10.6979 22.761
10.7131 22.713
10.7283 22.561
10.7434 22.576
10.7586 22.636
10.7738 22.703
10.7890 22.473
10.8041 22.242
10.8193 22.414
10.8345 22.312
10.8497 22.389
10.8648 22.060
10.8800 21.746
10.8952 22.059
10.9104 22.222
10.9255 22.376
10.9407 22.379
10.9559 21.748
10.9711 21.746
10.9862 22.113
11.0014 21.971
11.0166 22.220
11.0318 22.517
11.0469 21.710
11.0621 21.836
11.0773 21.858
11.0925 21.585
11.1076 21.761
11.1228 21.895
11.1380 21.923
11.1532 21.791
11.1683 21.802
11.1835 21.782
11.1987 21.665
11.2139 21.511
11.2290 21.831
11.2442 21.987
11.2594 21.690
11.2746 21.358
11.2897 21.608
11.3049 21.519
11.3201 21.470
11.3353 22.091
11.3504 21.742
11.3656 21.606
11.3808 21.609
11.3960 21.872
11.4111 21.760
11.4263 21.559
11.4415 21.360
11.4567 21.268
11.4718 21.238
11.4870 21.147
11.5022 21.268
11.5174 21.222
11.5325 21.042
11.5477 21.167
11.5629 20.949
11.5781 20.596
11.5932 20.781
11.6084 20.491
11.6236 20.304
11.6388 20.949
11.6539 20.892
11.6691 20.565
11.6843 20.909
11.6995 20.580
11.7146 20.491
11.7298 20.530
11.7450 20.687
11.7602 20.479
11.7753 20.256
11.7905 20.016
11.8057 20.324
11.8209 20.252
11.8360 19.877
11.8512 20.043
11.8664 20.153
11.8816 19.882
11.8967 19.699
11.9119 19.638
11.9271 19.569
11.9423 19.831
11.9574 19.791
11.9726 19.399
11.9878 19.285
12.0030 19.298
12.0181 19.156
12.0333 19.061
12.0485 19.064
12.0637 18.969
12.0788 19.109
12.0940 19.183
12.1092 18.923
12.1244 18.750
12.1395 18.655
12.1547 18.844
12.1699 18.877
12.1851 18.478
12.2002 18.343
12.2154 18.198
12.2306 18.291
12.2458 18.164
12.2609 18.033
12.2761 17.937
12.2913 17.800
12.3065 17.948
12.3216 17.826
12.3368 17.720
12.3520 17.408
12.3672 17.177
12.3823 17.223
12.3975 17.354
12.4127 17.143
12.4279 17.169
12.4430 17.271
12.4582 17.220
12.4734 16.817
12.4886 16.891
12.5037 16.847
12.5189 16.669
12.5341 16.513
12.5493 16.374
12.5644 16.170
12.5796 16.330
12.5948 16.573
12.6100 16.229
12.6251 15.858
12.6403 15.790
12.6555 15.948
12.6707 16.043
12.6858 15.783
12.7010 15.765
12.7162 15.813
12.7314 15.697
12.7465 15.535
12.7617 15.459
12.7769 15.459
12.7921 15.053
12.8072 14.785
12.8224 15.024
12.8376 15.078
12.8528 14.956
12.8679 14.765
12.8831 14.849
12.8983 14.677
12.9135 14.321
12.9286 14.377
12.9438 14.418
12.9590 14.520
12.9742 14.490
12.9893 14.442
13.0045 14.397
13.0197 14.306
13.0349 14.217
13.0500 14.214
13.0652 14.163
13.0804 13.905
13.0956 13.905
13.1107 14.085
13.1259 13.937
13.1411 13.778
13.1563 13.724
13.1714 13.706
13.1866 13.779
13.2018 13.600
13.2170 13.545
13.2321 13.665
13.2473 13.461
13.2625 13.302
13.2777 13.356
13.2928 13.104
13.3080 12.961
13.3232 12.997
13.3384 12.790
13.3535 12.924
13.3687 13.289
13.3839 13.242
13.3991 12.953
13.4142 12.910
13.4294 12.845
13.4446 12.687
13.4598 12.772
13.4749 12.880
13.4901 12.770
13.5053 12.507
13.5205 12.439
13.5356 12.441
13.5508 12.426
13.5660 12.481
13.5812 12.408
13.5963 12.043
13.6115 12.108
13.6267 12.548
13.6419 12.515
13.6570 12.336
13.6722 12.116
13.6874 12.210
13.7026 12.111
13.7177 12.015
13.7329 12.361
13.7481 12.354
13.7633 12.198
13.7784 12.256
13.7936 12.044
13.8088 11.928
13.8239 12.368
13.8391 12.318
13.8543 12.301
13.8695 12.263
13.8846 12.292
13.8998 12.157
13.9150 11.991
13.9302 12.082
13.9453 12.108
13.9605 11.854
13.9757 12.043
13.9909 11.882
14.0060 11.451
14.0212 11.784
14.0364 11.519
14.0516 11.380
14.0667 11.519
14.0819 11.523
14.0971 11.486
14.1123 11.405
14.1274 11.617
14.1426 11.671
14.1578 11.257
14.1730 11.641
14.1881 11.510
14.2033 11.302
14.2185 11.378
14.2337 11.835
14.2488 11.706
14.2640 11.575
14.2792 11.756
14.2944 11.975
14.3095 12.430
14.3247 12.543
14.3399 12.855
14.3551 12.915
14.3702 13.334
14.3854 13.482
14.4006 13.653
14.4158 13.674
14.4309 13.205
14.4461 13.100
14.4613 12.787
14.4765 12.324
14.4916 12.468
14.5068 11.932
14.5220 11.984
14.5372 11.386
14.5523 11.258
14.5675 11.470
14.5827 11.173
14.5979 10.687
14.6130 11.027
14.6282 11.028
14.6434 10.893
14.6586 10.836
14.6737 10.552
14.6889 10.952
14.7041 11.020
14.7193 10.803
14.7344 10.924
14.7496 10.790
14.7648 10.883
14.7800 10.628
14.7951 10.812
14.8103 10.611
14.8255 10.365
14.8407 10.594
14.8558 10.315
14.8710 10.646
14.8862 10.707
14.9014 10.725
14.9165 10.879
14.9317 11.030
14.9469 10.546
14.9621 10.509
14.9772 10.400
14.9924 10.775
15.0076 10.269
15.0228 10.706
15.0379 10.757
15.0531 10.398
15.0683 10.080
15.0835 10.269
15.0986 10.231
15.1138 10.345
15.1290 10.383
15.1442 10.266
15.1593 10.427
15.1745 10.199
15.1897 10.132
15.2049 10.316
15.2200 10.073
15.2352 9.975
15.2504 10.189
15.2656 10.119
15.2807 9.973
15.2959 10.194
15.3111 10.018
15.3263 10.447
15.3414 10.193
15.3566 10.435
15.3718 10.538
15.3870 10.698
15.4021 10.405
15.4173 10.281
15.4325 10.411
15.4477 10.307
15.4628 10.083
15.4780 10.322
15.4932 10.180
15.5084 10.516
15.5235 10.224
15.5387 10.318
15.5539 10.067
15.5691 9.904
15.5842 10.095
15.5994 9.926
15.6146 9.984
15.6298 9.877
15.6449 10.231
15.6601 9.901
15.6753 9.887
15.6905 9.968
15.7056 9.541
15.7208 9.711
15.7360 9.907
15.7512 9.830
15.7663 9.610
15.7815 9.683
15.7967 9.950
15.8119 9.944
15.8270 9.896
15.8422 9.727
15.8574 10.005
15.8726 9.655
15.8877 9.692
15.9029 9.293
15.9181 9.619
15.9333 10.081
15.9484 9.876
15.9636 9.586
15.9788 9.931
15.9940 9.617
16.0091 9.788
16.0243 9.682
16.0395 9.525
16.0547 9.807
16.0698 9.674
16.0850 9.313
16.1002 9.305
16.1154 9.474
16.1305 9.677
16.1457 9.686
16.1609 9.751
16.1761 9.604
16.1912 9.945
16.2064 9.764
16.2216 9.806
16.2368 9.769
16.2519 9.663
16.2671 9.803
16.2823 9.784
16.2975 9.667
16.3126 9.838
16.3278 9.660
16.3430 9.845
16.3582 10.032
16.3733 10.007
16.3885 10.062
16.4037 9.988
16.4189 10.019
16.4340 9.858
16.4492 9.555
16.4644 9.856
16.4796 9.735
16.4947 9.799
16.5099 9.611
16.5251 9.400
16.5403 9.621
16.5554 9.660
16.5706 9.459
16.5858 9.765
16.6010 9.728
16.6161 9.721
16.6313 9.903
16.6465 9.553
16.6617 9.664
16.6768 10.006
16.6920 9.967
16.7072 9.895
16.7224 9.910
16.7375 9.855
16.7527 9.846
16.7679 9.953
16.7831 10.054
16.7982 9.920
16.8134 9.956
16.8286 10.055
16.8438 9.905
16.8589 9.788
16.8741 9.990
16.8893 10.115
16.9045 10.021
16.9196 9.724
16.9348 9.722
16.9500 9.721
16.9652 9.854
16.9803 9.957
16.9955 9.755
17.0107 9.758
17.0259 9.954
17.0410 9.987
17.0562 10.153
17.0714 10.366
17.0866 10.368
17.1017 10.328
17.1169 10.558
17.1321 11.206
17.1473 11.377
17.1624 11.589
17.1776 12.467
17.1928 13.167
17.2080 14.023
17.2231 15.089
17.2383 16.244
17.2535 17.471
17.2687 18.449
17.2838 18.684
17.2990 17.968
17.3142 16.953
17.3294 16.096
17.3445 16.130
17.3597 16.371
17.3749 15.902
17.3901 15.098
17.4052 14.233
17.4204 13.386
17.4356 12.376
17.4508 11.731
17.4659 11.433
17.4811 11.359
17.4963 11.410
17.5115 11.304
17.5266 11.344
17.5418 11.111
17.5570 10.928
17.5722 11.042
17.5873 11.076
17.6025 11.202
17.6177 11.256
17.6329 11.332
17.6480 11.489
17.6632 11.706
17.6784 11.725
17.6936 11.729
17.7087 11.741
17.7239 11.318
17.7391 11.321
17.7543 11.535
17.7694 11.063
17.7846 10.706
17.7998 10.887
17.8150 10.890
17.8301 10.613
17.8453 10.346
17.8605 10.306
17.8757 10.381
17.8908 10.437
17.9060 10.136
17.9212 10.113
17.9364 10.077
17.9515 9.968
17.9667 10.152
17.9819 10.282
17.9971 10.456
18.0122 10.503
18.0274 10.187
18.0426 10.259
18.0578 10.325
18.0729 10.257
18.0881 10.105
18.1033 9.854
18.1185 9.845
18.1336 9.951
18.1488 9.973
18.1640 9.793
18.1792 9.744
18.1943 9.691
18.2095 9.918
18.2247 9.960
18.2399 9.794
18.2550 10.041
18.2702 10.060
18.2854 9.848
18.3006 9.731
18.3157 9.819
18.3309 9.864
18.3461 9.867
18.3613 9.964
18.3764 9.825
18.3916 9.697
18.4068 10.001
18.4220 9.988
18.4371 9.692
18.4523 9.707
18.4675 9.775
18.4827 9.926
18.4978 9.998
18.5130 9.977
18.5282 9.889
18.5434 9.751
18.5585 9.807
18.5737 9.905
18.5889 9.755
18.6041 9.764
18.6192 9.861
18.6344 9.726
18.6496 9.649
18.6648 9.667
18.6799 9.732
18.6951 9.726
18.7103 9.893
18.7255 9.981
18.7406 9.886
18.7558 9.770
18.7710 9.761
18.7862 9.690
18.8013 9.675
18.8165 9.489
18.8317 9.618
18.8469 10.117
18.8620 10.130
18.8772 10.194
18.8924 10.122
18.9076 9.990
18.9227 10.064
18.9379 10.057
18.9531 9.900
18.9683 9.750
18.9834 9.849
18.9986 10.085
19.0138 10.068
19.0290 9.848
19.0441 9.905
19.0593 10.310
19.0745 10.371
19.0897 10.433
19.1048 10.201
19.1200 10.255
19.1352 10.412
19.1504 10.107
19.1655 10.345
19.1807 10.500
19.1959 10.459
19.2111 10.587
19.2262 10.658
19.2414 10.747
19.2566 10.974
19.2718 10.888
19.2869 10.697
19.3021 10.780
19.3173 11.078
19.3325 11.053
19.3476 10.998
19.3628 11.222
19.3780 11.117
19.3932 11.194
19.4083 11.289
19.4235 11.155
19.4387 11.301
19.4539 11.463
19.4690 11.176
19.4842 11.096
19.4994 11.476
19.5146 11.639
19.5297 11.451
19.5449 11.419
19.5601 11.509
19.5753 11.588
19.5904 11.677
19.6056 11.629
19.6208 11.743
19.6360 11.837
19.6511 11.728
19.6663 11.636
19.6815 11.811
19.6967 11.904
19.7118 11.760
19.7270 11.685
19.7422 11.767
19.7574 11.805
19.7725 11.629
19.7877 11.574
19.8029 11.956
19.8180 12.278
19.8332 12.270
19.8484 12.222
19.8636 12.293
19.8787 12.506
19.8939 12.784
19.9091 13.162
19.9243 13.565
19.9394 13.831
19.9546 14.146
19.9698 14.338
19.9850 14.328
20.0001 14.268
20.0153 14.196
20.0305 13.877
20.0457 13.540
20.0608 13.621
20.0760 13.463
20.0912 13.506
20.1064 13.306
20.1215 12.938
20.1367 13.099
20.1519 13.084
20.1671 12.927
20.1822 12.773
20.1974 12.703
20.2126 12.606
20.2278 12.419
20.2429 12.356
20.2581 12.174
20.2733 12.226
20.2885 12.281
20.3036 12.334
20.3188 12.084
20.3340 12.092
20.3492 12.014
20.3643 11.834
20.3795 11.969
20.3947 11.833
20.4099 11.968
20.4250 12.112
20.4402 11.938
20.4554 11.967
20.4706 12.073
20.4857 11.844
20.5009 11.745
20.5161 11.654
20.5313 11.644
20.5464 11.284
20.5616 11.402
20.5768 11.381
20.5920 11.319
20.6071 11.089
20.6223 10.959
20.6375 10.932
20.6527 10.862
20.6678 10.671
20.6830 10.678
20.6982 10.659
20.7134 10.502
20.7285 10.387
20.7437 10.519
20.7589 10.396
20.7741 10.319
20.7892 10.245
20.8044 10.268
20.8196 10.475
20.8348 10.218
20.8499 10.478
20.8651 10.179
20.8803 10.184
20.8955 10.240
20.9106 10.087
20.9258 10.368
20.9410 10.110
20.9562 10.012
20.9713 10.274
20.9865 9.860
21.0017 9.928
21.0169 10.047
21.0320 9.758
21.0472 9.890
21.0624 10.134
21.0776 10.030
21.0927 10.147
21.1079 9.729
21.1231 9.797
21.1383 9.817
21.1534 9.680
21.1686 9.893
21.1838 9.636
21.1990 9.668
21.2141 9.771
21.2293 9.680
21.2445 9.798
21.2597 9.636
21.2748 9.824
21.2900 9.408
21.3052 9.635
21.3204 9.677
21.3355 9.364
21.3507 9.377
21.3659 9.692
21.3811 9.815
21.3962 9.441
21.4114 9.150
21.4266 9.306
21.4418 9.337
21.4569 9.229
21.4721 9.507
21.4873 9.394
21.5025 9.388
21.5176 9.311
21.5328 9.251
21.5480 9.143
21.5632 9.451
21.5783 9.569
21.5935 9.298
21.6087 8.961
21.6239 9.220
21.6390 9.372
21.6542 9.272
21.6694 9.180
21.6846 9.229
21.6997 9.042
21.7149 8.939
21.7301 9.087
21.7453 9.046
21.7604 9.156
21.7756 9.135
21.7908 9.100
21.8060 9.144
21.8211 9.401
21.8363 9.276
21.8515 9.023
21.8667 8.895
21.8818 9.052
21.8970 9.130
21.9122 9.067
21.9274 8.925
21.9425 8.819
21.9577 8.857
21.9729 8.985
21.9881 8.918
22.0032 8.751
22.0184 8.785
22.0336 8.917
22.0488 9.008
22.0639 8.757
22.0791 8.624
22.0943 8.856
22.1095 8.846
22.1246 8.801
22.1398 8.714
22.1550 8.682
22.1702 8.706
22.1853 8.614
22.2005 8.713
22.2157 8.949
22.2309 8.742
22.2460 8.641
22.2612 8.274
22.2764 8.511
22.2916 8.456
22.3067 8.625
22.3219 8.746
22.3371 8.637
22.3523 8.659
22.3674 8.596
22.3826 8.557
22.3978 8.234
22.4130 8.472
22.4281 8.416
22.4433 8.498
22.4585 8.340
22.4737 8.390
22.4888 8.282
22.5040 8.435
22.5192 8.352
22.5344 8.711
22.5495 8.071
22.5647 8.281
22.5799 8.307
22.5951 8.376
22.6102 8.347
22.6254 8.113
22.6406 8.547
22.6558 8.235
22.6709 8.685
22.6861 8.220
22.7013 8.267
22.7165 7.732
22.7316 6.352
