'Id: "" Comment: "" Operator: "Lab Manager" Anode: "Mo" Scantype: "Still (Eiger2R_500K (1D mode))" TimePerStep: "300" X: "11.8" Y: "9.4" Z: "11.284" 
7.2532 19.260
7.2684 18.333
7.2836 18.903
7.2987 19.090
7.3139 18.958
7.3291 19.146
7.3443 19.278
7.3594 19.633
7.3746 19.515
7.3898 18.955
7.4050 19.529
7.4201 19.293
7.4353 19.612
7.4505 19.707
7.4657 19.568
7.4808 19.656
7.4960 19.547
7.5112 19.702
7.5264 19.806
7.5415 19.929
7.5567 19.600
7.5719 19.946
7.5871 20.301
7.6022 20.116
7.6174 19.840
7.6326 19.905
7.6478 20.157
7.6629 19.976
7.6781 20.153
7.6933 20.408
7.7085 20.541
7.7236 20.672
7.7388 20.661
7.7540 20.487
7.7692 20.664
7.7843 20.652
7.7995 20.530
7.8147 20.578
7.8299 20.557
7.8450 20.663
7.8602 20.810
7.8754 20.814
7.8905 20.963
7.9057 20.972
7.9209 20.973
7.9361 21.047
7.9512 21.222
7.9664 20.992
7.9816 21.028
7.9968 21.310
8.0119 21.220
8.0271 21.291
8.0423 21.601
8.0575 21.476
8.0726 21.613
8.0878 21.243
8.1030 21.162
8.1182 21.105
8.1333 21.642
8.1485 21.732
8.1637 21.547
8.1789 21.615
8.1940 21.570
8.2092 22.226
8.2244 21.956
8.2396 21.513
8.2547 21.735
8.2699 21.412
8.2851 21.715
8.3003 21.662
8.3154 21.528
8.3306 21.979
8.3458 21.527
8.3610 21.405
8.3761 22.240
8.3913 21.924
8.4065 21.991
8.4217 22.120
8.4368 22.029
8.4520 21.890
8.4672 22.139
8.4824 21.795
8.4975 22.083
8.5127 22.223
8.5279 22.136
8.5431 21.876
8.5582 21.976
8.5734 22.190
8.5886 22.704
8.6038 22.202
8.6189 22.443
8.6341 22.327
8.6493 22.189
8.6645 21.897
8.6796 22.370
8.6948 22.741
8.7100 22.366
8.7252 22.061
8.7403 22.214
8.7555 22.350
8.7707 21.914
8.7859 22.507
8.8010 22.415
8.8162 22.655
8.8314 22.874
8.8466 22.744
8.8617 22.589
8.8769 22.513
8.8921 22.750
8.9073 22.451
8.9224 22.623
8.9376 22.677
8.9528 22.534
8.9680 22.842
8.9831 22.822
8.9983 22.898
9.0135 22.863
9.0287 22.555
9.0438 22.763
9.0590 22.767
9.0742 22.823
9.0894 22.984
9.1045 22.996
9.1197 22.937
9.1349 22.739
9.1501 22.916
9.1652 23.374
9.1804 23.147
9.1956 23.084
9.2108 22.925
9.2259 22.768
9.2411 23.273
9.2563 23.128
9.2715 23.404
9.2866 23.463
9.3018 22.974
9.3170 23.045
9.3322 23.275
9.3473 23.052
9.3625 22.982
9.3777 23.094
9.3929 23.336
9.4080 23.329
9.4232 23.134
9.4384 22.944
9.4536 22.984
9.4687 23.393
9.4839 23.415
9.4991 23.100
9.5143 22.924
9.5294 23.110
9.5446 23.136
9.5598 23.097
9.5750 23.166
9.5901 23.599
9.6053 23.606
9.6205 23.537
9.6357 23.439
9.6508 23.177
9.6660 23.288
9.6812 23.639
9.6964 23.745
9.7115 23.755
9.7267 24.071
9.7419 24.411
9.7571 24.197
9.7722 23.868
9.7874 23.760
9.8026 23.854
9.8178 23.868
9.8329 23.656
9.8481 23.594
9.8633 23.922
9.8785 24.005
9.8936 23.909
9.9088 24.206
9.9240 23.990
9.9392 23.911
9.9543 23.829
9.9695 23.485
9.9847 23.502
9.9999 23.755
10.0150 23.651
10.0302 23.417
10.0454 23.300
10.0606 23.105
10.0757 23.339
10.0909 23.404
10.1061 23.505
10.1213 23.316
10.1364 22.933
10.1516 22.684
10.1668 23.065
10.1820 23.232
10.1971 23.209
10.2123 23.385
10.2275 23.279
10.2427 22.959
10.2578 23.068
10.2730 23.161
10.2882 22.971
10.3034 22.944
10.3185 22.811
10.3337 22.835
10.3489 23.002
10.3641 23.425
10.3792 23.469
10.3944 23.032
10.4096 22.959
10.4248 22.888
10.4399 22.729
10.4551 22.814
10.4703 22.939
10.4855 22.659
10.5006 22.369
10.5158 22.408
10.5310 22.396
10.5462 22.726
10.5613 22.736
10.5765 22.762
10.5917 22.528
10.6069 22.687
10.6220 22.621
10.6372 22.883
10.6524 22.908
10.6676 22.729
10.6827 22.929
10.6979 22.656
10.7131 22.508
10.7283 22.370
10.7434 22.364
10.7586 22.195
10.7738 22.209
10.7890 22.414
10.8041 22.230
10.8193 22.195
10.8345 22.191
10.8497 22.020
10.8648 22.217
10.8800 22.275
10.8952 22.180
10.9104 22.054
10.9255 22.250
10.9407 22.001
10.9559 21.682
10.9711 22.054
10.9862 22.222
11.0014 22.320
11.0166 22.264
11.0318 22.066
11.0469 22.031
11.0621 21.975
11.0773 21.902
11.0925 21.548
11.1076 21.733
11.1228 21.954
11.1380 21.981
11.1532 21.858
11.1683 21.978
11.1835 21.549
11.1987 21.775
11.2139 21.732
11.2290 21.349
11.2442 21.629
11.2594 21.612
11.2746 21.974
11.2897 21.918
11.3049 21.612
11.3201 21.814
11.3353 21.512
11.3504 21.439
11.3656 21.564
11.3808 21.680
11.3960 21.425
11.4111 21.391
11.4263 21.328
11.4415 21.351
11.4567 20.985
11.4718 21.238
11.4870 21.257
11.5022 21.346
11.5174 21.234
11.5325 21.257
11.5477 21.132
11.5629 21.094
11.5781 21.232
11.5932 21.495
11.6084 21.004
11.6236 20.937
11.6388 20.973
11.6539 20.913
11.6691 20.708
11.6843 20.653
11.6995 20.343
11.7146 20.332
11.7298 20.439
11.7450 20.655
11.7602 20.573
11.7753 20.425
11.7905 20.208
11.8057 20.277
11.8209 20.158
11.8360 19.994
11.8512 19.711
11.8664 19.626
11.8816 19.826
11.8967 19.866
11.9119 19.997
11.9271 19.988
11.9423 19.638
11.9574 19.444
11.9726 19.030
11.9878 19.288
12.0030 19.408
12.0181 19.202
12.0333 19.159
12.0485 18.979
12.0637 18.657
12.0788 18.627
12.0940 18.549
12.1092 18.623
12.1244 18.860
12.1395 18.401
12.1547 18.214
12.1699 18.394
12.1851 18.300
12.2002 18.322
12.2154 18.425
12.2306 18.399
12.2458 18.016
12.2609 18.021
12.2761 18.177
12.2913 17.787
12.3065 17.932
12.3216 17.936
12.3368 17.904
12.3520 17.716
12.3672 17.208
12.3823 17.106
12.3975 17.238
12.4127 17.096
12.4279 17.343
12.4430 17.381
12.4582 17.069
12.4734 17.125
12.4886 17.060
12.5037 16.809
12.5189 16.592
12.5341 16.645
12.5493 16.822
12.5644 16.411
12.5796 16.221
12.5948 16.213
12.6100 16.046
12.6251 16.049
12.6403 15.996
12.6555 15.891
12.6707 15.983
12.6858 15.976
12.7010 15.788
12.7162 15.826
12.7314 15.655
12.7465 15.508
12.7617 15.559
12.7769 15.396
12.7921 15.203
12.8072 15.198
12.8224 15.327
12.8376 15.278
12.8528 15.197
12.8679 15.000
12.8831 14.821
12.8983 14.942
12.9135 14.885
12.9286 14.542
12.9438 14.395
12.9590 14.264
12.9742 14.282
12.9893 14.209
13.0045 14.402
13.0197 14.460
13.0349 13.983
13.0500 13.907
13.0652 14.053
13.0804 14.008
13.0956 14.123
13.1107 13.978
13.1259 13.827
13.1411 13.830
13.1563 13.746
13.1714 13.739
13.1866 13.783
13.2018 13.779
13.2170 13.628
13.2321 13.349
13.2473 13.238
13.2625 13.349
13.2777 13.422
13.2928 13.527
13.3080 13.198
13.3232 13.253
13.3384 13.457
13.3535 13.247
13.3687 13.306
13.3839 13.291
13.3991 13.020
13.4142 12.974
13.4294 13.161
13.4446 12.980
13.4598 12.911
13.4749 13.022
13.4901 12.845
13.5053 12.744
13.5205 12.559
13.5356 12.403
13.5508 12.505
13.5660 12.748
13.5812 12.526
13.5963 12.249
13.6115 12.628
13.6267 12.487
13.6419 12.353
13.6570 12.320
13.6722 12.005
13.6874 12.126
13.7026 12.072
13.7177 12.127
13.7329 12.058
13.7481 11.979
13.7633 11.973
13.7784 12.097
13.7936 12.237
13.8088 12.309
13.8239 12.347
13.8391 12.200
13.8543 12.172
13.8695 12.444
13.8846 12.377
13.8998 12.213
13.9150 12.312
13.9302 12.274
13.9453 12.078
13.9605 12.057
13.9757 11.702
13.9909 11.829
14.0060 11.804
14.0212 11.729
14.0364 11.667
14.0516 11.669
14.0667 11.500
14.0819 11.180
14.0971 11.545
14.1123 11.535
14.1274 11.406
14.1426 11.216
14.1578 11.458
14.1730 11.155
14.1881 11.193
14.2033 11.300
14.2185 11.442
14.2337 11.574
14.2488 11.651
14.2640 11.617
14.2792 11.515
14.2944 11.602
14.3095 11.906
14.3247 12.270
14.3399 12.101
14.3551 11.986
14.3702 12.081
14.3854 12.481
14.4006 12.560
14.4158 12.889
14.4309 13.002
14.4461 12.862
14.4613 12.768
14.4765 12.506
14.4916 12.425
14.5068 12.183
14.5220 11.904
14.5372 11.634
14.5523 11.661
14.5675 11.493
14.5827 11.585
14.5979 11.052
14.6130 10.748
14.6282 11.100
14.6434 11.241
14.6586 11.148
14.6737 10.794
14.6889 10.695
14.7041 11.061
14.7193 11.351
14.7344 11.140
14.7496 11.003
14.7648 11.348
14.7800 11.076
14.7951 11.065
14.8103 10.803
14.8255 10.857
14.8407 10.567
14.8558 10.680
14.8710 10.623
14.8862 10.964
14.9014 10.634
14.9165 10.907
14.9317 10.762
14.9469 11.042
14.9621 10.530
14.9772 10.543
14.9924 10.074
15.0076 10.595
15.0228 10.375
15.0379 10.349
15.0531 10.504
15.0683 10.455
15.0835 10.058
15.0986 10.193
15.1138 10.407
15.1290 10.235
15.1442 10.313
15.1593 10.403
15.1745 10.284
15.1897 10.401
15.2049 10.330
15.2200 10.479
15.2352 10.481
15.2504 10.555
15.2656 10.259
15.2807 10.504
15.2959 10.249
15.3111 9.926
15.3263 10.258
15.3414 10.486
15.3566 10.514
15.3718 10.430
15.3870 10.212
15.4021 10.364
15.4173 10.233
15.4325 10.334
15.4477 10.870
15.4628 10.025
15.4780 10.514
15.4932 10.495
15.5084 10.688
15.5235 10.572
15.5387 10.284
15.5539 10.114
15.5691 10.166
15.5842 10.144
15.5994 10.193
15.6146 10.250
15.6298 10.252
15.6449 10.561
15.6601 10.255
15.6753 10.154
15.6905 9.952
15.7056 9.968
15.7208 10.071
15.7360 10.063
15.7512 9.701
15.7663 9.735
15.7815 9.871
15.7967 9.894
15.8119 9.806
15.8270 9.712
15.8422 9.763
15.8574 9.780
15.8726 9.770
15.8877 9.796
15.9029 9.418
15.9181 9.447
15.9333 9.838
15.9484 9.862
15.9636 9.901
15.9788 9.730
15.9940 9.951
16.0091 9.683
16.0243 9.804
16.0395 9.930
16.0547 9.912
16.0698 9.988
16.0850 9.849
16.1002 9.861
16.1154 9.838
16.1305 9.686
16.1457 9.500
16.1609 9.646
16.1761 9.885
16.1912 9.876
16.2064 9.787
16.2216 9.806
16.2368 9.793
16.2519 9.934
16.2671 9.925
16.2823 9.801
16.2975 9.744
16.3126 9.823
16.3278 10.065
16.3430 10.019
16.3582 10.017
16.3733 10.034
16.3885 9.884
16.4037 10.123
16.4189 10.543
16.4340 10.266
16.4492 10.385
16.4644 10.085
16.4796 9.967
16.4947 9.990
16.5099 9.828
16.5251 10.029
16.5403 9.853
16.5554 9.356
16.5706 9.659
16.5858 9.848
16.6010 9.891
16.6161 9.897
16.6313 9.715
16.6465 9.831
16.6617 10.179
16.6768 9.846
16.6920 9.942
16.7072 10.036
16.7224 9.946
16.7375 10.108
16.7527 10.304
16.7679 10.280
16.7831 10.141
16.7982 9.994
16.8134 9.962
16.8286 10.006
16.8438 9.949
16.8589 10.057
16.8741 9.902
16.8893 9.734
16.9045 9.859
16.9196 9.903
16.9348 10.105
16.9500 9.936
16.9652 9.940
16.9803 9.934
16.9955 10.014
17.0107 10.157
17.0259 10.211
17.0410 10.140
17.0562 10.284
17.0714 10.474
17.0866 10.380
17.1017 10.535
17.1169 10.932
17.1321 11.192
17.1473 11.436
17.1624 11.781
17.1776 12.360
17.1928 13.068
17.2080 14.473
17.2231 15.683
17.2383 16.374
17.2535 17.418
17.2687 18.392
17.2838 18.745
17.2990 18.245
17.3142 17.341
17.3294 16.402
17.3445 16.068
17.3597 16.193
17.3749 15.923
17.3901 15.250
17.4052 14.239
17.4204 13.222
17.4356 12.364
17.4508 11.914
17.4659 11.448
17.4811 11.082
17.4963 10.955
17.5115 10.701
17.5266 10.603
17.5418 10.469
17.5570 10.648
17.5722 10.575
17.5873 10.313
17.6025 10.416
17.6177 10.303
17.6329 10.073
17.6480 10.111
17.6632 10.162
17.6784 10.063
17.6936 10.198
17.7087 10.277
17.7239 10.231
17.7391 10.526
17.7543 10.663
17.7694 10.660
17.7846 10.866
17.7998 11.151
17.8150 11.236
17.8301 11.007
17.8453 10.810
17.8605 10.912
17.8757 11.113
17.8908 11.072
17.9060 11.027
17.9212 10.905
17.9364 10.808
17.9515 10.707
17.9667 10.721
17.9819 10.821
17.9971 10.685
18.0122 10.237
18.0274 10.167
18.0426 10.457
18.0578 10.357
18.0729 10.164
18.0881 10.169
18.1033 9.972
18.1185 10.138
18.1336 10.163
18.1488 9.929
18.1640 10.032
18.1792 9.957
18.1943 9.960
18.2095 10.148
18.2247 10.118
18.2399 9.814
18.2550 9.694
18.2702 10.119
18.2854 10.148
18.3006 10.137
18.3157 10.136
18.3309 10.032
18.3461 9.951
18.3613 9.768
18.3764 9.828
18.3916 9.883
18.4068 9.872
18.4220 9.663
18.4371 9.457
18.4523 9.438
18.4675 9.668
18.4827 9.894
18.4978 10.066
18.5130 10.074
18.5282 9.801
18.5434 9.660
18.5585 9.723
18.5737 9.644
18.5889 9.597
18.6041 9.900
18.6192 9.872
18.6344 9.873
18.6496 9.776
18.6648 9.694
18.6799 9.949
18.6951 9.794
18.7103 9.836
18.7255 10.008
18.7406 9.829
18.7558 9.630
18.7710 9.803
18.7862 9.541
18.8013 9.354
18.8165 9.514
18.8317 9.812
18.8469 9.808
18.8620 9.864
18.8772 10.017
18.8924 10.129
18.9076 10.053
18.9227 9.832
18.9379 9.722
18.9531 9.877
18.9683 9.914
18.9834 10.029
18.9986 10.205
19.0138 10.122
19.0290 10.203
19.0441 10.228
19.0593 10.319
19.0745 10.388
19.0897 10.466
19.1048 10.376
19.1200 10.410
19.1352 10.473
19.1504 10.448
19.1655 10.337
19.1807 10.392
19.1959 10.492
19.2111 10.586
19.2262 10.791
19.2414 11.071
19.2566 11.157
19.2718 11.005
19.2869 10.910
19.3021 10.846
19.3173 11.125
19.3325 11.104
19.3476 10.850
19.3628 10.867
19.3780 11.097
19.3932 11.178
19.4083 11.041
19.4235 10.979
19.4387 11.202
19.4539 11.383
19.4690 11.485
19.4842 11.573
19.4994 11.452
19.5146 11.390
19.5297 11.300
19.5449 11.488
19.5601 11.747
19.5753 11.401
19.5904 11.534
19.6056 11.828
19.6208 11.706
19.6360 11.692
19.6511 11.464
19.6663 11.448
19.6815 11.802
19.6967 11.937
19.7118 12.069
19.7270 11.910
19.7422 11.658
19.7574 11.697
19.7725 11.703
19.7877 11.816
19.8029 12.057
19.8180 12.104
19.8332 12.092
19.8484 12.115
19.8636 12.392
19.8787 12.794
19.8939 12.814
19.9091 12.934
19.9243 13.432
19.9394 13.989
19.9546 14.314
19.9698 14.507
19.9850 14.523
20.0001 14.343
20.0153 14.405
20.0305 14.052
20.0457 13.773
20.0608 13.603
20.0760 13.558
20.0912 13.780
20.1064 13.857
20.1215 13.657
20.1367 13.243
20.1519 13.214
20.1671 13.082
20.1822 12.877
20.1974 12.716
20.2126 12.588
20.2278 12.479
20.2429 12.256
20.2581 11.968
20.2733 11.972
20.2885 11.755
20.3036 11.796
20.3188 11.749
20.3340 11.789
20.3492 11.729
20.3643 11.449
20.3795 11.392
20.3947 11.133
20.4099 10.760
20.4250 10.850
20.4402 10.922
20.4554 11.116
20.4706 10.744
20.4857 10.718
20.5009 10.937
20.5161 10.760
20.5313 10.657
20.5464 10.560
20.5616 10.694
20.5768 10.475
20.5920 10.462
20.6071 10.439
20.6223 10.403
20.6375 10.562
20.6527 10.601
20.6678 10.525
20.6830 10.637
20.6982 10.720
20.7134 10.809
20.7285 10.421
20.7437 10.422
20.7589 10.310
20.7741 10.243
20.7892 10.440
20.8044 10.533
20.8196 10.396
20.8348 9.913
20.8499 10.302
20.8651 10.291
20.8803 10.395
20.8955 10.331
20.9106 10.220
20.9258 10.443
20.9410 10.445
20.9562 10.250
20.9713 10.287
20.9865 10.398
21.0017 10.340
21.0169 10.152
21.0320 10.172
21.0472 10.398
21.0624 10.189
21.0776 10.406
21.0927 10.135
21.1079 10.090
21.1231 9.986
21.1383 10.092
21.1534 10.079
21.1686 10.161
21.1838 9.588
21.1990 9.605
21.2141 9.524
21.2293 9.428
21.2445 9.627
21.2597 9.500
21.2748 9.468
21.2900 9.750
21.3052 9.793
21.3204 9.743
21.3355 9.622
21.3507 9.435
21.3659 9.428
21.3811 9.210
21.3962 9.512
21.4114 9.579
21.4266 9.326
21.4418 9.516
21.4569 9.634
21.4721 9.421
21.4873 9.307
21.5025 9.398
21.5176 9.451
21.5328 9.354
21.5480 9.225
21.5632 9.353
21.5783 9.385
21.5935 9.228
21.6087 9.409
21.6239 9.130
21.6390 9.224
21.6542 9.266
21.6694 9.307
21.6846 9.134
21.6997 9.081
21.7149 8.943
21.7301 9.146
21.7453 9.079
21.7604 9.164
21.7756 8.982
21.7908 9.077
21.8060 9.206
21.8211 9.031
21.8363 8.873
21.8515 8.996
21.8667 8.846
21.8818 9.041
21.8970 9.055
21.9122 8.866
21.9274 9.005
21.9425 8.855
21.9577 8.914
21.9729 8.934
21.9881 9.003
22.0032 8.975
22.0184 8.891
22.0336 8.930
22.0488 8.829
22.0639 8.803
22.0791 8.649
22.0943 8.608
22.1095 8.696
22.1246 8.695
22.1398 8.676
22.1550 8.606
22.1702 8.650
22.1853 8.532
22.2005 8.625
22.2157 8.493
22.2309 8.436
22.2460 8.422
22.2612 8.568
22.2764 8.670
22.2916 8.548
22.3067 8.504
22.3219 8.530
22.3371 8.786
22.3523 8.588
22.3674 8.496
22.3826 8.536
22.3978 8.835
22.4130 8.686
22.4281 8.503
22.4433 8.455
22.4585 8.395
22.4737 8.853
22.4888 8.809
22.5040 8.671
22.5192 8.175
22.5344 8.362
22.5495 8.389
22.5647 8.479
22.5799 8.521
22.5951 8.249
22.6102 8.388
22.6254 8.592
22.6406 8.649
22.6558 8.250
22.6709 8.520
22.6861 8.352
22.7013 8.145
22.7165 7.817
22.7316 6.288
