'Id: "" Comment: "" Operator: "Lab Manager" Anode: "Mo" Scantype: "Still (Eiger2R_500K (1D mode))" TimePerStep: "300" X: "11.8" Y: "9.4" Z: "11.284" 
7.2532 18.732
7.2684 18.943
7.2836 18.832
7.2987 18.835
7.3139 19.058
7.3291 19.609
7.3443 19.221
7.3594 18.993
7.3746 19.426
7.3898 18.877
7.4050 19.287
7.4201 19.684
7.4353 19.242
7.4505 19.313
7.4657 19.850
7.4808 20.274
7.4960 19.794
7.5112 20.020
7.5264 19.801
7.5415 20.002
7.5567 19.829
7.5719 20.024
7.5871 20.219
7.6022 20.380
7.6174 20.023
7.6326 20.132
7.6478 20.041
7.6629 19.961
7.6781 20.135
7.6933 20.219
7.7085 20.337
7.7236 20.446
7.7388 20.328
7.7540 20.387
7.7692 20.599
7.7843 20.501
7.7995 20.480
7.8147 20.466
7.8299 20.729
7.8450 20.687
7.8602 20.747
7.8754 21.054
7.8905 21.101
7.9057 21.103
7.9209 21.324
7.9361 21.234
7.9512 21.149
7.9664 21.168
7.9816 20.957
7.9968 20.941
8.0119 21.179
8.0271 21.156
8.0423 21.067
8.0575 21.372
8.0726 21.442
8.0878 21.175
8.1030 21.085
8.1182 21.429
8.1333 21.624
8.1485 21.961
8.1637 21.711
8.1789 21.785
8.1940 22.040
8.2092 21.732
8.2244 21.706
8.2396 21.698
8.2547 21.941
8.2699 21.846
8.2851 21.736
8.3003 21.557
8.3154 21.501
8.3306 21.571
8.3458 21.542
8.3610 21.632
8.3761 21.987
8.3913 21.588
8.4065 21.841
8.4217 22.571
8.4368 21.726
8.4520 22.259
8.4672 21.865
8.4824 21.667
8.4975 21.898
8.5127 22.394
8.5279 21.863
8.5431 22.554
8.5582 22.706
8.5734 21.757
8.5886 22.271
8.6038 21.970
8.6189 22.394
8.6341 22.363
8.6493 22.614
8.6645 22.386
8.6796 22.327
8.6948 22.884
8.7100 22.404
8.7252 22.601
8.7403 22.583
8.7555 22.544
8.7707 22.659
8.7859 22.355
8.8010 22.820
8.8162 22.761
8.8314 23.124
8.8466 22.878
8.8617 23.061
8.8769 22.969
8.8921 22.777
8.9073 22.666
8.9224 22.814
8.9376 22.497
8.9528 23.252
8.9680 23.103
8.9831 22.858
8.9983 22.701
9.0135 22.816
9.0287 23.041
9.0438 22.974
9.0590 22.830
9.0742 22.789
9.0894 22.700
9.1045 22.853
9.1197 22.750
9.1349 23.021
9.1501 22.855
9.1652 22.885
9.1804 22.889
9.1956 23.339
9.2108 22.971
9.2259 23.221
9.2411 22.938
9.2563 23.135
9.2715 23.020
9.2866 23.208
9.3018 23.168
9.3170 23.009
9.3322 23.028
9.3473 22.882
9.3625 23.208
9.3777 23.414
9.3929 23.258
9.4080 23.411
9.4232 23.543
9.4384 23.338
9.4536 22.816
9.4687 23.308
9.4839 23.829
9.4991 23.465
9.5143 23.212
9.5294 23.350
9.5446 23.410
9.5598 23.062
9.5750 23.246
9.5901 23.462
9.6053 23.046
9.6205 22.975
9.6357 23.154
9.6508 23.660
9.6660 23.884
9.6812 23.885
9.6964 23.932
9.7115 24.002
9.7267 24.253
9.7419 24.211
9.7571 23.915
9.7722 23.978
9.7874 23.998
9.8026 23.921
9.8178 23.838
9.8329 23.458
9.8481 23.273
9.8633 23.325
9.8785 23.039
9.8936 22.947
9.9088 23.101
9.9240 23.113
9.9392 23.231
9.9543 23.486
9.9695 23.735
9.9847 23.694
9.9999 24.005
10.0150 23.894
10.0302 23.441
10.0454 23.266
10.0606 23.151
10.0757 23.159
10.0909 23.361
10.1061 23.081
10.1213 23.093
10.1364 23.420
10.1516 23.172
10.1668 23.117
10.1820 22.938
10.1971 23.248
10.2123 23.582
10.2275 23.454
10.2427 23.423
10.2578 23.575
10.2730 23.667
10.2882 23.452
10.3034 23.276
10.3185 23.398
10.3337 23.655
10.3489 23.184
10.3641 22.900
10.3792 22.726
10.3944 22.786
10.4096 22.750
10.4248 22.590
10.4399 22.865
10.4551 22.933
10.4703 22.988
10.4855 23.023
10.5006 22.883
10.5158 22.902
10.5310 22.924
10.5462 22.645
10.5613 22.681
10.5765 22.654
10.5917 22.392
10.6069 22.400
10.6220 22.651
10.6372 22.667
10.6524 22.549
10.6676 22.604
10.6827 22.878
10.6979 22.724
10.7131 22.120
10.7283 22.246
10.7434 22.508
10.7586 22.305
10.7738 22.282
10.7890 22.500
10.8041 22.456
10.8193 22.485
10.8345 22.623
10.8497 22.088
10.8648 22.359
10.8800 22.313
10.8952 22.008
10.9104 22.531
10.9255 22.314
10.9407 22.327
10.9559 22.187
10.9711 22.181
10.9862 21.973
11.0014 22.345
11.0166 22.378
11.0318 22.309
11.0469 21.465
11.0621 21.463
11.0773 21.992
11.0925 21.704
11.1076 22.369
11.1228 21.819
11.1380 21.374
11.1532 21.873
11.1683 22.088
11.1835 22.058
11.1987 22.209
11.2139 21.709
11.2290 21.782
11.2442 21.944
11.2594 21.823
11.2746 21.512
11.2897 22.010
11.3049 21.699
11.3201 21.635
11.3353 21.784
11.3504 21.704
11.3656 21.622
11.3808 21.391
11.3960 21.903
11.4111 21.723
11.4263 21.567
11.4415 21.929
11.4567 21.546
11.4718 21.395
11.4870 21.573
11.5022 21.377
11.5174 21.168
11.5325 21.396
11.5477 21.198
11.5629 21.077
11.5781 20.862
11.5932 20.976
11.6084 21.034
11.6236 20.548
11.6388 20.962
11.6539 21.009
11.6691 20.628
11.6843 20.533
11.6995 20.617
11.7146 20.420
11.7298 20.296
11.7450 20.292
11.7602 20.427
11.7753 20.315
11.7905 20.326
11.8057 20.658
11.8209 20.323
11.8360 20.200
11.8512 20.246
11.8664 20.116
11.8816 19.823
11.8967 19.970
11.9119 20.038
11.9271 19.871
11.9423 19.653
11.9574 19.511
11.9726 19.161
11.9878 19.405
12.0030 19.482
12.0181 19.335
12.0333 18.974
12.0485 19.338
12.0637 19.043
12.0788 18.710
12.0940 19.028
12.1092 19.065
12.1244 19.019
12.1395 18.924
12.1547 18.767
12.1699 18.615
12.1851 18.598
12.2002 18.164
12.2154 18.135
12.2306 18.081
12.2458 18.249
12.2609 18.079
12.2761 17.860
12.2913 17.723
12.3065 17.743
12.3216 17.638
12.3368 17.511
12.3520 17.508
12.3672 17.647
12.3823 17.538
12.3975 17.436
12.4127 17.412
12.4279 17.207
12.4430 17.262
12.4582 17.203
12.4734 17.065
12.4886 16.659
12.5037 16.430
12.5189 16.742
12.5341 16.477
12.5493 16.537
12.5644 16.675
12.5796 16.536
12.5948 16.247
12.6100 16.154
12.6251 16.303
12.6403 15.979
12.6555 16.009
12.6707 15.975
12.6858 15.831
12.7010 15.963
12.7162 15.777
12.7314 15.612
12.7465 15.732
12.7617 15.516
12.7769 15.243
12.7921 15.270
12.8072 15.649
12.8224 15.313
12.8376 15.063
12.8528 15.315
12.8679 15.286
12.8831 15.165
12.8983 14.875
12.9135 14.658
12.9286 14.730
12.9438 14.773
12.9590 14.364
12.9742 14.408
12.9893 14.728
13.0045 14.364
13.0197 14.083
13.0349 14.122
13.0500 14.287
13.0652 14.315
13.0804 14.011
13.0956 13.798
13.1107 13.721
13.1259 13.930
13.1411 14.129
13.1563 13.848
13.1714 13.563
13.1866 13.633
13.2018 13.809
13.2170 13.633
13.2321 13.468
13.2473 13.453
13.2625 13.379
13.2777 13.257
13.2928 13.217
13.3080 13.300
13.3232 13.309
13.3384 13.412
13.3535 13.234
13.3687 13.019
13.3839 13.213
13.3991 13.346
13.4142 13.336
13.4294 13.352
13.4446 13.142
13.4598 12.943
13.4749 12.987
13.4901 12.927
13.5053 12.667
13.5205 12.786
13.5356 12.490
13.5508 12.464
13.5660 12.387
13.5812 12.327
13.5963 12.454
13.6115 12.570
13.6267 12.450
13.6419 12.188
13.6570 12.291
13.6722 12.126
13.6874 12.081
13.7026 12.109
13.7177 12.338
13.7329 12.315
13.7481 12.272
13.7633 12.227
13.7784 12.093
13.7936 12.434
13.8088 12.270
13.8239 12.193
13.8391 12.188
13.8543 12.313
13.8695 12.244
13.8846 12.338
13.8998 12.220
13.9150 12.436
13.9302 12.234
13.9453 12.029
13.9605 11.723
13.9757 11.809
13.9909 11.588
14.0060 11.724
14.0212 11.676
14.0364 11.423
14.0516 11.578
14.0667 11.480
14.0819 11.500
14.0971 11.652
14.1123 11.614
14.1274 11.478
14.1426 11.280
14.1578 11.894
14.1730 12.025
14.1881 11.865
14.2033 11.674
14.2185 11.881
14.2337 11.669
14.2488 11.973
14.2640 11.703
14.2792 11.934
14.2944 11.977
14.3095 12.155
14.3247 12.102
14.3399 12.031
14.3551 12.027
14.3702 12.306
14.3854 12.401
14.4006 12.565
14.4158 12.476
14.4309 12.359
14.4461 12.224
14.4613 11.875
14.4765 11.833
14.4916 11.961
14.5068 11.297
14.5220 11.497
14.5372 11.274
14.5523 11.296
14.5675 11.262
14.5827 11.337
14.5979 11.159
14.6130 11.151
14.6282 11.145
14.6434 11.344
14.6586 11.310
14.6737 11.040
14.6889 11.086
14.7041 11.046
14.7193 11.059
14.7344 11.163
14.7496 11.018
14.7648 11.123
14.7800 10.927
14.7951 10.517
14.8103 10.669
14.8255 10.741
14.8407 10.429
14.8558 10.692
14.8710 10.702
14.8862 10.999
14.9014 10.807
14.9165 11.164
14.9317 10.877
14.9469 10.452
14.9621 10.616
14.9772 10.476
14.9924 10.184
15.0076 10.450
15.0228 10.726
15.0379 10.558
15.0531 10.697
15.0683 10.565
15.0835 10.610
15.0986 10.628
15.1138 10.318
15.1290 10.769
15.1442 10.286
15.1593 10.623
15.1745 10.468
15.1897 10.543
15.2049 10.260
15.2200 10.547
15.2352 10.481
15.2504 10.400
15.2656 10.509
15.2807 10.490
15.2959 10.188
15.3111 10.547
15.3263 10.434
15.3414 10.408
15.3566 10.416
15.3718 10.662
15.3870 10.328
15.4021 10.586
15.4173 10.347
15.4325 10.366
15.4477 10.302
15.4628 10.145
15.4780 10.427
15.4932 10.332
15.5084 10.426
15.5235 10.333
15.5387 10.094
15.5539 10.003
15.5691 10.302
15.5842 10.492
15.5994 10.341
15.6146 10.092
15.6298 10.412
15.6449 10.211
15.6601 10.090
15.6753 9.854
15.6905 9.905
15.7056 10.046
15.7208 10.005
15.7360 9.912
15.7512 10.201
15.7663 9.987
15.7815 9.958
15.7967 10.023
15.8119 9.989
15.8270 9.906
15.8422 9.908
15.8574 9.915
15.8726 9.589
15.8877 9.977
15.9029 9.653
15.9181 9.909
15.9333 9.958
15.9484 9.773
15.9636 9.569
15.9788 9.796
15.9940 10.143
16.0091 9.921
16.0243 9.847
16.0395 9.983
16.0547 10.082
16.0698 10.068
16.0850 9.861
16.1002 9.696
16.1154 9.726
16.1305 9.544
16.1457 9.721
16.1609 10.115
16.1761 9.872
16.1912 9.792
16.2064 9.629
16.2216 9.711
16.2368 9.812
16.2519 10.120
16.2671 10.196
16.2823 10.122
16.2975 9.820
16.3126 9.947
16.3278 10.088
16.3430 10.107
16.3582 9.990
16.3733 10.152
16.3885 10.277
16.4037 10.336
16.4189 10.257
16.4340 9.825
16.4492 9.740
16.4644 9.818
16.4796 9.974
16.4947 10.066
16.5099 9.765
16.5251 9.690
16.5403 9.830
16.5554 9.772
16.5706 9.827
16.5858 9.820
16.6010 9.886
16.6161 10.113
16.6313 10.120
16.6465 9.855
16.6617 9.721
16.6768 10.092
16.6920 10.214
16.7072 10.013
16.7224 9.953
16.7375 9.984
16.7527 9.877
16.7679 9.918
16.7831 10.082
16.7982 10.181
16.8134 10.132
16.8286 9.875
16.8438 9.895
16.8589 10.050
16.8741 10.044
16.8893 9.962
16.9045 9.877
16.9196 9.718
16.9348 9.780
16.9500 9.873
16.9652 9.892
16.9803 9.965
16.9955 10.141
17.0107 10.224
17.0259 10.212
17.0410 10.192
17.0562 10.293
17.0714 10.474
17.0866 10.624
17.1017 10.820
17.1169 10.964
17.1321 11.153
17.1473 11.479
17.1624 11.855
17.1776 12.472
17.1928 13.226
17.2080 14.065
17.2231 15.138
17.2383 16.477
17.2535 18.000
17.2687 18.883
17.2838 18.915
17.2990 18.266
17.3142 17.214
17.3294 16.498
17.3445 16.128
17.3597 15.987
17.3749 15.824
17.3901 15.348
17.4052 14.214
17.4204 12.927
17.4356 12.331
17.4508 12.066
17.4659 11.669
17.4811 11.469
17.4963 11.550
17.5115 11.173
17.5266 11.088
17.5418 11.277
17.5570 11.104
17.5722 11.154
17.5873 11.297
17.6025 11.286
17.6177 10.947
17.6329 10.626
17.6480 10.491
17.6632 10.351
17.6784 10.452
17.6936 10.722
17.7087 10.640
17.7239 10.400
17.7391 10.522
17.7543 10.646
17.7694 10.370
17.7846 10.181
17.7998 10.160
17.8150 10.015
17.8301 10.104
17.8453 10.165
17.8605 10.192
17.8757 10.284
17.8908 10.310
17.9060 10.195
17.9212 10.167
17.9364 10.177
17.9515 10.295
17.9667 10.349
17.9819 10.306
17.9971 10.220
18.0122 10.231
18.0274 10.293
18.0426 10.226
18.0578 10.345
18.0729 10.342
18.0881 10.164
18.1033 10.179
18.1185 10.273
18.1336 10.066
18.1488 9.941
18.1640 9.920
18.1792 10.011
18.1943 9.971
18.2095 9.778
18.2247 9.676
18.2399 9.963
18.2550 10.085
18.2702 9.890
18.2854 9.788
18.3006 9.791
18.3157 9.739
18.3309 9.938
18.3461 10.050
18.3613 9.917
18.3764 9.975
18.3916 9.639
18.4068 9.664
18.4220 9.757
18.4371 9.837
18.4523 10.067
18.4675 10.131
18.4827 9.926
18.4978 9.731
18.5130 9.572
18.5282 9.558
18.5434 9.658
18.5585 9.722
18.5737 9.803
18.5889 9.771
18.6041 9.881
18.6192 9.848
18.6344 9.906
18.6496 9.664
18.6648 9.731
18.6799 9.885
18.6951 9.747
18.7103 9.896
18.7255 9.946
18.7406 9.912
18.7558 9.899
18.7710 9.765
18.7862 9.814
18.8013 9.710
18.8165 9.703
18.8317 10.090
18.8469 10.072
18.8620 9.886
18.8772 10.030
18.8924 10.028
18.9076 9.923
18.9227 9.889
18.9379 9.886
18.9531 10.032
18.9683 10.083
18.9834 9.935
18.9986 10.035
19.0138 10.088
19.0290 10.084
19.0441 10.216
19.0593 10.258
19.0745 10.143
19.0897 10.346
19.1048 10.469
19.1200 10.254
19.1352 10.394
19.1504 10.536
19.1655 10.562
19.1807 10.523
19.1959 10.574
19.2111 10.580
19.2262 10.815
19.2414 10.929
19.2566 10.959
19.2718 11.092
19.2869 10.970
19.3021 10.934
19.3173 11.075
19.3325 11.060
19.3476 11.107
19.3628 11.110
19.3780 11.229
19.3932 11.192
19.4083 11.083
19.4235 11.051
19.4387 11.203
19.4539 11.359
19.4690 11.359
19.4842 11.250
19.4994 11.248
19.5146 11.385
19.5297 11.524
19.5449 11.788
19.5601 11.811
19.5753 11.611
19.5904 11.614
19.6056 11.447
19.6208 11.446
19.6360 11.595
19.6511 11.718
19.6663 11.571
19.6815 11.665
19.6967 11.957
19.7118 11.649
19.7270 11.705
19.7422 11.921
19.7574 11.717
19.7725 11.526
19.7877 11.783
19.8029 11.967
19.8180 12.041
19.8332 12.236
19.8484 12.416
19.8636 12.724
19.8787 12.744
19.8939 12.857
19.9091 13.141
19.9243 13.287
19.9394 13.749
19.9546 14.019
19.9698 14.469
19.9850 14.776
20.0001 14.530
20.0153 14.307
20.0305 14.079
20.0457 13.853
20.0608 13.839
20.0760 13.566
20.0912 13.505
20.1064 13.770
20.1215 13.542
20.1367 13.314
20.1519 13.137
20.1671 12.869
20.1822 12.658
20.1974 12.905
20.2126 12.750
20.2278 12.609
20.2429 12.595
20.2581 12.199
20.2733 12.019
20.2885 11.825
20.3036 11.643
20.3188 11.519
20.3340 11.589
20.3492 11.728
20.3643 11.391
20.3795 11.098
20.3947 10.982
20.4099 10.928
20.4250 10.836
20.4402 10.790
20.4554 10.793
20.4706 10.847
20.4857 10.738
20.5009 10.696
20.5161 10.532
20.5313 10.596
20.5464 10.631
20.5616 10.655
20.5768 10.329
20.5920 10.365
20.6071 10.512
20.6223 10.743
20.6375 10.701
20.6527 10.811
20.6678 10.430
20.6830 10.533
20.6982 10.510
20.7134 10.622
20.7285 10.338
20.7437 10.398
20.7589 10.629
20.7741 10.555
20.7892 10.341
20.8044 10.266
20.8196 10.595
20.8348 10.235
20.8499 10.182
20.8651 10.157
20.8803 10.314
20.8955 10.250
20.9106 10.242
20.9258 10.187
20.9410 9.937
20.9562 10.240
20.9713 10.107
20.9865 10.119
21.0017 10.146
21.0169 10.069
21.0320 9.955
21.0472 9.881
21.0624 9.729
21.0776 9.732
21.0927 10.014
21.1079 9.915
21.1231 9.890
21.1383 9.799
21.1534 9.730
21.1686 9.937
21.1838 9.544
21.1990 10.016
21.2141 9.452
21.2293 9.627
21.2445 9.952
21.2597 9.433
21.2748 9.500
21.2900 9.469
21.3052 9.491
21.3204 9.702
21.3355 9.713
21.3507 9.604
21.3659 9.674
21.3811 9.681
21.3962 9.783
21.4114 9.675
21.4266 9.511
21.4418 9.334
21.4569 9.706
21.4721 9.743
21.4873 9.137
21.5025 9.259
21.5176 9.492
21.5328 9.734
21.5480 9.716
21.5632 9.432
21.5783 9.073
21.5935 9.150
21.6087 8.997
21.6239 8.941
21.6390 9.254
21.6542 9.169
21.6694 9.154
21.6846 9.225
21.6997 8.973
21.7149 9.236
21.7301 9.021
21.7453 8.984
21.7604 9.249
21.7756 9.253
21.7908 9.206
21.8060 9.235
21.8211 9.271
21.8363 9.234
21.8515 9.197
21.8667 8.905
21.8818 9.019
21.8970 8.884
21.9122 8.767
21.9274 8.816
21.9425 8.845
21.9577 8.666
21.9729 8.839
21.9881 9.009
22.0032 8.923
22.0184 8.871
22.0336 8.801
22.0488 8.926
22.0639 9.015
22.0791 9.043
22.0943 8.952
22.1095 8.811
22.1246 8.815
22.1398 8.916
22.1550 8.732
22.1702 8.765
22.1853 8.721
22.2005 8.545
22.2157 8.616
22.2309 8.732
22.2460 8.786
22.2612 8.645
22.2764 8.586
22.2916 8.619
22.3067 8.908
22.3219 8.851
22.3371 8.541
22.3523 8.566
22.3674 8.848
22.3826 8.901
22.3978 8.605
22.4130 8.626
22.4281 8.679
22.4433 8.445
22.4585 8.380
22.4737 8.330
22.4888 8.540
22.5040 8.608
22.5192 8.769
22.5344 8.355
22.5495 8.480
22.5647 8.369
22.5799 8.329
22.5951 8.685
22.6102 8.311
22.6254 8.761
22.6406 8.630
22.6558 8.501
22.6709 8.420
22.6861 8.449
22.7013 8.399
22.7165 8.148
22.7316 6.592
