'Id: "" Comment: "" Operator: "Lab Manager" Anode: "Mo" Scantype: "Still (Eiger2R_500K (1D mode))" TimePerStep: "300" X: "11.8" Y: "9.4" Z: "11.284" 
7.2532 18.595
7.2684 19.378
7.2836 18.555
7.2987 18.737
7.3139 19.247
7.3291 18.902
7.3443 19.442
7.3594 19.031
7.3746 19.192
7.3898 19.056
7.4050 19.232
7.4201 19.115
7.4353 19.104
7.4505 19.231
7.4657 19.484
7.4808 19.953
7.4960 19.516
7.5112 19.409
7.5264 20.026
7.5415 19.655
7.5567 19.694
7.5719 19.768
7.5871 19.641
7.6022 19.886
7.6174 19.763
7.6326 19.544
7.6478 19.371
7.6629 19.617
7.6781 20.247
7.6933 20.423
7.7085 20.308
7.7236 20.673
7.7388 20.415
7.7540 19.870
7.7692 20.051
7.7843 20.467
7.7995 20.371
7.8147 20.385
7.8299 20.600
7.8450 20.697
7.8602 20.555
7.8754 20.583
7.8905 20.700
7.9057 20.608
7.9209 20.776
7.9361 20.686
7.9512 20.704
7.9664 20.846
7.9816 21.079
7.9968 21.223
8.0119 21.140
8.0271 20.933
8.0423 20.880
8.0575 21.232
8.0726 21.020
8.0878 20.921
8.1030 20.714
8.1182 20.921
8.1333 21.459
8.1485 21.325
8.1637 21.262
8.1789 21.637
8.1940 21.643
8.2092 21.224
8.2244 21.087
8.2396 21.321
8.2547 21.689
8.2699 21.494
8.2851 21.902
8.3003 21.589
8.3154 21.411
8.3306 21.590
8.3458 21.355
8.3610 21.376
8.3761 21.412
8.3913 21.405
8.4065 22.111
8.4217 21.419
8.4368 21.897
8.4520 21.940
8.4672 21.733
8.4824 21.958
8.4975 21.632
8.5127 22.075
8.5279 22.059
8.5431 22.157
8.5582 22.094
8.5734 21.822
8.5886 22.917
8.6038 21.764
8.6189 22.129
8.6341 21.981
8.6493 22.092
8.6645 21.749
8.6796 22.119
8.6948 22.113
8.7100 22.381
8.7252 22.361
8.7403 22.128
8.7555 22.413
8.7707 22.532
8.7859 22.374
8.8010 22.343
8.8162 22.185
8.8314 22.392
8.8466 22.000
8.8617 22.015
8.8769 22.314
8.8921 22.561
8.9073 22.441
8.9224 22.649
8.9376 22.039
8.9528 22.472
8.9680 22.667
8.9831 22.469
8.9983 22.528
9.0135 22.549
9.0287 22.781
9.0438 22.678
9.0590 22.790
9.0742 22.790
9.0894 22.790
9.1045 22.488
9.1197 22.626
9.1349 23.233
9.1501 23.117
9.1652 22.644
9.1804 22.796
9.1956 23.066
9.2108 22.886
9.2259 22.923
9.2411 22.752
9.2563 22.572
9.2715 22.586
9.2866 22.420
9.3018 22.618
9.3170 23.082
9.3322 22.721
9.3473 23.072
9.3625 23.206
9.3777 23.307
9.3929 23.135
9.4080 22.989
9.4232 22.913
9.4384 23.030
9.4536 22.957
9.4687 22.802
9.4839 22.635
9.4991 22.838
9.5143 23.099
9.5294 22.899
9.5446 22.872
9.5598 23.006
9.5750 23.181
9.5901 23.356
9.6053 23.382
9.6205 23.217
9.6357 23.314
9.6508 23.407
9.6660 23.427
9.6812 23.762
9.6964 23.555
9.7115 23.417
9.7267 23.767
9.7419 23.943
9.7571 23.782
9.7722 23.696
9.7874 23.686
9.8026 23.431
9.8178 23.382
9.8329 23.025
9.8481 22.847
9.8633 22.961
9.8785 23.022
9.8936 23.004
9.9088 22.927
9.9240 23.232
9.9392 23.326
9.9543 22.986
9.9695 23.219
9.9847 23.465
9.9999 23.146
10.0150 23.053
10.0302 23.252
10.0454 23.168
10.0606 22.939
10.0757 23.251
10.0909 23.241
10.1061 22.989
10.1213 23.442
10.1364 23.890
10.1516 23.702
10.1668 23.392
10.1820 23.533
10.1971 23.202
10.2123 23.040
10.2275 23.153
10.2427 22.936
10.2578 22.964
10.2730 23.138
10.2882 22.712
10.3034 22.864
10.3185 22.910
10.3337 22.310
10.3489 22.390
10.3641 22.726
10.3792 22.758
10.3944 22.729
10.4096 22.694
10.4248 22.652
10.4399 22.490
10.4551 22.457
10.4703 22.533
10.4855 22.867
10.5006 22.820
10.5158 22.547
10.5310 22.417
10.5462 22.255
10.5613 22.389
10.5765 22.407
10.5917 22.551
10.6069 22.217
10.6220 21.707
10.6372 22.066
10.6524 22.776
10.6676 22.802
10.6827 22.498
10.6979 22.317
10.7131 22.594
10.7283 22.252
10.7434 21.803
10.7586 21.874
10.7738 21.884
10.7890 22.246
10.8041 22.377
10.8193 22.344
10.8345 21.962
10.8497 22.187
10.8648 22.008
10.8800 22.258
10.8952 22.365
10.9104 22.048
10.9255 22.031
10.9407 22.065
10.9559 21.942
10.9711 21.875
10.9862 22.037
11.0014 22.045
11.0166 22.436
11.0318 22.405
11.0469 21.881
11.0621 21.896
11.0773 21.789
11.0925 21.712
11.1076 21.760
11.1228 21.881
11.1380 21.649
11.1532 21.248
11.1683 21.548
11.1835 21.631
11.1987 21.212
11.2139 21.365
11.2290 21.085
11.2442 21.139
11.2594 21.562
11.2746 21.557
11.2897 21.332
11.3049 21.394
11.3201 21.524
11.3353 21.229
11.3504 21.480
11.3656 21.668
11.3808 21.434
11.3960 21.259
11.4111 21.298
11.4263 20.882
11.4415 20.992
11.4567 20.976
11.4718 21.536
11.4870 21.215
11.5022 20.962
11.5174 20.851
11.5325 20.881
11.5477 21.267
11.5629 21.039
11.5781 20.782
11.5932 20.945
11.6084 20.978
11.6236 20.953
11.6388 20.510
11.6539 20.186
11.6691 20.589
11.6843 20.797
11.6995 20.800
11.7146 20.509
11.7298 20.312
11.7450 20.464
11.7602 20.184
11.7753 19.902
11.7905 20.223
11.8057 20.311
11.8209 20.181
11.8360 19.994
11.8512 19.765
11.8664 19.705
11.8816 19.628
11.8967 19.445
11.9119 19.640
11.9271 19.602
11.9423 19.487
11.9574 19.635
11.9726 19.627
11.9878 19.464
12.0030 19.164
12.0181 19.140
12.0333 19.145
12.0485 18.991
12.0637 19.125
12.0788 18.944
12.0940 18.704
12.1092 18.561
12.1244 18.663
12.1395 18.675
12.1547 18.224
12.1699 18.290
12.1851 18.160
12.2002 17.880
12.2154 18.093
12.2306 18.079
12.2458 17.940
12.2609 17.820
12.2761 17.646
12.2913 17.553
12.3065 17.353
12.3216 17.691
12.3368 17.624
12.3520 17.641
12.3672 17.407
12.3823 17.210
12.3975 17.096
12.4127 17.236
12.4279 17.112
12.4430 16.799
12.4582 16.875
12.4734 16.792
12.4886 16.559
12.5037 16.389
12.5189 16.346
12.5341 16.399
12.5493 16.042
12.5644 16.173
12.5796 16.353
12.5948 16.238
12.6100 16.025
12.6251 16.041
12.6403 16.168
12.6555 15.820
12.6707 15.536
12.6858 15.618
12.7010 15.836
12.7162 15.970
12.7314 15.654
12.7465 15.315
12.7617 15.394
12.7769 15.246
12.7921 14.940
12.8072 14.961
12.8224 15.107
12.8376 14.973
12.8528 14.831
12.8679 14.576
12.8831 14.633
12.8983 14.790
12.9135 14.917
12.9286 14.852
12.9438 14.548
12.9590 14.514
12.9742 14.524
12.9893 14.507
13.0045 14.495
13.0197 14.215
13.0349 14.182
13.0500 13.961
13.0652 14.030
13.0804 14.243
13.0956 14.039
13.1107 13.828
13.1259 13.479
13.1411 13.585
13.1563 13.866
13.1714 13.874
13.1866 13.764
13.2018 13.616
13.2170 13.429
13.2321 13.192
13.2473 13.269
13.2625 13.265
13.2777 13.189
13.2928 13.255
13.3080 13.138
13.3232 13.011
13.3384 12.955
13.3535 12.944
13.3687 12.901
13.3839 12.923
13.3991 12.819
13.4142 12.937
13.4294 13.054
13.4446 12.824
13.4598 12.718
13.4749 12.703
13.4901 12.670
13.5053 12.643
13.5205 12.559
13.5356 12.620
13.5508 12.466
13.5660 12.418
13.5812 12.503
13.5963 12.573
13.6115 12.398
13.6267 12.268
13.6419 12.086
13.6570 12.185
13.6722 12.316
13.6874 12.103
13.7026 11.944
13.7177 12.078
13.7329 12.222
13.7481 12.177
13.7633 11.952
13.7784 11.952
13.7936 12.128
13.8088 12.128
13.8239 12.131
13.8391 12.318
13.8543 12.253
13.8695 12.299
13.8846 12.346
13.8998 12.392
13.9150 12.294
13.9302 12.080
13.9453 12.127
13.9605 11.995
13.9757 11.860
13.9909 11.796
14.0060 11.725
14.0212 11.696
14.0364 11.798
14.0516 11.269
14.0667 11.413
14.0819 11.576
14.0971 11.575
14.1123 11.281
14.1274 11.221
14.1426 11.873
14.1578 11.940
14.1730 11.697
14.1881 11.623
14.2033 11.683
14.2185 11.859
14.2337 11.815
14.2488 11.939
14.2640 11.926
14.2792 11.779
14.2944 11.784
14.3095 11.886
14.3247 12.125
14.3399 12.366
14.3551 12.405
14.3702 12.610
14.3854 13.099
14.4006 13.134
14.4158 13.017
14.4309 12.968
14.4461 12.982
14.4613 12.699
14.4765 12.445
14.4916 12.476
14.5068 12.236
14.5220 11.613
14.5372 11.646
14.5523 11.157
14.5675 11.103
14.5827 10.955
14.5979 10.716
14.6130 10.735
14.6282 10.635
14.6434 10.581
14.6586 11.001
14.6737 10.683
14.6889 10.741
14.7041 10.664
14.7193 10.598
14.7344 10.637
14.7496 10.394
14.7648 10.371
14.7800 10.756
14.7951 10.605
14.8103 10.561
14.8255 10.273
14.8407 10.354
14.8558 10.353
14.8710 10.463
14.8862 10.622
14.9014 10.446
14.9165 10.751
14.9317 10.751
14.9469 10.692
14.9621 10.250
14.9772 10.383
14.9924 10.257
15.0076 10.025
15.0228 10.089
15.0379 10.398
15.0531 10.514
15.0683 10.334
15.0835 10.612
15.0986 10.295
15.1138 10.484
15.1290 10.249
15.1442 10.321
15.1593 10.041
15.1745 10.111
15.1897 10.005
15.2049 9.770
15.2200 10.452
15.2352 9.861
15.2504 10.368
15.2656 10.197
15.2807 9.862
15.2959 9.756
15.3111 9.882
15.3263 10.215
15.3414 10.226
15.3566 9.909
15.3718 10.211
15.3870 10.290
15.4021 9.960
15.4173 10.633
15.4325 9.970
15.4477 10.044
15.4628 9.902
15.4780 10.112
15.4932 10.386
15.5084 10.397
15.5235 10.124
15.5387 9.863
15.5539 9.940
15.5691 9.828
15.5842 10.077
15.5994 9.548
15.6146 9.834
15.6298 9.823
15.6449 9.823
15.6601 9.594
15.6753 9.715
15.6905 9.667
15.7056 9.612
15.7208 9.950
15.7360 9.749
15.7512 9.708
15.7663 9.757
15.7815 9.550
15.7967 9.620
15.8119 9.845
15.8270 9.678
15.8422 9.726
15.8574 9.483
15.8726 9.462
15.8877 9.473
15.9029 9.531
15.9181 9.655
15.9333 9.538
15.9484 9.614
15.9636 9.581
15.9788 9.678
15.9940 9.435
16.0091 9.619
16.0243 9.590
16.0395 9.574
16.0547 9.567
16.0698 9.390
16.0850 9.461
16.1002 9.901
16.1154 9.776
16.1305 9.731
16.1457 9.675
16.1609 9.779
16.1761 9.736
16.1912 9.582
16.2064 9.479
16.2216 9.662
16.2368 9.652
16.2519 9.446
16.2671 9.634
16.2823 9.461
16.2975 9.753
16.3126 9.829
16.3278 9.702
16.3430 9.483
16.3582 9.718
16.3733 9.881
16.3885 10.126
16.4037 10.146
16.4189 9.908
16.4340 10.039
16.4492 9.863
16.4644 9.769
16.4796 9.648
16.4947 9.960
16.5099 9.841
16.5251 9.464
16.5403 9.510
16.5554 9.643
16.5706 9.365
16.5858 9.493
16.6010 9.565
16.6161 9.687
16.6313 9.568
16.6465 9.730
16.6617 9.579
16.6768 9.691
16.6920 9.858
16.7072 9.910
16.7224 9.867
16.7375 9.966
16.7527 9.991
16.7679 9.933
16.7831 9.577
16.7982 9.630
16.8134 9.829
16.8286 9.766
16.8438 9.817
16.8589 9.618
16.8741 9.511
16.8893 9.683
16.9045 9.857
16.9196 9.754
16.9348 9.763
16.9500 9.812
16.9652 9.896
16.9803 9.750
16.9955 9.730
17.0107 9.956
17.0259 10.104
17.0410 9.999
17.0562 9.961
17.0714 10.217
17.0866 10.502
17.1017 10.391
17.1169 10.386
17.1321 10.750
17.1473 11.295
17.1624 11.803
17.1776 12.338
17.1928 13.004
17.2080 13.925
17.2231 15.256
17.2383 16.535
17.2535 17.624
17.2687 18.572
17.2838 18.666
17.2990 17.994
17.3142 17.102
17.3294 16.556
17.3445 16.288
17.3597 16.211
17.3749 16.011
17.3901 15.238
17.4052 14.258
17.4204 13.406
17.4356 12.946
17.4508 12.329
17.4659 11.853
17.4811 11.733
17.4963 11.474
17.5115 11.352
17.5266 11.077
17.5418 10.807
17.5570 10.821
17.5722 10.823
17.5873 10.963
17.6025 10.931
17.6177 11.036
17.6329 11.339
17.6480 11.482
17.6632 11.558
17.6784 11.614
17.6936 11.681
17.7087 11.381
17.7239 11.119
17.7391 11.078
17.7543 11.072
17.7694 10.892
17.7846 10.781
17.7998 11.020
17.8150 11.029
17.8301 10.702
17.8453 10.302
17.8605 10.281
17.8757 10.474
17.8908 10.276
17.9060 10.160
17.9212 10.352
17.9364 10.262
17.9515 10.050
17.9667 10.095
17.9819 10.233
17.9971 10.280
18.0122 10.298
18.0274 10.300
18.0426 10.321
18.0578 10.083
18.0729 9.966
18.0881 10.094
18.1033 10.136
18.1185 9.948
18.1336 10.099
18.1488 10.023
18.1640 9.831
18.1792 9.884
18.1943 9.914
18.2095 9.821
18.2247 9.836
18.2399 9.962
18.2550 10.110
18.2702 9.898
18.2854 9.738
18.3006 9.758
18.3157 9.726
18.3309 9.669
18.3461 9.937
18.3613 9.722
18.3764 9.556
18.3916 9.782
18.4068 9.921
18.4220 9.809
18.4371 9.672
18.4523 9.671
18.4675 9.838
18.4827 9.945
18.4978 9.896
18.5130 9.796
18.5282 9.934
18.5434 9.826
18.5585 9.775
18.5737 9.763
18.5889 9.874
18.6041 9.760
18.6192 9.713
18.6344 9.903
18.6496 9.841
18.6648 9.755
18.6799 9.874
18.6951 9.802
18.7103 9.993
18.7255 9.908
18.7406 9.621
18.7558 9.843
18.7710 9.923
18.7862 9.839
18.8013 9.735
18.8165 9.936
18.8317 10.187
18.8469 10.008
18.8620 10.241
18.8772 10.379
18.8924 10.146
18.9076 9.898
18.9227 10.051
18.9379 10.137
18.9531 10.100
18.9683 9.976
18.9834 9.767
18.9986 9.825
19.0138 9.943
19.0290 9.940
19.0441 9.926
19.0593 10.141
19.0745 10.254
19.0897 10.221
19.1048 10.470
19.1200 10.503
19.1352 10.480
19.1504 10.420
19.1655 10.361
19.1807 10.418
19.1959 10.608
19.2111 10.665
19.2262 10.779
19.2414 10.864
19.2566 10.842
19.2718 10.996
19.2869 10.805
19.3021 10.766
19.3173 10.992
19.3325 10.875
19.3476 11.002
19.3628 11.193
19.3780 11.262
19.3932 10.947
19.4083 11.020
19.4235 11.419
19.4387 11.313
19.4539 11.184
19.4690 11.338
19.4842 11.293
19.4994 11.224
19.5146 11.251
19.5297 11.551
19.5449 11.553
19.5601 11.379
19.5753 11.516
19.5904 11.747
19.6056 11.812
19.6208 11.600
19.6360 11.591
19.6511 11.834
19.6663 12.020
19.6815 11.754
19.6967 11.586
19.7118 11.828
19.7270 11.809
19.7422 11.610
19.7574 11.714
19.7725 11.905
19.7877 11.923
19.8029 11.861
19.8180 12.009
19.8332 12.204
19.8484 12.272
19.8636 12.496
19.8787 12.712
19.8939 12.719
19.9091 12.964
19.9243 13.393
19.9394 13.773
19.9546 14.273
19.9698 14.353
19.9850 14.551
20.0001 14.399
20.0153 14.004
20.0305 14.060
20.0457 14.098
20.0608 13.874
20.0760 13.905
20.0912 14.001
20.1064 13.774
20.1215 13.552
20.1367 13.549
20.1519 13.264
20.1671 13.229
20.1822 13.055
20.1974 12.903
20.2126 12.721
20.2278 12.684
20.2429 12.388
20.2581 12.400
20.2733 12.212
20.2885 11.866
20.3036 11.961
20.3188 12.012
20.3340 11.810
20.3492 11.995
20.3643 11.785
20.3795 11.751
20.3947 11.674
20.4099 11.468
20.4250 11.629
20.4402 11.913
20.4554 11.992
20.4706 11.898
20.4857 11.637
20.5009 11.568
20.5161 11.528
20.5313 11.384
20.5464 11.427
20.5616 11.483
20.5768 11.361
20.5920 11.219
20.6071 11.350
20.6223 11.248
20.6375 11.081
20.6527 10.658
20.6678 10.434
20.6830 10.370
20.6982 10.677
20.7134 10.576
20.7285 10.347
20.7437 10.472
20.7589 10.546
20.7741 10.474
20.7892 10.260
20.8044 10.223
20.8196 10.077
20.8348 10.454
20.8499 10.303
20.8651 10.201
20.8803 10.042
20.8955 10.429
20.9106 10.401
20.9258 9.915
20.9410 9.943
20.9562 9.997
20.9713 10.194
20.9865 10.101
21.0017 9.912
21.0169 10.159
21.0320 10.118
21.0472 9.873
21.0624 10.149
21.0776 9.716
21.0927 9.697
21.1079 10.012
21.1231 10.040
21.1383 9.994
21.1534 9.776
21.1686 9.814
21.1838 9.719
21.1990 9.656
21.2141 9.745
21.2293 9.392
21.2445 9.658
21.2597 9.436
21.2748 9.672
21.2900 9.668
21.3052 9.836
21.3204 9.937
21.3355 9.432
21.3507 9.874
21.3659 9.644
21.3811 9.204
21.3962 9.809
21.4114 9.525
21.4266 9.310
21.4418 9.225
21.4569 9.443
21.4721 9.538
21.4873 9.557
21.5025 9.476
21.5176 9.409
21.5328 9.427
21.5480 9.195
21.5632 9.147
21.5783 9.170
21.5935 9.066
21.6087 9.290
21.6239 9.200
21.6390 9.240
21.6542 9.224
21.6694 9.297
21.6846 9.333
21.6997 9.028
21.7149 8.863
21.7301 8.941
21.7453 9.233
21.7604 9.270
21.7756 9.168
21.7908 9.322
21.8060 9.222
21.8211 9.194
21.8363 9.110
21.8515 9.097
21.8667 9.176
21.8818 9.079
21.8970 8.840
21.9122 8.866
21.9274 8.953
21.9425 8.906
21.9577 8.784
21.9729 8.895
21.9881 9.007
22.0032 8.997
22.0184 8.863
22.0336 8.760
22.0488 8.728
22.0639 8.707
22.0791 8.759
22.0943 8.940
22.1095 8.851
22.1246 8.678
22.1398 8.802
22.1550 8.650
22.1702 8.593
22.1853 8.411
22.2005 8.369
22.2157 8.634
22.2309 8.563
22.2460 8.591
22.2612 8.589
22.2764 8.483
22.2916 8.574
22.3067 8.587
22.3219 8.705
22.3371 8.764
22.3523 8.558
22.3674 8.554
22.3826 8.462
22.3978 8.519
22.4130 8.466
22.4281 8.362
22.4433 8.425
22.4585 8.274
22.4737 8.405
22.4888 8.430
22.5040 8.338
22.5192 8.812
22.5344 8.647
22.5495 8.380
22.5647 8.518
22.5799 8.487
22.5951 8.319
22.6102 8.656
22.6254 8.605
22.6406 8.379
22.6558 8.483
22.6709 8.406
22.6861 8.263
22.7013 8.032
22.7165 8.015
22.7316 6.487
