'Id: "" Comment: "" Operator: "Lab Manager" Anode: "Mo" Scantype: "Still (Eiger2R_500K (1D mode))" TimePerStep: "300" X: "11.8" Y: "9.4" Z: "11.284" 
7.2532 19.039
7.2684 18.483
7.2836 19.123
7.2987 19.287
7.3139 18.626
7.3291 19.104
7.3443 18.769
7.3594 18.857
7.3746 19.151
7.3898 19.050
7.4050 19.509
7.4201 19.279
7.4353 19.589
7.4505 19.309
7.4657 19.213
7.4808 19.424
7.4960 19.472
7.5112 19.498
7.5264 19.830
7.5415 20.501
7.5567 19.798
7.5719 19.579
7.5871 19.958
7.6022 20.295
7.6174 20.215
7.6326 19.549
7.6478 19.502
7.6629 19.823
7.6781 19.992
7.6933 20.017
7.7085 20.030
7.7236 19.886
7.7388 20.210
7.7540 20.507
7.7692 20.376
7.7843 20.437
7.7995 20.384
7.8147 20.398
7.8299 20.604
7.8450 20.455
7.8602 20.621
7.8754 20.932
7.8905 21.003
7.9057 20.985
7.9209 21.033
7.9361 20.954
7.9512 21.123
7.9664 21.212
7.9816 20.841
7.9968 20.633
8.0119 20.797
8.0271 20.884
8.0423 20.632
8.0575 21.019
8.0726 21.011
8.0878 20.930
8.1030 20.826
8.1182 20.832
8.1333 21.210
8.1485 21.424
8.1637 21.314
8.1789 21.217
8.1940 21.484
8.2092 21.012
8.2244 21.048
8.2396 21.445
8.2547 21.291
8.2699 21.368
8.2851 21.247
8.3003 21.441
8.3154 21.006
8.3306 21.566
8.3458 21.766
8.3610 21.190
8.3761 21.469
8.3913 21.862
8.4065 21.686
8.4217 21.689
8.4368 22.146
8.4520 22.078
8.4672 21.706
8.4824 21.774
8.4975 22.178
8.5127 21.942
8.5279 22.732
8.5431 22.368
8.5582 22.276
8.5734 22.043
8.5886 22.153
8.6038 22.272
8.6189 22.081
8.6341 22.015
8.6493 22.094
8.6645 22.068
8.6796 22.137
8.6948 22.184
8.7100 22.767
8.7252 22.305
8.7403 22.277
8.7555 22.262
8.7707 22.609
8.7859 22.089
8.8010 22.413
8.8162 22.406
8.8314 22.260
8.8466 22.588
8.8617 22.621
8.8769 22.316
8.8921 22.339
8.9073 22.545
8.9224 22.598
8.9376 22.692
8.9528 23.023
8.9680 22.507
8.9831 22.548
8.9983 22.392
9.0135 22.562
9.0287 22.685
9.0438 22.292
9.0590 22.493
9.0742 22.478
9.0894 22.609
9.1045 22.702
9.1197 22.915
9.1349 22.734
9.1501 22.527
9.1652 22.521
9.1804 22.847
9.1956 23.006
9.2108 22.697
9.2259 22.570
9.2411 23.034
9.2563 23.124
9.2715 22.969
9.2866 22.694
9.3018 22.837
9.3170 22.913
9.3322 22.976
9.3473 22.758
9.3625 23.032
9.3777 22.605
9.3929 22.415
9.4080 22.692
9.4232 22.680
9.4384 22.818
9.4536 22.848
9.4687 22.911
9.4839 23.024
9.4991 23.196
9.5143 23.218
9.5294 23.104
9.5446 23.002
9.5598 22.936
9.5750 22.928
9.5901 23.017
9.6053 23.337
9.6205 23.541
9.6357 23.892
9.6508 23.724
9.6660 23.566
9.6812 23.488
9.6964 23.381
9.7115 23.828
9.7267 23.969
9.7419 23.969
9.7571 24.027
9.7722 24.049
9.7874 24.081
9.8026 23.901
9.8178 23.693
9.8329 23.600
9.8481 23.472
9.8633 23.363
9.8785 23.186
9.8936 23.178
9.9088 22.968
9.9240 22.677
9.9392 22.933
9.9543 22.830
9.9695 22.725
9.9847 23.206
9.9999 23.035
10.0150 22.832
10.0302 22.956
10.0454 23.004
10.0606 22.907
10.0757 23.341
10.0909 23.485
10.1061 23.128
10.1213 23.246
10.1364 23.416
10.1516 23.507
10.1668 23.545
10.1820 23.625
10.1971 23.242
10.2123 23.077
10.2275 23.043
10.2427 22.964
10.2578 22.997
10.2730 22.863
10.2882 22.810
10.3034 22.846
10.3185 22.540
10.3337 22.528
10.3489 22.974
10.3641 23.103
10.3792 22.803
10.3944 22.672
10.4096 22.744
10.4248 22.795
10.4399 22.602
10.4551 22.491
10.4703 22.380
10.4855 22.640
10.5006 22.595
10.5158 22.491
10.5310 22.663
10.5462 22.638
10.5613 22.572
10.5765 22.469
10.5917 22.311
10.6069 22.533
10.6220 22.446
10.6372 22.249
10.6524 22.506
10.6676 22.518
10.6827 22.544
10.6979 22.568
10.7131 22.537
10.7283 22.562
10.7434 22.424
10.7586 22.284
10.7738 22.545
10.7890 22.471
10.8041 22.123
10.8193 22.206
10.8345 22.077
10.8497 21.909
10.8648 22.100
10.8800 22.220
10.8952 21.839
10.9104 21.814
10.9255 21.811
10.9407 22.038
10.9559 22.339
10.9711 22.438
10.9862 21.977
11.0014 21.953
11.0166 22.234
11.0318 22.382
11.0469 21.857
11.0621 22.055
11.0773 22.107
11.0925 21.885
11.1076 21.739
11.1228 21.885
11.1380 21.680
11.1532 21.774
11.1683 21.484
11.1835 20.979
11.1987 21.504
11.2139 21.708
11.2290 21.552
11.2442 21.603
11.2594 21.562
11.2746 21.617
11.2897 21.576
11.3049 21.930
11.3201 21.467
11.3353 21.408
11.3504 21.315
11.3656 21.315
11.3808 20.931
11.3960 21.093
11.4111 21.218
11.4263 21.459
11.4415 21.179
11.4567 20.880
11.4718 21.195
11.4870 21.242
11.5022 21.339
11.5174 20.981
11.5325 21.284
11.5477 21.036
11.5629 20.953
11.5781 20.796
11.5932 20.742
11.6084 20.948
11.6236 20.903
11.6388 20.762
11.6539 20.823
11.6691 20.525
11.6843 20.348
11.6995 20.620
11.7146 20.606
11.7298 20.706
11.7450 20.451
11.7602 20.343
11.7753 20.215
11.7905 19.831
11.8057 19.758
11.8209 19.800
11.8360 19.590
11.8512 19.648
11.8664 20.211
11.8816 20.104
11.8967 19.761
11.9119 19.365
11.9271 19.444
11.9423 19.239
11.9574 19.505
11.9726 19.267
11.9878 18.882
12.0030 18.870
12.0181 18.980
12.0333 18.735
12.0485 18.889
12.0637 18.945
12.0788 18.539
12.0940 18.576
12.1092 18.739
12.1244 18.747
12.1395 18.610
12.1547 18.491
12.1699 18.458
12.1851 17.937
12.2002 17.910
12.2154 18.074
12.2306 17.772
12.2458 17.913
12.2609 17.853
12.2761 17.708
12.2913 17.781
12.3065 17.895
12.3216 17.933
12.3368 17.813
12.3520 17.475
12.3672 17.544
12.3823 17.030
12.3975 17.076
12.4127 17.229
12.4279 16.866
12.4430 16.772
12.4582 16.755
12.4734 16.667
12.4886 16.703
12.5037 16.505
12.5189 16.381
12.5341 16.483
12.5493 16.603
12.5644 16.618
12.5796 16.437
12.5948 16.205
12.6100 16.102
12.6251 16.026
12.6403 16.093
12.6555 15.837
12.6707 15.643
12.6858 15.649
12.7010 15.507
12.7162 15.619
12.7314 15.636
12.7465 15.690
12.7617 15.369
12.7769 15.141
12.7921 15.158
12.8072 14.748
12.8224 14.712
12.8376 14.661
12.8528 14.666
12.8679 14.834
12.8831 14.747
12.8983 14.834
12.9135 14.759
12.9286 14.391
12.9438 14.292
12.9590 14.160
12.9742 14.130
12.9893 14.337
13.0045 14.323
13.0197 14.296
13.0349 13.922
13.0500 13.643
13.0652 13.673
13.0804 13.664
13.0956 13.873
13.1107 13.857
13.1259 13.640
13.1411 13.496
13.1563 13.289
13.1714 13.270
13.1866 13.337
13.2018 13.393
13.2170 13.273
13.2321 13.083
13.2473 13.105
13.2625 13.175
13.2777 13.399
13.2928 13.366
13.3080 13.128
13.3232 13.102
13.3384 13.045
13.3535 13.005
13.3687 13.020
13.3839 13.057
13.3991 13.025
13.4142 12.893
13.4294 13.042
13.4446 12.862
13.4598 12.646
13.4749 12.707
13.4901 12.691
13.5053 12.609
13.5205 12.489
13.5356 12.428
13.5508 12.474
13.5660 12.450
13.5812 12.406
13.5963 12.243
13.6115 12.113
13.6267 12.365
13.6419 12.072
13.6570 12.010
13.6722 12.035
13.6874 12.173
13.7026 12.353
13.7177 12.164
13.7329 11.959
13.7481 12.147
13.7633 12.090
13.7784 11.910
13.7936 11.962
13.8088 12.108
13.8239 12.127
13.8391 12.246
13.8543 12.398
13.8695 12.352
13.8846 12.313
13.8998 12.010
13.9150 12.197
13.9302 12.078
13.9453 11.974
13.9605 11.806
13.9757 11.987
13.9909 11.935
14.0060 11.752
14.0212 11.538
14.0364 11.656
14.0516 11.788
14.0667 11.852
14.0819 11.659
14.0971 11.597
14.1123 11.404
14.1274 11.713
14.1426 11.782
14.1578 11.747
14.1730 11.421
14.1881 11.677
14.2033 11.750
14.2185 11.297
14.2337 11.473
14.2488 11.689
14.2640 11.880
14.2792 11.836
14.2944 11.905
14.3095 12.186
14.3247 12.337
14.3399 12.431
14.3551 12.291
14.3702 12.377
14.3854 12.871
14.4006 13.166
14.4158 13.152
14.4309 12.994
14.4461 12.853
14.4613 12.731
14.4765 12.611
14.4916 12.412
14.5068 12.027
14.5220 12.015
14.5372 11.504
14.5523 11.443
14.5675 11.487
14.5827 11.201
14.5979 11.294
14.6130 10.682
14.6282 10.973
14.6434 10.676
14.6586 10.618
14.6737 10.697
14.6889 10.824
14.7041 10.362
14.7193 10.373
14.7344 10.317
14.7496 10.500
14.7648 10.641
14.7800 10.348
14.7951 10.545
14.8103 10.391
14.8255 10.366
14.8407 10.267
14.8558 10.295
14.8710 10.192
14.8862 10.315
14.9014 10.273
14.9165 10.458
14.9317 10.393
14.9469 10.500
14.9621 10.278
14.9772 10.089
14.9924 10.700
15.0076 10.130
15.0228 10.219
15.0379 10.426
15.0531 10.311
15.0683 10.274
15.0835 10.107
15.0986 10.008
15.1138 10.322
15.1290 10.210
15.1442 10.150
15.1593 9.886
15.1745 10.020
15.1897 10.218
15.2049 10.092
15.2200 9.887
15.2352 10.143
15.2504 9.820
15.2656 9.814
15.2807 10.130
15.2959 10.101
15.3111 10.307
15.3263 10.016
15.3414 9.830
15.3566 10.275
15.3718 9.935
15.3870 9.883
15.4021 10.056
15.4173 10.059
15.4325 10.340
15.4477 10.034
15.4628 10.057
15.4780 10.172
15.4932 10.019
15.5084 10.342
15.5235 9.645
15.5387 9.791
15.5539 10.036
15.5691 9.574
15.5842 10.198
15.5994 9.934
15.6146 9.576
15.6298 9.695
15.6449 9.883
15.6601 10.025
15.6753 9.712
15.6905 9.640
15.7056 9.820
15.7208 9.520
15.7360 9.663
15.7512 9.726
15.7663 9.586
15.7815 9.837
15.7967 9.683
15.8119 9.486
15.8270 9.656
15.8422 9.598
15.8574 9.476
15.8726 9.615
15.8877 9.207
15.9029 9.046
15.9181 9.308
15.9333 9.680
15.9484 9.561
15.9636 9.362
15.9788 9.749
15.9940 9.524
16.0091 9.566
16.0243 9.614
16.0395 9.756
16.0547 9.520
16.0698 9.649
16.0850 9.488
16.1002 9.773
16.1154 9.723
16.1305 9.354
16.1457 9.319
16.1609 9.704
16.1761 9.421
16.1912 9.563
16.2064 9.631
16.2216 9.659
16.2368 10.010
16.2519 9.799
16.2671 9.622
16.2823 9.637
16.2975 9.754
16.3126 9.991
16.3278 9.893
16.3430 9.698
16.3582 9.730
16.3733 9.716
16.3885 9.522
16.4037 9.572
16.4189 9.781
16.4340 9.784
16.4492 9.535
16.4644 9.568
16.4796 9.757
16.4947 9.667
16.5099 9.706
16.5251 9.477
16.5403 9.420
16.5554 9.609
16.5706 9.452
16.5858 9.519
16.6010 9.715
16.6161 9.670
16.6313 9.639
16.6465 9.672
16.6617 9.868
16.6768 9.810
16.6920 9.544
16.7072 9.704
16.7224 9.854
16.7375 9.987
16.7527 9.975
16.7679 9.916
16.7831 9.899
16.7982 9.902
16.8134 9.730
16.8286 9.620
16.8438 9.797
16.8589 9.788
16.8741 9.664
16.8893 9.564
16.9045 9.547
16.9196 9.717
16.9348 9.736
16.9500 9.842
16.9652 9.851
16.9803 9.867
16.9955 9.762
17.0107 9.579
17.0259 9.729
17.0410 9.980
17.0562 9.959
17.0714 9.969
17.0866 10.290
17.1017 10.578
17.1169 10.703
17.1321 10.635
17.1473 10.878
17.1624 11.514
17.1776 12.254
17.1928 12.809
17.2080 13.708
17.2231 15.245
17.2383 16.265
17.2535 17.202
17.2687 18.344
17.2838 18.648
17.2990 18.028
17.3142 16.986
17.3294 16.075
17.3445 15.748
17.3597 15.796
17.3749 15.906
17.3901 15.095
17.4052 13.816
17.4204 13.100
17.4356 12.434
17.4508 12.095
17.4659 11.793
17.4811 11.455
17.4963 11.282
17.5115 11.173
17.5266 11.220
17.5418 11.053
17.5570 10.699
17.5722 10.641
17.5873 10.782
17.6025 11.056
17.6177 11.390
17.6329 11.432
17.6480 11.447
17.6632 11.529
17.6784 11.851
17.6936 11.772
17.7087 11.470
17.7239 11.532
17.7391 11.581
17.7543 11.426
17.7694 11.076
17.7846 10.953
17.7998 11.049
17.8150 10.934
17.8301 10.575
17.8453 10.466
17.8605 10.599
17.8757 10.509
17.8908 10.442
17.9060 10.449
17.9212 10.601
17.9364 10.344
17.9515 10.032
17.9667 9.981
17.9819 10.053
17.9971 10.111
18.0122 10.119
18.0274 10.074
18.0426 9.957
18.0578 9.951
18.0729 10.017
18.0881 10.027
18.1033 10.042
18.1185 10.185
18.1336 10.191
18.1488 9.919
18.1640 10.010
18.1792 9.959
18.1943 9.816
18.2095 9.940
18.2247 9.776
18.2399 9.761
18.2550 9.762
18.2702 9.791
18.2854 9.737
18.3006 9.782
18.3157 9.846
18.3309 9.973
18.3461 10.030
18.3613 9.901
18.3764 10.038
18.3916 10.045
18.4068 9.767
18.4220 9.821
18.4371 9.717
18.4523 9.749
18.4675 9.976
18.4827 10.058
18.4978 10.003
18.5130 9.959
18.5282 9.966
18.5434 9.829
18.5585 9.751
18.5737 9.744
18.5889 9.709
18.6041 9.661
18.6192 9.800
18.6344 9.728
18.6496 9.547
18.6648 9.803
18.6799 9.820
18.6951 9.748
18.7103 9.790
18.7255 9.954
18.7406 9.751
18.7558 9.592
18.7710 9.472
18.7862 9.585
18.8013 9.718
18.8165 9.674
18.8317 9.745
18.8469 9.970
18.8620 9.886
18.8772 9.830
18.8924 10.007
18.9076 9.878
18.9227 9.938
18.9379 9.898
18.9531 10.064
18.9683 10.223
18.9834 9.929
18.9986 9.781
19.0138 10.189
19.0290 10.496
19.0441 10.402
19.0593 10.212
19.0745 10.314
19.0897 10.190
19.1048 10.249
19.1200 10.440
19.1352 10.394
19.1504 10.579
19.1655 10.695
19.1807 10.726
19.1959 10.598
19.2111 10.690
19.2262 10.744
19.2414 10.788
19.2566 10.902
19.2718 10.885
19.2869 10.627
19.3021 10.874
19.3173 10.996
19.3325 11.010
19.3476 11.166
19.3628 11.104
19.3780 10.927
19.3932 11.153
19.4083 11.556
19.4235 11.442
19.4387 11.274
19.4539 11.420
19.4690 11.483
19.4842 11.344
19.4994 11.401
19.5146 11.415
19.5297 11.313
19.5449 11.365
19.5601 11.465
19.5753 11.540
19.5904 11.722
19.6056 11.804
19.6208 11.667
19.6360 11.639
19.6511 11.692
19.6663 11.630
19.6815 11.592
19.6967 11.796
19.7118 11.594
19.7270 11.733
19.7422 11.951
19.7574 11.886
19.7725 11.893
19.7877 11.819
19.8029 11.986
19.8180 12.263
19.8332 12.477
19.8484 12.538
19.8636 12.426
19.8787 12.747
19.8939 13.260
19.9091 13.396
19.9243 13.528
19.9394 13.953
19.9546 14.268
19.9698 14.342
19.9850 14.542
20.0001 14.506
20.0153 14.057
20.0305 13.943
20.0457 14.138
20.0608 14.124
20.0760 13.909
20.0912 13.642
20.1064 13.556
20.1215 13.495
20.1367 13.334
20.1519 13.267
20.1671 13.054
20.1822 12.973
20.1974 12.891
20.2126 12.999
20.2278 12.794
20.2429 12.633
20.2581 12.285
20.2733 11.830
20.2885 11.848
20.3036 12.006
20.3188 11.913
20.3340 11.896
20.3492 12.224
20.3643 12.189
20.3795 11.920
20.3947 11.761
20.4099 11.679
20.4250 11.854
20.4402 11.898
20.4554 12.146
20.4706 12.149
20.4857 11.883
20.5009 11.934
20.5161 11.727
20.5313 11.471
20.5464 11.603
20.5616 11.597
20.5768 11.573
20.5920 11.268
20.6071 10.944
20.6223 11.304
20.6375 11.119
20.6527 10.844
20.6678 10.877
20.6830 10.852
20.6982 10.846
20.7134 10.861
20.7285 10.558
20.7437 10.616
20.7589 10.693
20.7741 10.289
20.7892 10.342
20.8044 10.353
20.8196 10.279
20.8348 10.383
20.8499 10.449
20.8651 10.367
20.8803 10.178
20.8955 10.326
20.9106 10.174
20.9258 10.456
20.9410 10.238
20.9562 10.516
20.9713 10.594
20.9865 10.344
21.0017 9.960
21.0169 10.152
21.0320 10.043
21.0472 9.812
21.0624 10.091
21.0776 10.087
21.0927 10.114
21.1079 9.941
21.1231 9.906
21.1383 9.974
21.1534 9.569
21.1686 9.740
21.1838 9.809
21.1990 9.566
21.2141 9.623
21.2293 9.627
21.2445 9.440
21.2597 9.831
21.2748 9.312
21.2900 9.603
21.3052 9.690
21.3204 9.941
21.3355 9.549
21.3507 9.348
21.3659 9.696
21.3811 9.787
21.3962 9.682
21.4114 9.661
21.4266 9.418
21.4418 9.280
21.4569 9.403
21.4721 9.374
21.4873 9.257
21.5025 9.410
21.5176 9.285
21.5328 9.384
21.5480 9.180
21.5632 9.248
21.5783 9.130
21.5935 9.358
21.6087 9.126
21.6239 9.273
21.6390 9.250
21.6542 8.968
21.6694 9.174
21.6846 9.279
21.6997 9.347
21.7149 9.167
21.7301 9.042
21.7453 8.835
21.7604 9.092
21.7756 9.150
21.7908 9.290
21.8060 9.328
21.8211 9.088
21.8363 9.012
21.8515 8.997
21.8667 9.166
21.8818 9.283
21.8970 9.248
21.9122 9.110
21.9274 8.964
21.9425 9.085
21.9577 9.168
21.9729 8.832
21.9881 8.653
22.0032 8.772
22.0184 8.783
22.0336 8.759
22.0488 8.835
22.0639 8.804
22.0791 8.793
22.0943 8.757
22.1095 8.798
22.1246 8.857
22.1398 8.749
22.1550 8.643
22.1702 8.571
22.1853 8.552
22.2005 8.632
22.2157 8.553
22.2309 8.476
22.2460 8.556
22.2612 8.417
22.2764 8.562
22.2916 8.494
22.3067 8.565
22.3219 8.686
22.3371 8.605
22.3523 8.443
22.3674 8.701
22.3826 8.587
22.3978 8.494
22.4130 8.247
22.4281 8.558
22.4433 8.667
22.4585 8.468
22.4737 8.414
22.4888 8.130
22.5040 8.335
22.5192 8.293
22.5344 8.590
22.5495 8.496
22.5647 8.435
22.5799 8.458
22.5951 8.441
22.6102 8.207
22.6254 8.514
22.6406 8.794
22.6558 8.280
22.6709 8.273
22.6861 8.417
22.7013 8.415
22.7165 7.844
22.7316 6.554
