'Id: "" Comment: "" Operator: "Lab Manager" Anode: "Mo" Scantype: "Still (Eiger2R_500K (1D mode))" TimePerStep: "300" X: "11.8" Y: "9.4" Z: "11.284" 
7.2532 19.038
7.2684 18.725
7.2836 18.809
7.2987 18.992
7.3139 19.034
7.3291 19.303
7.3443 19.106
7.3594 18.767
7.3746 18.993
7.3898 19.109
7.4050 19.820
7.4201 19.617
7.4353 19.568
7.4505 19.465
7.4657 19.168
7.4808 18.937
7.4960 19.591
7.5112 19.713
7.5264 19.989
7.5415 19.527
7.5567 19.427
7.5719 19.597
7.5871 19.769
7.6022 19.873
7.6174 19.837
7.6326 19.880
7.6478 20.270
7.6629 20.266
7.6781 20.262
7.6933 20.243
7.7085 20.332
7.7236 20.445
7.7388 20.262
7.7540 20.403
7.7692 20.538
7.7843 20.340
7.7995 20.462
7.8147 20.484
7.8299 20.539
7.8450 20.462
7.8602 20.421
7.8754 20.773
7.8905 20.605
7.9057 20.674
7.9209 20.968
7.9361 21.117
7.9512 20.897
7.9664 20.600
7.9816 20.912
7.9968 21.062
8.0119 21.413
8.0271 21.156
8.0423 21.227
8.0575 21.365
8.0726 21.289
8.0878 21.589
8.1030 21.603
8.1182 21.161
8.1333 21.372
8.1485 21.625
8.1637 21.493
8.1789 21.384
8.1940 21.360
8.2092 21.657
8.2244 21.604
8.2396 21.752
8.2547 21.922
8.2699 21.919
8.2851 21.648
8.3003 21.536
8.3154 21.487
8.3306 22.011
8.3458 21.777
8.3610 21.625
8.3761 21.876
8.3913 22.154
8.4065 21.972
8.4217 21.975
8.4368 22.103
8.4520 22.240
8.4672 21.918
8.4824 21.805
8.4975 21.894
8.5127 22.199
8.5279 22.563
8.5431 22.168
8.5582 21.578
8.5734 22.493
8.5886 21.884
8.6038 21.860
8.6189 22.335
8.6341 22.377
8.6493 21.948
8.6645 22.473
8.6796 22.371
8.6948 22.437
8.7100 22.102
8.7252 22.763
8.7403 22.493
8.7555 22.899
8.7707 22.859
8.7859 22.449
8.8010 22.323
8.8162 22.757
8.8314 23.029
8.8466 22.452
8.8617 22.302
8.8769 22.545
8.8921 22.809
8.9073 22.659
8.9224 22.570
8.9376 23.236
8.9528 22.905
8.9680 22.679
8.9831 22.969
8.9983 22.587
9.0135 22.698
9.0287 22.801
9.0438 22.205
9.0590 22.916
9.0742 22.794
9.0894 22.549
9.1045 22.753
9.1197 22.867
9.1349 22.855
9.1501 22.650
9.1652 22.992
9.1804 23.098
9.1956 23.031
9.2108 23.176
9.2259 22.910
9.2411 22.808
9.2563 23.149
9.2715 23.347
9.2866 22.862
9.3018 22.736
9.3170 22.973
9.3322 22.865
9.3473 23.224
9.3625 23.483
9.3777 23.089
9.3929 22.985
9.4080 23.021
9.4232 23.079
9.4384 23.149
9.4536 23.305
9.4687 23.111
9.4839 23.178
9.4991 23.266
9.5143 23.045
9.5294 23.210
9.5446 23.469
9.5598 23.282
9.5750 23.457
9.5901 23.237
9.6053 22.988
9.6205 23.020
9.6357 23.468
9.6508 23.677
9.6660 23.827
9.6812 23.710
9.6964 23.805
9.7115 24.070
9.7267 24.201
9.7419 24.320
9.7571 23.787
9.7722 23.684
9.7874 24.042
9.8026 24.059
9.8178 23.457
9.8329 23.351
9.8481 23.714
9.8633 23.678
9.8785 23.518
9.8936 23.309
9.9088 23.572
9.9240 23.541
9.9392 23.404
9.9543 23.372
9.9695 23.441
9.9847 23.661
9.9999 23.527
10.0150 23.549
10.0302 23.486
10.0454 23.297
10.0606 23.498
10.0757 23.452
10.0909 23.126
10.1061 23.205
10.1213 23.491
10.1364 23.431
10.1516 23.390
10.1668 23.157
10.1820 23.076
10.1971 23.506
10.2123 23.154
10.2275 22.919
10.2427 23.118
10.2578 23.220
10.2730 23.110
10.2882 22.689
10.3034 22.771
10.3185 23.093
10.3337 23.212
10.3489 23.121
10.3641 23.013
10.3792 22.845
10.3944 22.773
10.4096 22.886
10.4248 22.698
10.4399 23.043
10.4551 22.860
10.4703 22.767
10.4855 22.570
10.5006 22.878
10.5158 22.842
10.5310 22.433
10.5462 22.362
10.5613 22.901
10.5765 22.652
10.5917 22.767
10.6069 22.792
10.6220 23.074
10.6372 22.644
10.6524 22.556
10.6676 22.383
10.6827 22.005
10.6979 22.135
10.7131 22.821
10.7283 22.285
10.7434 22.198
10.7586 22.534
10.7738 22.103
10.7890 22.183
10.8041 22.557
10.8193 22.321
10.8345 22.379
10.8497 22.268
10.8648 22.269
10.8800 22.542
10.8952 22.473
10.9104 22.041
10.9255 22.183
10.9407 22.295
10.9559 22.063
10.9711 22.185
10.9862 22.363
11.0014 21.992
11.0166 22.253
11.0318 22.327
11.0469 22.047
11.0621 21.730
11.0773 21.454
11.0925 21.644
11.1076 22.105
11.1228 21.917
11.1380 21.919
11.1532 21.906
11.1683 22.185
11.1835 21.960
11.1987 21.580
11.2139 21.410
11.2290 21.739
11.2442 22.049
11.2594 21.902
11.2746 21.977
11.2897 21.827
11.3049 21.703
11.3201 21.752
11.3353 21.667
11.3504 21.475
11.3656 21.243
11.3808 21.038
11.3960 21.554
11.4111 21.645
11.4263 21.499
11.4415 21.735
11.4567 21.470
11.4718 21.457
11.4870 21.301
11.5022 21.017
11.5174 21.232
11.5325 21.402
11.5477 21.379
11.5629 20.963
11.5781 20.662
11.5932 20.898
11.6084 20.759
11.6236 20.530
11.6388 20.657
11.6539 20.657
11.6691 20.548
11.6843 21.025
11.6995 21.022
11.7146 20.866
11.7298 20.616
11.7450 20.467
11.7602 20.369
11.7753 20.572
11.7905 20.369
11.8057 20.385
11.8209 20.352
11.8360 19.996
11.8512 19.889
11.8664 19.702
11.8816 19.625
11.8967 19.569
11.9119 19.882
11.9271 19.480
11.9423 19.420
11.9574 19.566
11.9726 19.589
11.9878 19.508
12.0030 19.437
12.0181 19.301
12.0333 19.130
12.0485 18.849
12.0637 18.955
12.0788 18.963
12.0940 18.958
12.1092 18.843
12.1244 18.606
12.1395 18.536
12.1547 18.524
12.1699 18.519
12.1851 18.594
12.2002 18.319
12.2154 18.324
12.2306 17.918
12.2458 18.279
12.2609 17.898
12.2761 17.788
12.2913 17.632
12.3065 17.690
12.3216 17.702
12.3368 17.605
12.3520 17.612
12.3672 17.252
12.3823 17.149
12.3975 17.114
12.4127 16.962
12.4279 17.047
12.4430 17.210
12.4582 17.066
12.4734 16.857
12.4886 16.683
12.5037 16.688
12.5189 16.787
12.5341 16.723
12.5493 16.419
12.5644 16.431
12.5796 16.413
12.5948 16.463
12.6100 16.361
12.6251 16.007
12.6403 16.078
12.6555 16.166
12.6707 15.776
12.6858 15.903
12.7010 15.800
12.7162 15.689
12.7314 15.656
12.7465 15.316
12.7617 15.390
12.7769 15.419
12.7921 15.314
12.8072 15.339
12.8224 14.971
12.8376 14.899
12.8528 15.026
12.8679 15.031
12.8831 14.823
12.8983 14.692
12.9135 14.809
12.9286 14.672
12.9438 14.696
12.9590 14.695
12.9742 14.378
12.9893 14.421
13.0045 14.588
13.0197 14.448
13.0349 14.401
13.0500 14.092
13.0652 14.094
13.0804 14.255
13.0956 13.998
13.1107 13.769
13.1259 13.782
13.1411 13.953
13.1563 13.889
13.1714 13.865
13.1866 13.910
13.2018 13.762
13.2170 13.578
13.2321 13.511
13.2473 13.499
13.2625 13.536
13.2777 13.342
13.2928 13.393
13.3080 13.462
13.3232 13.251
13.3384 13.340
13.3535 13.240
13.3687 13.178
13.3839 13.218
13.3991 13.258
13.4142 13.182
13.4294 12.995
13.4446 12.891
13.4598 13.064
13.4749 12.917
13.4901 12.637
13.5053 12.840
13.5205 12.832
13.5356 12.566
13.5508 12.531
13.5660 12.636
13.5812 12.565
13.5963 12.240
13.6115 12.194
13.6267 12.269
13.6419 12.228
13.6570 12.258
13.6722 12.312
13.6874 12.413
13.7026 12.198
13.7177 11.945
13.7329 11.985
13.7481 12.342
13.7633 12.146
13.7784 11.885
13.7936 12.240
13.8088 12.390
13.8239 12.298
13.8391 12.239
13.8543 12.152
13.8695 12.112
13.8846 12.225
13.8998 12.389
13.9150 12.337
13.9302 12.398
13.9453 12.050
13.9605 11.997
13.9757 11.828
13.9909 11.961
14.0060 11.486
14.0212 11.455
14.0364 11.615
14.0516 11.405
14.0667 11.522
14.0819 11.572
14.0971 11.329
14.1123 11.482
14.1274 11.341
14.1426 11.157
14.1578 11.412
14.1730 11.393
14.1881 11.455
14.2033 11.535
14.2185 11.590
14.2337 11.634
14.2488 11.479
14.2640 11.588
14.2792 11.692
14.2944 11.417
14.3095 11.709
14.3247 11.779
14.3399 11.828
14.3551 12.086
14.3702 11.941
14.3854 12.075
14.4006 12.459
14.4158 12.700
14.4309 12.221
14.4461 12.079
14.4613 12.165
14.4765 12.416
14.4916 12.117
14.5068 11.751
14.5220 11.591
14.5372 11.506
14.5523 11.716
14.5675 11.692
14.5827 11.263
14.5979 11.270
14.6130 11.413
14.6282 11.106
14.6434 11.074
14.6586 11.187
14.6737 11.048
14.6889 10.693
14.7041 11.145
14.7193 11.129
14.7344 11.082
14.7496 11.006
14.7648 10.994
14.7800 10.806
14.7951 11.084
14.8103 10.765
14.8255 10.910
14.8407 10.556
14.8558 10.636
14.8710 10.780
14.8862 10.669
14.9014 11.060
14.9165 11.054
14.9317 10.999
14.9469 10.628
14.9621 10.744
14.9772 10.540
14.9924 10.039
15.0076 10.627
15.0228 10.697
15.0379 10.477
15.0531 10.528
15.0683 10.499
15.0835 10.258
15.0986 10.427
15.1138 10.685
15.1290 10.889
15.1442 10.702
15.1593 10.442
15.1745 10.567
15.1897 10.384
15.2049 10.382
15.2200 9.902
15.2352 10.563
15.2504 10.616
15.2656 10.309
15.2807 10.207
15.2959 10.123
15.3111 10.399
15.3263 10.448
15.3414 10.306
15.3566 9.876
15.3718 10.179
15.3870 10.233
15.4021 10.363
15.4173 10.481
15.4325 10.804
15.4477 10.363
15.4628 10.495
15.4780 10.300
15.4932 10.348
15.5084 10.578
15.5235 10.271
15.5387 10.261
15.5539 10.392
15.5691 10.454
15.5842 10.335
15.5994 10.177
15.6146 9.939
15.6298 10.394
15.6449 10.135
15.6601 10.054
15.6753 10.126
15.6905 10.019
15.7056 10.112
15.7208 9.978
15.7360 9.958
15.7512 10.173
15.7663 10.055
15.7815 9.830
15.7967 9.951
15.8119 10.242
15.8270 10.035
15.8422 9.995
15.8574 10.006
15.8726 9.834
15.8877 9.768
15.9029 9.616
15.9181 9.894
15.9333 9.707
15.9484 9.527
15.9636 9.666
15.9788 9.747
15.9940 9.736
16.0091 10.198
16.0243 9.950
16.0395 9.777
16.0547 9.722
16.0698 9.740
16.0850 9.791
16.1002 9.901
16.1154 9.572
16.1305 9.715
16.1457 9.725
16.1609 9.702
16.1761 9.666
16.1912 9.801
16.2064 9.745
16.2216 9.659
16.2368 10.021
16.2519 9.848
16.2671 10.167
16.2823 10.075
16.2975 9.978
16.3126 10.000
16.3278 9.956
16.3430 9.847
16.3582 10.033
16.3733 10.081
16.3885 10.163
16.4037 10.046
16.4189 10.221
16.4340 9.972
16.4492 10.032
16.4644 10.014
16.4796 9.859
16.4947 9.899
16.5099 9.822
16.5251 9.842
16.5403 9.741
16.5554 9.896
16.5706 9.744
16.5858 9.716
16.6010 9.925
16.6161 9.821
16.6313 9.808
16.6465 10.108
16.6617 10.006
16.6768 10.019
16.6920 10.065
16.7072 10.118
16.7224 10.152
16.7375 10.056
16.7527 10.015
16.7679 10.123
16.7831 9.962
16.7982 10.105
16.8134 10.065
16.8286 10.052
16.8438 9.987
16.8589 9.979
16.8741 9.948
16.8893 9.741
16.9045 9.818
16.9196 9.745
16.9348 9.723
16.9500 9.857
16.9652 9.829
16.9803 9.946
16.9955 9.996
17.0107 10.091
17.0259 10.106
17.0410 10.047
17.0562 10.022
17.0714 10.135
17.0866 10.465
17.1017 10.890
17.1169 11.001
17.1321 11.168
17.1473 11.668
17.1624 12.174
17.1776 12.680
17.1928 13.318
17.2080 14.239
17.2231 15.245
17.2383 16.499
17.2535 17.890
17.2687 18.710
17.2838 18.865
17.2990 18.150
17.3142 17.366
17.3294 16.586
17.3445 15.973
17.3597 16.080
17.3749 15.889
17.3901 15.269
17.4052 14.268
17.4204 13.242
17.4356 12.631
17.4508 11.927
17.4659 11.547
17.4811 11.563
17.4963 11.398
17.5115 11.125
17.5266 11.079
17.5418 10.943
17.5570 10.767
17.5722 10.892
17.5873 10.785
17.6025 10.723
17.6177 10.801
17.6329 10.577
17.6480 10.256
17.6632 10.174
17.6784 10.124
17.6936 10.190
17.7087 10.296
17.7239 10.298
17.7391 10.330
17.7543 10.445
17.7694 10.277
17.7846 10.261
17.7998 10.369
17.8150 10.349
17.8301 10.309
17.8453 10.549
17.8605 10.458
17.8757 10.372
17.8908 10.575
17.9060 10.553
17.9212 10.633
17.9364 10.425
17.9515 10.268
17.9667 10.465
17.9819 10.711
17.9971 10.612
18.0122 10.470
18.0274 10.508
18.0426 10.259
18.0578 10.003
18.0729 10.038
18.0881 10.010
18.1033 10.048
18.1185 10.100
18.1336 10.114
18.1488 10.021
18.1640 9.934
18.1792 10.165
18.1943 10.225
18.2095 10.033
18.2247 10.052
18.2399 9.886
18.2550 9.767
18.2702 10.018
18.2854 9.935
18.3006 9.630
18.3157 9.790
18.3309 9.875
18.3461 9.921
18.3613 9.903
18.3764 9.849
18.3916 9.938
18.4068 9.764
18.4220 9.696
18.4371 9.812
18.4523 9.717
18.4675 9.681
18.4827 9.936
18.4978 9.913
18.5130 10.017
18.5282 10.065
18.5434 9.701
18.5585 9.680
18.5737 9.716
18.5889 9.669
18.6041 9.696
18.6192 9.948
18.6344 9.848
18.6496 9.821
18.6648 9.964
18.6799 9.694
18.6951 9.762
18.7103 9.772
18.7255 9.704
18.7406 9.671
18.7558 9.755
18.7710 9.723
18.7862 9.796
18.8013 9.651
18.8165 9.539
18.8317 9.815
18.8469 10.089
18.8620 10.114
18.8772 10.217
18.8924 9.944
18.9076 9.526
18.9227 9.853
18.9379 9.802
18.9531 9.889
18.9683 10.133
18.9834 10.112
18.9986 10.168
19.0138 10.185
19.0290 10.162
19.0441 10.220
19.0593 10.331
19.0745 10.596
19.0897 10.676
19.1048 10.567
19.1200 10.324
19.1352 10.353
19.1504 10.575
19.1655 10.896
19.1807 10.757
19.1959 10.640
19.2111 10.603
19.2262 10.618
19.2414 10.673
19.2566 10.989
19.2718 10.918
19.2869 10.695
19.3021 10.812
19.3173 10.828
19.3325 10.813
19.3476 10.966
19.3628 10.994
19.3780 11.157
19.3932 11.243
19.4083 11.332
19.4235 11.359
19.4387 11.472
19.4539 11.390
19.4690 11.106
19.4842 11.403
19.4994 11.499
19.5146 11.266
19.5297 11.344
19.5449 11.471
19.5601 11.644
19.5753 11.597
19.5904 11.485
19.6056 11.566
19.6208 11.573
19.6360 11.518
19.6511 11.483
19.6663 11.660
19.6815 11.632
19.6967 11.550
19.7118 11.871
19.7270 11.869
19.7422 11.696
19.7574 11.828
19.7725 12.083
19.7877 12.141
19.8029 12.002
19.8180 12.042
19.8332 12.286
19.8484 12.356
19.8636 12.463
19.8787 12.598
19.8939 12.845
19.9091 13.221
19.9243 13.469
19.9394 13.522
19.9546 13.839
19.9698 14.324
19.9850 14.633
20.0001 14.776
20.0153 14.449
20.0305 13.958
20.0457 13.679
20.0608 13.558
20.0760 13.536
20.0912 13.591
20.1064 13.399
20.1215 13.352
20.1367 13.110
20.1519 12.980
20.1671 13.028
20.1822 12.765
20.1974 12.716
20.2126 13.000
20.2278 12.841
20.2429 12.369
20.2581 12.271
20.2733 12.176
20.2885 11.884
20.3036 11.872
20.3188 11.763
20.3340 11.531
20.3492 11.305
20.3643 11.441
20.3795 11.582
20.3947 11.061
20.4099 10.804
20.4250 10.611
20.4402 10.662
20.4554 10.982
20.4706 10.953
20.4857 11.096
20.5009 10.710
20.5161 10.437
20.5313 10.450
20.5464 10.545
20.5616 10.707
20.5768 10.450
20.5920 10.465
20.6071 10.598
20.6223 10.626
20.6375 10.550
20.6527 10.666
20.6678 10.793
20.6830 10.533
20.6982 10.366
20.7134 10.749
20.7285 10.538
20.7437 10.687
20.7589 10.490
20.7741 10.195
20.7892 10.139
20.8044 10.294
20.8196 10.373
20.8348 10.656
20.8499 10.643
20.8651 10.541
20.8803 10.167
20.8955 10.302
20.9106 10.337
20.9258 10.157
20.9410 10.623
20.9562 10.277
20.9713 10.041
20.9865 9.887
21.0017 10.054
21.0169 9.884
21.0320 10.108
21.0472 9.925
21.0624 9.659
21.0776 9.880
21.0927 10.113
21.1079 9.957
21.1231 10.036
21.1383 10.117
21.1534 9.897
21.1686 9.546
21.1838 9.953
21.1990 9.928
21.2141 9.770
21.2293 10.112
21.2445 10.041
21.2597 9.838
21.2748 9.615
21.2900 9.510
21.3052 9.628
21.3204 9.396
21.3355 9.686
21.3507 9.721
21.3659 9.497
21.3811 9.694
21.3962 9.841
21.4114 9.584
21.4266 9.348
21.4418 9.422
21.4569 9.370
21.4721 9.590
21.4873 9.420
21.5025 9.465
21.5176 9.260
21.5328 9.365
21.5480 9.221
21.5632 9.318
21.5783 9.380
21.5935 9.045
21.6087 9.334
21.6239 9.215
21.6390 9.552
21.6542 9.236
21.6694 9.279
21.6846 8.946
21.6997 9.004
21.7149 9.127
21.7301 9.030
21.7453 8.806
21.7604 9.006
21.7756 9.419
21.7908 9.148
21.8060 8.954
21.8211 9.232
21.8363 9.023
21.8515 9.054
21.8667 9.111
21.8818 9.230
21.8970 9.045
21.9122 8.963
21.9274 8.884
21.9425 8.902
21.9577 8.966
21.9729 8.829
21.9881 8.972
22.0032 9.020
22.0184 8.981
22.0336 8.850
22.0488 8.815
22.0639 8.718
22.0791 8.816
22.0943 8.978
22.1095 8.856
22.1246 8.842
22.1398 8.790
22.1550 8.714
22.1702 8.520
22.1853 8.561
22.2005 8.658
22.2157 8.601
22.2309 8.456
22.2460 8.583
22.2612 8.553
22.2764 8.682
22.2916 8.666
22.3067 8.505
22.3219 8.610
22.3371 8.689
22.3523 8.763
22.3674 8.721
22.3826 8.492
22.3978 8.434
22.4130 8.516
22.4281 8.622
22.4433 8.504
22.4585 8.721
22.4737 8.702
22.4888 8.831
22.5040 8.662
22.5192 8.577
22.5344 8.401
22.5495 8.750
22.5647 8.410
22.5799 8.639
22.5951 8.619
22.6102 8.611
22.6254 8.341
22.6406 8.617
22.6558 8.507
22.6709 8.473
22.6861 8.547
22.7013 8.554
22.7165 7.789
22.7316 6.551
