'Id: "" Comment: "" Operator: "Lab Manager" Anode: "Mo" Scantype: "Still (Eiger2R_500K (1D mode))" TimePerStep: "300" X: "11.8" Y: "9.4" Z: "11.284" 
7.2532 18.470
7.2684 18.920
7.2836 18.835
7.2987 18.888
7.3139 18.937
7.3291 19.218
7.3443 19.041
7.3594 19.293
7.3746 19.144
7.3898 19.155
7.4050 19.791
7.4201 19.534
7.4353 19.267
7.4505 19.600
7.4657 19.157
7.4808 19.773
7.4960 19.981
7.5112 19.827
7.5264 19.515
7.5415 19.634
7.5567 19.843
7.5719 19.878
7.5871 19.922
7.6022 19.683
7.6174 19.627
7.6326 20.056
7.6478 20.092
7.6629 20.261
7.6781 20.195
7.6933 20.051
7.7085 20.299
7.7236 20.557
7.7388 20.686
7.7540 20.816
7.7692 20.725
7.7843 20.510
7.7995 20.315
7.8147 20.467
7.8299 20.561
7.8450 20.410
7.8602 20.612
7.8754 20.720
7.8905 20.709
7.9057 21.043
7.9209 21.234
7.9361 20.878
7.9512 20.979
7.9664 21.321
7.9816 20.964
7.9968 21.099
8.0119 21.588
8.0271 21.645
8.0423 21.077
8.0575 20.968
8.0726 21.336
8.0878 21.576
8.1030 21.368
8.1182 21.488
8.1333 21.756
8.1485 22.223
8.1637 22.080
8.1789 21.987
8.1940 21.643
8.2092 21.208
8.2244 21.189
8.2396 21.324
8.2547 21.418
8.2699 21.696
8.2851 21.816
8.3003 21.769
8.3154 21.742
8.3306 21.494
8.3458 21.794
8.3610 21.863
8.3761 22.267
8.3913 21.371
8.4065 21.812
8.4217 22.376
8.4368 22.435
8.4520 21.885
8.4672 22.475
8.4824 21.600
8.4975 22.091
8.5127 22.058
8.5279 22.186
8.5431 22.287
8.5582 22.433
8.5734 22.290
8.5886 22.428
8.6038 22.578
8.6189 22.444
8.6341 22.014
8.6493 22.566
8.6645 21.885
8.6796 22.296
8.6948 22.443
8.7100 22.371
8.7252 22.990
8.7403 22.415
8.7555 22.289
8.7707 22.200
8.7859 22.608
8.8010 22.802
8.8162 22.451
8.8314 22.465
8.8466 22.592
8.8617 22.814
8.8769 22.451
8.8921 22.889
8.9073 23.026
8.9224 22.467
8.9376 22.721
8.9528 23.129
8.9680 23.296
8.9831 23.037
8.9983 22.888
9.0135 23.025
9.0287 22.992
9.0438 22.960
9.0590 22.676
9.0742 23.042
9.0894 22.490
9.1045 22.521
9.1197 22.822
9.1349 23.348
9.1501 23.222
9.1652 23.096
9.1804 23.000
9.1956 22.901
9.2108 22.718
9.2259 22.979
9.2411 22.546
9.2563 22.711
9.2715 23.054
9.2866 23.308
9.3018 23.278
9.3170 23.074
9.3322 23.372
9.3473 23.283
9.3625 23.310
9.3777 23.261
9.3929 23.146
9.4080 22.892
9.4232 23.157
9.4384 23.262
9.4536 22.890
9.4687 22.886
9.4839 22.970
9.4991 23.403
9.5143 23.591
9.5294 23.547
9.5446 23.271
9.5598 22.955
9.5750 23.076
9.5901 23.290
9.6053 23.544
9.6205 23.337
9.6357 23.279
9.6508 23.479
9.6660 23.649
9.6812 23.799
9.6964 23.736
9.7115 23.925
9.7267 24.325
9.7419 24.403
9.7571 24.195
9.7722 24.021
9.7874 24.075
9.8026 23.951
9.8178 23.243
9.8329 23.271
9.8481 23.424
9.8633 23.261
9.8785 23.388
9.8936 23.532
9.9088 23.358
9.9240 23.182
9.9392 23.454
9.9543 23.489
9.9695 23.293
9.9847 23.503
9.9999 23.802
10.0150 23.845
10.0302 23.643
10.0454 23.342
10.0606 23.228
10.0757 23.154
10.0909 23.300
10.1061 23.412
10.1213 23.636
10.1364 23.059
10.1516 22.923
10.1668 23.186
10.1820 23.001
10.1971 22.872
10.2123 23.149
10.2275 23.583
10.2427 23.519
10.2578 23.072
10.2730 23.114
10.2882 22.975
10.3034 23.061
10.3185 23.121
10.3337 23.187
10.3489 22.904
10.3641 22.966
10.3792 22.896
10.3944 22.905
10.4096 23.004
10.4248 22.930
10.4399 23.202
10.4551 22.837
10.4703 23.091
10.4855 23.237
10.5006 22.932
10.5158 22.863
10.5310 22.542
10.5462 22.546
10.5613 23.089
10.5765 23.306
10.5917 22.921
10.6069 22.492
10.6220 22.595
10.6372 22.637
10.6524 22.494
10.6676 22.688
10.6827 22.573
10.6979 22.597
10.7131 22.636
10.7283 22.236
10.7434 22.400
10.7586 22.184
10.7738 22.472
10.7890 22.430
10.8041 22.312
10.8193 22.601
10.8345 22.600
10.8497 22.049
10.8648 22.289
10.8800 22.310
10.8952 22.255
10.9104 22.238
10.9255 22.196
10.9407 22.319
10.9559 22.378
10.9711 22.021
10.9862 22.166
11.0014 21.941
11.0166 22.444
11.0318 22.433
11.0469 21.708
11.0621 21.721
11.0773 21.940
11.0925 22.179
11.1076 21.947
11.1228 21.797
11.1380 21.886
11.1532 22.401
11.1683 22.117
11.1835 21.797
11.1987 21.797
11.2139 21.556
11.2290 21.720
11.2442 21.626
11.2594 21.986
11.2746 21.887
11.2897 21.819
11.3049 21.919
11.3201 21.757
11.3353 21.597
11.3504 21.416
11.3656 21.267
11.3808 21.436
11.3960 21.364
11.4111 21.032
11.4263 21.188
11.4415 21.264
11.4567 21.442
11.4718 21.164
11.4870 21.210
11.5022 20.961
11.5174 21.154
11.5325 21.052
11.5477 21.380
11.5629 21.343
11.5781 21.228
11.5932 21.081
11.6084 20.820
11.6236 21.242
11.6388 20.683
11.6539 20.662
11.6691 20.802
11.6843 20.763
11.6995 20.939
11.7146 20.887
11.7298 20.677
11.7450 20.270
11.7602 20.070
11.7753 20.037
11.7905 20.174
11.8057 20.363
11.8209 20.059
11.8360 20.098
11.8512 19.783
11.8664 19.894
11.8816 19.900
11.8967 19.887
11.9119 20.057
11.9271 19.735
11.9423 19.481
11.9574 19.593
11.9726 19.500
11.9878 19.508
12.0030 19.276
12.0181 19.329
12.0333 19.321
12.0485 19.456
12.0637 18.941
12.0788 18.833
12.0940 18.827
12.1092 18.681
12.1244 18.655
12.1395 18.690
12.1547 18.524
12.1699 18.332
12.1851 18.524
12.2002 18.493
12.2154 18.164
12.2306 18.168
12.2458 17.977
12.2609 17.984
12.2761 17.855
12.2913 17.911
12.3065 17.962
12.3216 17.650
12.3368 17.596
12.3520 17.880
12.3672 17.485
12.3823 17.302
12.3975 17.142
12.4127 17.427
12.4279 17.323
12.4430 16.978
12.4582 17.015
12.4734 16.715
12.4886 16.923
12.5037 17.012
12.5189 16.841
12.5341 16.833
12.5493 16.433
12.5644 16.223
12.5796 16.233
12.5948 16.288
12.6100 16.375
12.6251 16.314
12.6403 15.929
12.6555 15.865
12.6707 15.824
12.6858 15.802
12.7010 15.913
12.7162 15.891
12.7314 15.639
12.7465 15.608
12.7617 15.570
12.7769 15.615
12.7921 15.433
12.8072 15.080
12.8224 15.237
12.8376 15.168
12.8528 15.084
12.8679 14.952
12.8831 14.619
12.8983 14.707
12.9135 14.632
12.9286 14.544
12.9438 14.635
12.9590 14.614
12.9742 14.504
12.9893 14.544
13.0045 14.522
13.0197 14.257
13.0349 14.221
13.0500 14.348
13.0652 14.227
13.0804 14.086
13.0956 14.066
13.1107 13.889
13.1259 13.888
13.1411 14.111
13.1563 14.135
13.1714 14.009
13.1866 13.997
13.2018 13.967
13.2170 13.727
13.2321 13.561
13.2473 13.609
13.2625 13.422
13.2777 13.311
13.2928 13.414
13.3080 13.193
13.3232 12.897
13.3384 12.926
13.3535 13.076
13.3687 13.097
13.3839 13.221
13.3991 13.067
13.4142 13.037
13.4294 13.133
13.4446 13.075
13.4598 13.071
13.4749 12.865
13.4901 12.536
13.5053 12.545
13.5205 12.871
13.5356 12.911
13.5508 12.467
13.5660 12.434
13.5812 12.675
13.5963 12.650
13.6115 12.424
13.6267 12.574
13.6419 12.449
13.6570 12.273
13.6722 11.991
13.6874 12.046
13.7026 12.290
13.7177 12.271
13.7329 12.408
13.7481 12.345
13.7633 12.282
13.7784 12.150
13.7936 12.068
13.8088 12.312
13.8239 12.579
13.8391 12.543
13.8543 12.248
13.8695 12.452
13.8846 12.388
13.8998 12.182
13.9150 12.101
13.9302 12.137
13.9453 11.917
13.9605 11.668
13.9757 11.981
13.9909 11.955
14.0060 11.727
14.0212 11.886
14.0364 11.507
14.0516 11.824
14.0667 11.865
14.0819 11.547
14.0971 11.504
14.1123 11.702
14.1274 11.635
14.1426 11.691
14.1578 11.381
14.1730 11.400
14.1881 11.640
14.2033 11.545
14.2185 11.530
14.2337 11.530
14.2488 11.628
14.2640 11.534
14.2792 11.688
14.2944 11.443
14.3095 11.715
14.3247 12.405
14.3399 12.121
14.3551 12.407
14.3702 12.192
14.3854 12.408
14.4006 12.199
14.4158 12.542
14.4309 12.646
14.4461 12.600
14.4613 12.380
14.4765 12.203
14.4916 11.968
14.5068 12.087
14.5220 11.653
14.5372 11.811
14.5523 11.285
14.5675 11.527
14.5827 11.330
14.5979 11.160
14.6130 11.312
14.6282 11.293
14.6434 11.103
14.6586 11.160
14.6737 11.078
14.6889 11.249
14.7041 11.294
14.7193 11.243
14.7344 10.861
14.7496 11.066
14.7648 11.040
14.7800 11.018
14.7951 11.088
14.8103 10.724
14.8255 10.969
14.8407 10.687
14.8558 10.935
14.8710 10.722
14.8862 10.692
14.9014 10.960
14.9165 11.076
14.9317 11.014
14.9469 10.785
14.9621 10.877
14.9772 10.190
14.9924 10.664
15.0076 10.622
15.0228 10.230
15.0379 10.496
15.0531 10.522
15.0683 10.542
15.0835 10.327
15.0986 10.589
15.1138 10.563
15.1290 10.152
15.1442 10.668
15.1593 10.623
15.1745 10.359
15.1897 10.339
15.2049 10.447
15.2200 10.476
15.2352 10.435
15.2504 10.369
15.2656 10.468
15.2807 10.583
15.2959 10.855
15.3111 10.197
15.3263 10.503
15.3414 10.468
15.3566 10.286
15.3718 10.261
15.3870 10.157
15.4021 10.414
15.4173 10.456
15.4325 10.547
15.4477 10.308
15.4628 10.360
15.4780 10.217
15.4932 10.409
15.5084 10.114
15.5235 10.213
15.5387 10.262
15.5539 10.288
15.5691 10.251
15.5842 10.229
15.5994 10.512
15.6146 10.024
15.6298 10.047
15.6449 10.407
15.6601 10.182
15.6753 9.964
15.6905 10.323
15.7056 9.730
15.7208 9.940
15.7360 10.158
15.7512 10.074
15.7663 9.771
15.7815 10.130
15.7967 10.222
15.8119 9.895
15.8270 10.011
15.8422 10.184
15.8574 9.903
15.8726 9.741
15.8877 9.661
15.9029 9.888
15.9181 9.872
15.9333 9.685
15.9484 9.603
15.9636 9.617
15.9788 9.874
15.9940 9.782
16.0091 9.783
16.0243 9.850
16.0395 9.768
16.0547 9.770
16.0698 9.860
16.0850 9.930
16.1002 9.727
16.1154 9.854
16.1305 9.738
16.1457 9.725
16.1609 9.945
16.1761 9.930
16.1912 9.687
16.2064 9.776
16.2216 9.860
16.2368 9.780
16.2519 9.831
16.2671 9.840
16.2823 10.026
16.2975 10.010
16.3126 9.961
16.3278 9.984
16.3430 10.029
16.3582 10.294
16.3733 10.084
16.3885 10.176
16.4037 10.195
16.4189 10.346
16.4340 10.005
16.4492 9.907
16.4644 9.848
16.4796 9.885
16.4947 9.893
16.5099 9.632
16.5251 9.726
16.5403 9.787
16.5554 9.891
16.5706 9.971
16.5858 9.794
16.6010 9.898
16.6161 9.957
16.6313 9.635
16.6465 9.623
16.6617 9.952
16.6768 9.940
16.6920 9.732
16.7072 9.988
16.7224 10.128
16.7375 10.210
16.7527 10.053
16.7679 10.077
16.7831 10.109
16.7982 10.114
16.8134 10.163
16.8286 10.108
16.8438 10.017
16.8589 9.952
16.8741 10.152
16.8893 10.105
16.9045 9.651
16.9196 9.786
16.9348 9.918
16.9500 9.786
16.9652 9.690
16.9803 9.735
16.9955 9.732
17.0107 9.883
17.0259 10.072
17.0410 10.347
17.0562 10.585
17.0714 10.478
17.0866 10.503
17.1017 10.722
17.1169 10.923
17.1321 11.287
17.1473 11.582
17.1624 11.910
17.1776 12.550
17.1928 13.285
17.2080 14.303
17.2231 15.357
17.2383 16.608
17.2535 17.963
17.2687 18.949
17.2838 19.162
17.2990 18.241
17.3142 17.213
17.3294 16.495
17.3445 16.158
17.3597 16.044
17.3749 15.859
17.3901 15.497
17.4052 14.379
17.4204 13.005
17.4356 12.202
17.4508 11.800
17.4659 11.704
17.4811 11.521
17.4963 11.197
17.5115 11.132
17.5266 10.943
17.5418 10.700
17.5570 10.487
17.5722 10.465
17.5873 10.696
17.6025 10.860
17.6177 10.728
17.6329 10.507
17.6480 10.526
17.6632 10.477
17.6784 10.368
17.6936 10.409
17.7087 10.355
17.7239 10.097
17.7391 10.121
17.7543 10.394
17.7694 10.460
17.7846 10.546
17.7998 10.535
17.8150 10.281
17.8301 10.037
17.8453 10.093
17.8605 10.456
17.8757 10.354
17.8908 10.187
17.9060 10.530
17.9212 10.649
17.9364 10.410
17.9515 10.390
17.9667 10.421
17.9819 10.502
17.9971 10.489
18.0122 10.285
18.0274 10.316
18.0426 10.367
18.0578 10.129
18.0729 10.008
18.0881 10.054
18.1033 9.966
18.1185 9.858
18.1336 9.901
18.1488 10.025
18.1640 9.940
18.1792 9.926
18.1943 9.956
18.2095 9.985
18.2247 10.056
18.2399 9.893
18.2550 9.860
18.2702 9.913
18.2854 9.893
18.3006 9.980
18.3157 9.832
18.3309 9.964
18.3461 10.060
18.3613 9.892
18.3764 9.955
18.3916 10.013
18.4068 9.891
18.4220 9.744
18.4371 9.816
18.4523 10.021
18.4675 10.106
18.4827 9.828
18.4978 9.571
18.5130 9.824
18.5282 9.696
18.5434 9.849
18.5585 10.188
18.5737 9.875
18.5889 9.777
18.6041 9.791
18.6192 9.928
18.6344 9.818
18.6496 9.629
18.6648 9.638
18.6799 9.572
18.6951 9.669
18.7103 9.774
18.7255 9.803
18.7406 9.696
18.7558 9.560
18.7710 9.751
18.7862 9.900
18.8013 9.763
18.8165 9.627
18.8317 9.738
18.8469 9.681
18.8620 9.873
18.8772 9.865
18.8924 9.857
18.9076 10.021
18.9227 9.955
18.9379 9.919
18.9531 9.816
18.9683 9.810
18.9834 9.899
18.9986 10.115
19.0138 10.311
19.0290 10.236
19.0441 10.168
19.0593 10.165
19.0745 10.256
19.0897 10.323
19.1048 10.327
19.1200 10.328
19.1352 10.401
19.1504 10.416
19.1655 10.490
19.1807 10.620
19.1959 10.754
19.2111 10.777
19.2262 10.663
19.2414 10.562
19.2566 10.733
19.2718 10.912
19.2869 11.209
19.3021 11.087
19.3173 10.798
19.3325 10.857
19.3476 11.085
19.3628 11.044
19.3780 11.139
19.3932 11.314
19.4083 11.141
19.4235 11.129
19.4387 11.221
19.4539 11.313
19.4690 11.163
19.4842 11.072
19.4994 11.357
19.5146 11.429
19.5297 11.425
19.5449 11.631
19.5601 11.648
19.5753 11.549
19.5904 11.595
19.6056 11.563
19.6208 11.700
19.6360 11.661
19.6511 11.562
19.6663 11.678
19.6815 11.862
19.6967 11.856
19.7118 11.857
19.7270 11.911
19.7422 11.895
19.7574 11.757
19.7725 11.767
19.7877 11.985
19.8029 11.984
19.8180 11.956
19.8332 11.930
19.8484 12.188
19.8636 12.562
19.8787 12.693
19.8939 12.838
19.9091 13.101
19.9243 13.294
19.9394 13.813
19.9546 14.283
19.9698 14.436
19.9850 14.615
20.0001 14.519
20.0153 14.164
20.0305 14.031
20.0457 14.001
20.0608 13.844
20.0760 13.869
20.0912 13.651
20.1064 13.385
20.1215 13.315
20.1367 13.286
20.1519 13.287
20.1671 13.034
20.1822 12.743
20.1974 12.665
20.2126 12.568
20.2278 12.871
20.2429 12.666
20.2581 12.057
20.2733 11.826
20.2885 11.642
20.3036 11.702
20.3188 11.652
20.3340 11.854
20.3492 11.607
20.3643 11.325
20.3795 11.068
20.3947 11.111
20.4099 11.039
20.4250 10.997
20.4402 11.027
20.4554 10.756
20.4706 10.922
20.4857 11.070
20.5009 10.816
20.5161 10.573
20.5313 10.722
20.5464 10.532
20.5616 10.697
20.5768 10.849
20.5920 10.794
20.6071 10.644
20.6223 10.446
20.6375 10.608
20.6527 10.531
20.6678 10.545
20.6830 10.682
20.6982 10.320
20.7134 10.379
20.7285 10.552
20.7437 10.783
20.7589 10.511
20.7741 10.356
20.7892 10.391
20.8044 10.422
20.8196 10.308
20.8348 10.418
20.8499 10.685
20.8651 10.284
20.8803 10.347
20.8955 10.132
20.9106 10.153
20.9258 10.364
20.9410 10.230
20.9562 10.267
20.9713 9.967
20.9865 9.941
21.0017 9.987
21.0169 10.137
21.0320 9.937
21.0472 10.072
21.0624 10.338
21.0776 10.149
21.0927 10.244
21.1079 10.086
21.1231 9.759
21.1383 9.877
21.1534 10.032
21.1686 9.771
21.1838 10.114
21.1990 9.768
21.2141 9.800
21.2293 9.719
21.2445 9.806
21.2597 9.684
21.2748 9.643
21.2900 9.841
21.3052 9.633
21.3204 9.454
21.3355 9.417
21.3507 9.546
21.3659 9.802
21.3811 9.627
21.3962 9.611
21.4114 9.293
21.4266 9.580
21.4418 9.117
21.4569 9.473
21.4721 9.620
21.4873 9.720
21.5025 9.441
21.5176 9.427
21.5328 9.430
21.5480 9.247
21.5632 9.340
21.5783 9.363
21.5935 9.231
21.6087 9.234
21.6239 9.391
21.6390 9.228
21.6542 9.267
21.6694 9.240
21.6846 9.265
21.6997 9.261
21.7149 9.336
21.7301 9.493
21.7453 9.210
21.7604 9.044
21.7756 9.012
21.7908 9.098
21.8060 8.920
21.8211 9.001
21.8363 8.987
21.8515 9.024
21.8667 9.138
21.8818 8.969
21.8970 8.729
21.9122 8.812
21.9274 9.121
21.9425 9.064
21.9577 8.953
21.9729 9.125
21.9881 8.986
22.0032 8.985
22.0184 8.971
22.0336 8.775
22.0488 8.668
22.0639 8.821
22.0791 8.929
22.0943 9.035
22.1095 8.862
22.1246 8.609
22.1398 8.848
22.1550 8.828
22.1702 8.735
22.1853 8.761
22.2005 8.840
22.2157 8.654
22.2309 8.795
22.2460 8.786
22.2612 8.689
22.2764 8.481
22.2916 8.407
22.3067 8.356
22.3219 8.550
22.3371 8.475
22.3523 8.399
22.3674 8.401
22.3826 8.491
22.3978 8.494
22.4130 8.566
22.4281 8.472
22.4433 8.552
22.4585 8.549
22.4737 8.673
22.4888 8.722
22.5040 8.461
22.5192 8.336
22.5344 8.377
22.5495 8.418
22.5647 8.476
22.5799 8.451
22.5951 8.540
22.6102 8.377
22.6254 8.799
22.6406 8.373
22.6558 8.438
22.6709 8.444
22.6861 8.343
22.7013 8.408
22.7165 8.425
22.7316 6.501
