'Id: "" Comment: "" Operator: "Lab Manager" Anode: "Mo" Scantype: "Still (Eiger2R_500K (1D mode))" TimePerStep: "300" X: "11.8" Y: "9.4" Z: "11.284" 
7.2532 18.910
7.2684 18.725
7.2836 18.831
7.2987 19.113
7.3139 18.421
7.3291 18.779
7.3443 18.721
7.3594 19.239
7.3746 19.170
7.3898 19.159
7.4050 19.115
7.4201 19.364
7.4353 19.266
7.4505 19.450
7.4657 19.529
7.4808 19.977
7.4960 19.989
7.5112 20.095
7.5264 20.020
7.5415 19.640
7.5567 19.777
7.5719 19.573
7.5871 19.920
7.6022 20.387
7.6174 19.977
7.6326 19.714
7.6478 19.942
7.6629 20.181
7.6781 20.188
7.6933 20.703
7.7085 20.754
7.7236 20.535
7.7388 20.568
7.7540 20.228
7.7692 20.441
7.7843 20.553
7.7995 20.421
7.8147 20.310
7.8299 20.295
7.8450 20.401
7.8602 20.640
7.8754 20.965
7.8905 20.888
7.9057 20.630
7.9209 20.440
7.9361 20.704
7.9512 20.718
7.9664 20.779
7.9816 20.947
7.9968 21.274
8.0119 21.050
8.0271 21.076
8.0423 20.956
8.0575 20.951
8.0726 21.057
8.0878 21.361
8.1030 21.252
8.1182 21.266
8.1333 21.080
8.1485 21.182
8.1637 21.146
8.1789 21.243
8.1940 21.101
8.2092 21.556
8.2244 21.141
8.2396 21.268
8.2547 21.607
8.2699 21.371
8.2851 21.586
8.3003 21.735
8.3154 21.578
8.3306 21.817
8.3458 21.739
8.3610 21.597
8.3761 21.805
8.3913 21.863
8.4065 21.975
8.4217 21.534
8.4368 21.799
8.4520 21.910
8.4672 21.941
8.4824 21.847
8.4975 21.981
8.5127 22.071
8.5279 21.892
8.5431 21.745
8.5582 22.294
8.5734 21.805
8.5886 22.183
8.6038 21.925
8.6189 22.276
8.6341 22.198
8.6493 22.097
8.6645 22.340
8.6796 22.373
8.6948 22.314
8.7100 22.258
8.7252 22.293
8.7403 22.528
8.7555 22.108
8.7707 22.793
8.7859 22.762
8.8010 22.408
8.8162 22.619
8.8314 22.367
8.8466 22.507
8.8617 22.530
8.8769 22.496
8.8921 22.485
8.9073 22.397
8.9224 22.513
8.9376 22.689
8.9528 22.836
8.9680 22.300
8.9831 22.095
8.9983 22.803
9.0135 22.596
9.0287 22.867
9.0438 22.829
9.0590 22.570
9.0742 22.311
9.0894 22.805
9.1045 23.109
9.1197 22.763
9.1349 22.660
9.1501 22.753
9.1652 22.800
9.1804 23.120
9.1956 22.639
9.2108 22.568
9.2259 23.052
9.2411 23.095
9.2563 22.923
9.2715 22.630
9.2866 22.640
9.3018 23.147
9.3170 23.040
9.3322 22.879
9.3473 22.893
9.3625 22.528
9.3777 22.871
9.3929 23.133
9.4080 23.262
9.4232 22.830
9.4384 22.621
9.4536 22.930
9.4687 23.219
9.4839 23.164
9.4991 22.885
9.5143 23.083
9.5294 23.237
9.5446 23.247
9.5598 23.390
9.5750 23.044
9.5901 23.043
9.6053 23.383
9.6205 23.420
9.6357 23.495
9.6508 23.722
9.6660 23.627
9.6812 23.847
9.6964 24.015
9.7115 24.106
9.7267 24.217
9.7419 24.178
9.7571 23.878
9.7722 23.972
9.7874 24.255
9.8026 24.010
9.8178 23.569
9.8329 23.484
9.8481 23.430
9.8633 23.267
9.8785 23.371
9.8936 23.457
9.9088 23.626
9.9240 23.461
9.9392 23.139
9.9543 23.207
9.9695 23.408
9.9847 23.314
9.9999 23.195
10.0150 23.248
10.0302 23.347
10.0454 23.394
10.0606 23.342
10.0757 23.270
10.0909 23.413
10.1061 23.399
10.1213 23.155
10.1364 23.143
10.1516 23.318
10.1668 23.593
10.1820 23.326
10.1971 22.868
10.2123 22.801
10.2275 22.920
10.2427 22.997
10.2578 23.027
10.2730 23.011
10.2882 22.748
10.3034 22.812
10.3185 22.789
10.3337 22.713
10.3489 22.889
10.3641 22.684
10.3792 22.644
10.3944 22.519
10.4096 22.655
10.4248 22.952
10.4399 22.688
10.4551 22.687
10.4703 22.919
10.4855 22.597
10.5006 22.162
10.5158 22.104
10.5310 22.587
10.5462 22.565
10.5613 22.409
10.5765 22.265
10.5917 22.074
10.6069 22.314
10.6220 22.175
10.6372 22.038
10.6524 22.578
10.6676 22.603
10.6827 22.275
10.6979 22.734
10.7131 22.534
10.7283 22.509
10.7434 22.335
10.7586 22.283
10.7738 22.342
10.7890 22.374
10.8041 22.652
10.8193 22.434
10.8345 22.134
10.8497 22.201
10.8648 21.677
10.8800 22.001
10.8952 22.469
10.9104 22.206
10.9255 21.925
10.9407 22.146
10.9559 22.282
10.9711 21.881
10.9862 22.102
11.0014 22.233
11.0166 22.383
11.0318 22.438
11.0469 21.770
11.0621 21.616
11.0773 21.847
11.0925 21.783
11.1076 21.701
11.1228 21.426
11.1380 21.408
11.1532 21.539
11.1683 21.470
11.1835 22.141
11.1987 21.957
11.2139 21.812
11.2290 21.956
11.2442 21.721
11.2594 21.221
11.2746 21.338
11.2897 21.753
11.3049 21.520
11.3201 21.553
11.3353 21.475
11.3504 21.143
11.3656 21.392
11.3808 21.535
11.3960 21.710
11.4111 21.257
11.4263 21.329
11.4415 21.189
11.4567 21.254
11.4718 21.399
11.4870 21.471
11.5022 21.125
11.5174 21.203
11.5325 21.003
11.5477 21.332
11.5629 21.068
11.5781 20.923
11.5932 20.787
11.6084 20.550
11.6236 20.820
11.6388 21.034
11.6539 20.517
11.6691 20.626
11.6843 20.806
11.6995 20.825
11.7146 20.627
11.7298 20.597
11.7450 20.239
11.7602 19.985
11.7753 19.688
11.7905 19.985
11.8057 19.706
11.8209 19.934
11.8360 20.158
11.8512 19.654
11.8664 19.609
11.8816 19.931
11.8967 19.963
11.9119 19.800
11.9271 19.370
11.9423 19.606
11.9574 20.071
11.9726 19.484
11.9878 19.063
12.0030 18.883
12.0181 19.068
12.0333 19.419
12.0485 19.191
12.0637 18.834
12.0788 18.882
12.0940 19.032
12.1092 18.711
12.1244 18.308
12.1395 18.535
12.1547 18.542
12.1699 18.386
12.1851 18.223
12.2002 18.137
12.2154 18.118
12.2306 18.158
12.2458 18.062
12.2609 18.046
12.2761 17.965
12.2913 17.662
12.3065 17.619
12.3216 17.870
12.3368 17.460
12.3520 17.563
12.3672 17.409
12.3823 17.211
12.3975 17.354
12.4127 17.069
12.4279 17.099
12.4430 16.977
12.4582 17.015
12.4734 16.973
12.4886 16.984
12.5037 16.759
12.5189 16.184
12.5341 16.447
12.5493 16.635
12.5644 16.411
12.5796 16.114
12.5948 15.883
12.6100 15.909
12.6251 15.922
12.6403 15.895
12.6555 15.901
12.6707 16.053
12.6858 15.847
12.7010 15.713
12.7162 15.503
12.7314 15.431
12.7465 15.468
12.7617 15.623
12.7769 15.458
12.7921 15.436
12.8072 15.389
12.8224 15.162
12.8376 15.211
12.8528 15.217
12.8679 14.915
12.8831 14.752
12.8983 14.658
12.9135 14.709
12.9286 14.718
12.9438 14.670
12.9590 14.334
12.9742 14.402
12.9893 14.434
13.0045 14.077
13.0197 14.090
13.0349 14.131
13.0500 14.367
13.0652 14.298
13.0804 13.991
13.0956 13.921
13.1107 13.883
13.1259 13.808
13.1411 13.520
13.1563 13.298
13.1714 13.444
13.1866 13.782
13.2018 13.681
13.2170 13.475
13.2321 13.495
13.2473 13.470
13.2625 13.397
13.2777 13.207
13.2928 13.236
13.3080 13.056
13.3232 12.921
13.3384 13.186
13.3535 13.000
13.3687 12.803
13.3839 12.943
13.3991 13.019
13.4142 13.275
13.4294 13.473
13.4446 13.072
13.4598 12.813
13.4749 12.909
13.4901 12.769
13.5053 12.448
13.5205 12.459
13.5356 12.509
13.5508 12.281
13.5660 12.231
13.5812 12.399
13.5963 12.479
13.6115 12.394
13.6267 12.465
13.6419 12.441
13.6570 12.165
13.6722 12.345
13.6874 12.263
13.7026 12.106
13.7177 11.792
13.7329 11.887
13.7481 12.100
13.7633 11.898
13.7784 11.899
13.7936 12.178
13.8088 12.317
13.8239 12.312
13.8391 12.487
13.8543 12.637
13.8695 12.407
13.8846 12.426
13.8998 12.254
13.9150 12.176
13.9302 11.986
13.9453 11.928
13.9605 12.137
13.9757 12.008
13.9909 11.875
14.0060 11.711
14.0212 11.767
14.0364 11.719
14.0516 11.514
14.0667 11.623
14.0819 11.699
14.0971 11.686
14.1123 11.513
14.1274 11.348
14.1426 11.570
14.1578 12.050
14.1730 11.939
14.1881 11.575
14.2033 11.592
14.2185 11.817
14.2337 11.731
14.2488 11.818
14.2640 12.050
14.2792 11.977
14.2944 12.001
14.3095 12.183
14.3247 12.382
14.3399 12.332
14.3551 12.566
14.3702 12.742
14.3854 12.960
14.4006 13.159
14.4158 12.907
14.4309 12.912
14.4461 12.710
14.4613 12.372
14.4765 12.227
14.4916 12.045
14.5068 12.404
14.5220 11.804
14.5372 11.735
14.5523 11.169
14.5675 10.771
14.5827 11.059
14.5979 10.969
14.6130 10.876
14.6282 10.725
14.6434 11.087
14.6586 10.840
14.6737 10.901
14.6889 10.758
14.7041 10.768
14.7193 11.000
14.7344 10.319
14.7496 10.896
14.7648 10.591
14.7800 10.700
14.7951 10.351
14.8103 10.564
14.8255 10.161
14.8407 10.456
14.8558 10.497
14.8710 10.518
14.8862 10.541
14.9014 10.341
14.9165 10.856
14.9317 10.758
14.9469 10.703
14.9621 10.291
14.9772 10.138
14.9924 10.314
15.0076 10.303
15.0228 10.396
15.0379 10.449
15.0531 10.357
15.0683 10.491
15.0835 10.133
15.0986 10.213
15.1138 10.018
15.1290 10.527
15.1442 10.012
15.1593 10.359
15.1745 10.039
15.1897 10.053
15.2049 10.102
15.2200 10.084
15.2352 9.956
15.2504 10.329
15.2656 10.079
15.2807 10.183
15.2959 10.539
15.3111 9.989
15.3263 9.646
15.3414 10.476
15.3566 10.292
15.3718 10.119
15.3870 9.952
15.4021 9.985
15.4173 10.319
15.4325 10.311
15.4477 10.289
15.4628 9.913
15.4780 10.262
15.4932 10.291
15.5084 10.032
15.5235 10.152
15.5387 10.070
15.5539 9.895
15.5691 9.997
15.5842 10.051
15.5994 9.686
15.6146 10.046
15.6298 10.405
15.6449 10.046
15.6601 10.054
15.6753 9.945
15.6905 10.001
15.7056 10.053
15.7208 9.787
15.7360 9.952
15.7512 9.943
15.7663 9.820
15.7815 9.738
15.7967 9.722
15.8119 10.083
15.8270 9.899
15.8422 9.799
15.8574 9.739
15.8726 9.734
15.8877 9.932
15.9029 9.669
15.9181 9.575
15.9333 9.670
15.9484 9.693
15.9636 9.608
15.9788 9.480
15.9940 9.491
16.0091 9.957
16.0243 9.569
16.0395 9.494
16.0547 9.740
16.0698 9.750
16.0850 9.665
16.1002 9.582
16.1154 9.439
16.1305 9.506
16.1457 9.808
16.1609 9.522
16.1761 9.514
16.1912 9.339
16.2064 9.607
16.2216 9.614
16.2368 9.845
16.2519 9.684
16.2671 9.624
16.2823 9.848
16.2975 10.138
16.3126 10.019
16.3278 9.942
16.3430 9.654
16.3582 9.739
16.3733 9.887
16.3885 10.176
16.4037 10.145
16.4189 10.027
16.4340 9.942
16.4492 9.738
16.4644 9.753
16.4796 9.811
16.4947 9.802
16.5099 9.693
16.5251 9.689
16.5403 9.708
16.5554 9.658
16.5706 9.804
16.5858 9.600
16.6010 9.410
16.6161 9.630
16.6313 9.786
16.6465 9.612
16.6617 9.577
16.6768 9.703
16.6920 9.627
16.7072 9.946
16.7224 10.030
16.7375 10.012
16.7527 10.165
16.7679 10.020
16.7831 9.898
16.7982 9.893
16.8134 9.847
16.8286 9.794
16.8438 9.795
16.8589 10.051
16.8741 9.905
16.8893 9.809
16.9045 9.753
16.9196 9.572
16.9348 9.727
16.9500 9.946
16.9652 10.117
16.9803 9.903
16.9955 9.742
17.0107 9.794
17.0259 9.753
17.0410 9.878
17.0562 10.214
17.0714 10.244
17.0866 10.254
17.1017 10.440
17.1169 10.659
17.1321 11.079
17.1473 11.387
17.1624 11.710
17.1776 12.257
17.1928 12.928
17.2080 13.889
17.2231 14.989
17.2383 16.192
17.2535 17.588
17.2687 18.617
17.2838 18.705
17.2990 17.879
17.3142 16.865
17.3294 16.219
17.3445 16.199
17.3597 16.370
17.3749 15.908
17.3901 15.145
17.4052 14.215
17.4204 13.319
17.4356 12.688
17.4508 12.133
17.4659 11.861
17.4811 11.871
17.4963 11.734
17.5115 11.332
17.5266 11.143
17.5418 11.097
17.5570 10.982
17.5722 10.959
17.5873 11.129
17.6025 11.294
17.6177 11.240
17.6329 11.148
17.6480 11.248
17.6632 11.444
17.6784 11.577
17.6936 11.457
17.7087 11.175
17.7239 11.161
17.7391 11.078
17.7543 10.835
17.7694 10.960
17.7846 10.988
17.7998 10.711
17.8150 10.528
17.8301 10.404
17.8453 10.387
17.8605 10.319
17.8757 10.415
17.8908 10.153
17.9060 10.041
17.9212 10.162
17.9364 9.907
17.9515 9.817
17.9667 9.908
17.9819 10.012
17.9971 10.007
18.0122 10.048
18.0274 10.201
18.0426 10.132
18.0578 9.978
18.0729 9.838
18.0881 10.001
18.1033 10.070
18.1185 9.901
18.1336 10.080
18.1488 10.062
18.1640 9.863
18.1792 9.844
18.1943 9.786
18.2095 9.865
18.2247 9.950
18.2399 9.912
18.2550 9.865
18.2702 9.737
18.2854 10.052
18.3006 10.172
18.3157 9.938
18.3309 9.739
18.3461 9.884
18.3613 9.884
18.3764 9.784
18.3916 9.851
18.4068 9.924
18.4220 9.837
18.4371 9.717
18.4523 9.778
18.4675 9.618
18.4827 9.734
18.4978 9.967
18.5130 9.853
18.5282 9.812
18.5434 9.911
18.5585 9.900
18.5737 9.647
18.5889 9.563
18.6041 9.731
18.6192 9.848
18.6344 9.822
18.6496 9.794
18.6648 9.909
18.6799 9.940
18.6951 9.848
18.7103 9.772
18.7255 9.787
18.7406 9.701
18.7558 9.883
18.7710 9.785
18.7862 9.838
18.8013 9.873
18.8165 9.732
18.8317 9.830
18.8469 9.765
18.8620 9.815
18.8772 9.998
18.8924 10.084
18.9076 9.768
18.9227 9.921
18.9379 10.075
18.9531 10.020
18.9683 10.043
18.9834 10.112
18.9986 9.918
19.0138 10.001
19.0290 10.349
19.0441 10.280
19.0593 10.229
19.0745 10.177
19.0897 10.172
19.1048 9.934
19.1200 10.228
19.1352 10.321
19.1504 10.433
19.1655 10.493
19.1807 10.450
19.1959 10.466
19.2111 10.646
19.2262 10.675
19.2414 10.535
19.2566 10.627
19.2718 10.689
19.2869 10.624
19.3021 10.561
19.3173 10.968
19.3325 11.055
19.3476 10.929
19.3628 10.885
19.3780 10.778
19.3932 11.083
19.4083 11.143
19.4235 11.141
19.4387 11.255
19.4539 11.165
19.4690 11.081
19.4842 11.308
19.4994 11.392
19.5146 11.389
19.5297 11.497
19.5449 11.479
19.5601 11.736
19.5753 11.884
19.5904 11.595
19.6056 11.419
19.6208 11.454
19.6360 11.381
19.6511 11.560
19.6663 11.799
19.6815 11.643
19.6967 11.516
19.7118 11.584
19.7270 11.675
19.7422 11.607
19.7574 11.740
19.7725 11.925
19.7877 11.859
19.8029 11.689
19.8180 11.732
19.8332 12.025
19.8484 12.234
19.8636 12.438
19.8787 12.555
19.8939 12.646
19.9091 12.989
19.9243 13.402
19.9394 13.692
19.9546 14.034
19.9698 14.253
19.9850 14.652
20.0001 14.696
20.0153 13.938
20.0305 13.757
20.0457 13.728
20.0608 13.680
20.0760 13.662
20.0912 13.442
20.1064 13.434
20.1215 13.390
20.1367 13.032
20.1519 13.002
20.1671 12.863
20.1822 12.782
20.1974 12.919
20.2126 12.957
20.2278 12.828
20.2429 12.652
20.2581 12.375
20.2733 11.874
20.2885 11.824
20.3036 12.009
20.3188 11.894
20.3340 12.031
20.3492 12.325
20.3643 12.249
20.3795 12.075
20.3947 11.935
20.4099 11.909
20.4250 11.812
20.4402 11.954
20.4554 11.975
20.4706 12.011
20.4857 11.539
20.5009 11.518
20.5161 11.229
20.5313 11.178
20.5464 11.338
20.5616 11.527
20.5768 11.374
20.5920 11.343
20.6071 11.375
20.6223 11.298
20.6375 11.209
20.6527 10.636
20.6678 10.397
20.6830 10.615
20.6982 10.537
20.7134 10.561
20.7285 10.718
20.7437 10.668
20.7589 10.419
20.7741 10.181
20.7892 10.077
20.8044 10.352
20.8196 10.601
20.8348 10.272
20.8499 10.214
20.8651 10.167
20.8803 10.131
20.8955 10.139
20.9106 10.235
20.9258 9.984
20.9410 10.273
20.9562 10.389
20.9713 10.113
20.9865 9.904
21.0017 10.182
21.0169 9.901
21.0320 9.924
21.0472 9.913
21.0624 10.046
21.0776 9.966
21.0927 9.992
21.1079 9.781
21.1231 9.885
21.1383 9.873
21.1534 10.167
21.1686 9.640
21.1838 9.594
21.1990 9.672
21.2141 9.697
21.2293 9.380
21.2445 9.625
21.2597 9.309
21.2748 9.766
21.2900 9.670
21.3052 9.411
21.3204 9.653
21.3355 9.333
21.3507 9.562
21.3659 9.404
21.3811 9.017
21.3962 9.576
21.4114 9.455
21.4266 9.545
21.4418 9.357
21.4569 9.129
21.4721 9.441
21.4873 9.283
21.5025 9.303
21.5176 9.327
21.5328 9.230
21.5480 9.252
21.5632 9.445
21.5783 9.504
21.5935 9.118
21.6087 9.374
21.6239 9.242
21.6390 9.327
21.6542 9.115
21.6694 9.254
21.6846 9.148
21.6997 8.813
21.7149 9.074
21.7301 8.991
21.7453 9.099
21.7604 9.027
21.7756 8.784
21.7908 8.826
21.8060 8.991
21.8211 9.069
21.8363 8.852
21.8515 8.968
21.8667 8.948
21.8818 9.043
21.8970 9.025
21.9122 9.018
21.9274 8.940
21.9425 8.929
21.9577 8.877
21.9729 8.855
21.9881 8.904
22.0032 8.776
22.0184 8.794
22.0336 8.930
22.0488 8.754
22.0639 8.848
22.0791 8.803
22.0943 8.725
22.1095 8.562
22.1246 8.566
22.1398 8.624
22.1550 8.577
22.1702 8.470
22.1853 8.599
22.2005 8.606
22.2157 8.624
22.2309 8.473
22.2460 8.630
22.2612 8.524
22.2764 8.663
22.2916 8.735
22.3067 8.677
22.3219 8.529
22.3371 8.480
22.3523 8.362
22.3674 8.532
22.3826 8.545
22.3978 8.396
22.4130 8.278
22.4281 8.588
22.4433 8.526
22.4585 8.625
22.4737 8.531
22.4888 8.646
22.5040 8.502
22.5192 8.216
22.5344 8.423
22.5495 8.778
22.5647 8.370
22.5799 8.614
22.5951 8.447
22.6102 8.210
22.6254 8.377
22.6406 8.497
22.6558 8.233
22.6709 8.161
22.6861 7.888
22.7013 7.895
22.7165 8.215
22.7316 6.655
