'Id: "" Comment: "" Operator: "Lab Manager" Anode: "Mo" Scantype: "Still (Eiger2R_500K (1D mode))" TimePerStep: "300" X: "11.8" Y: "9.4" Z: "11.284" 
7.2532 18.734
7.2684 18.632
7.2836 18.990
7.2987 18.982
7.3139 18.988
7.3291 19.339
7.3443 19.064
7.3594 19.173
7.3746 19.400
7.3898 18.934
7.4050 19.677
7.4201 19.383
7.4353 19.299
7.4505 19.511
7.4657 19.653
7.4808 19.402
7.4960 19.606
7.5112 19.547
7.5264 19.851
7.5415 19.648
7.5567 19.889
7.5719 19.871
7.5871 19.921
7.6022 19.818
7.6174 20.139
7.6326 20.069
7.6478 20.010
7.6629 20.177
7.6781 19.863
7.6933 19.954
7.7085 19.754
7.7236 20.092
7.7388 20.197
7.7540 20.447
7.7692 20.497
7.7843 20.280
7.7995 20.487
7.8147 20.429
7.8299 20.526
7.8450 20.390
7.8602 20.068
7.8754 20.480
7.8905 20.679
7.9057 20.802
7.9209 21.136
7.9361 21.001
7.9512 20.875
7.9664 21.070
7.9816 20.956
7.9968 20.743
8.0119 20.808
8.0271 20.828
8.0423 20.997
8.0575 21.010
8.0726 21.003
8.0878 21.117
8.1030 21.359
8.1182 21.354
8.1333 21.551
8.1485 20.964
8.1637 21.066
8.1789 21.367
8.1940 21.245
8.2092 21.253
8.2244 21.392
8.2396 21.447
8.2547 21.746
8.2699 21.791
8.2851 21.644
8.3003 21.604
8.3154 21.341
8.3306 21.545
8.3458 21.589
8.3610 21.720
8.3761 21.537
8.3913 21.677
8.4065 22.042
8.4217 21.868
8.4368 21.602
8.4520 22.280
8.4672 21.937
8.4824 21.655
8.4975 22.323
8.5127 21.956
8.5279 21.993
8.5431 22.236
8.5582 21.630
8.5734 21.738
8.5886 21.978
8.6038 22.284
8.6189 22.025
8.6341 21.962
8.6493 22.635
8.6645 22.536
8.6796 22.123
8.6948 22.677
8.7100 22.309
8.7252 22.503
8.7403 22.216
8.7555 22.278
8.7707 22.162
8.7859 22.300
8.8010 22.546
8.8162 22.324
8.8314 22.466
8.8466 22.012
8.8617 22.621
8.8769 22.703
8.8921 22.296
8.9073 22.742
8.9224 22.691
8.9376 22.349
8.9528 22.410
8.9680 23.039
8.9831 22.760
8.9983 22.920
9.0135 22.663
9.0287 22.662
9.0438 22.945
9.0590 22.599
9.0742 22.809
9.0894 22.859
9.1045 22.793
9.1197 22.323
9.1349 21.955
9.1501 22.665
9.1652 22.688
9.1804 22.990
9.1956 23.197
9.2108 23.151
9.2259 22.985
9.2411 23.098
9.2563 23.052
9.2715 22.966
9.2866 23.091
9.3018 23.503
9.3170 23.343
9.3322 23.076
9.3473 22.964
9.3625 22.882
9.3777 23.131
9.3929 22.997
9.4080 23.110
9.4232 23.287
9.4384 23.101
9.4536 23.003
9.4687 22.718
9.4839 23.187
9.4991 23.305
9.5143 23.215
9.5294 23.405
9.5446 22.997
9.5598 22.939
9.5750 22.950
9.5901 23.060
9.6053 23.210
9.6205 23.438
9.6357 23.179
9.6508 23.270
9.6660 23.484
9.6812 23.646
9.6964 23.827
9.7115 23.463
9.7267 23.845
9.7419 24.439
9.7571 24.132
9.7722 23.806
9.7874 23.656
9.8026 23.682
9.8178 23.719
9.8329 23.566
9.8481 23.632
9.8633 23.557
9.8785 23.430
9.8936 23.165
9.9088 22.998
9.9240 23.268
9.9392 23.086
9.9543 22.895
9.9695 23.152
9.9847 23.273
9.9999 23.064
10.0150 22.803
10.0302 22.839
10.0454 23.030
10.0606 22.894
10.0757 22.926
10.0909 23.444
10.1061 23.342
10.1213 22.979
10.1364 23.179
10.1516 23.548
10.1668 23.489
10.1820 23.080
10.1971 23.194
10.2123 23.467
10.2275 23.112
10.2427 22.967
10.2578 22.855
10.2730 22.876
10.2882 23.068
10.3034 22.986
10.3185 22.825
10.3337 22.886
10.3489 22.802
10.3641 22.779
10.3792 22.627
10.3944 22.563
10.4096 22.587
10.4248 22.723
10.4399 22.748
10.4551 22.705
10.4703 22.460
10.4855 22.632
10.5006 22.748
10.5158 22.669
10.5310 22.392
10.5462 22.534
10.5613 22.486
10.5765 22.507
10.5917 22.729
10.6069 22.560
10.6220 22.856
10.6372 22.593
10.6524 22.563
10.6676 22.631
10.6827 22.637
10.6979 22.317
10.7131 22.431
10.7283 22.598
10.7434 22.474
10.7586 22.542
10.7738 22.738
10.7890 22.835
10.8041 22.521
10.8193 22.293
10.8345 22.334
10.8497 22.277
10.8648 21.756
10.8800 21.709
10.8952 22.069
10.9104 22.239
10.9255 22.454
10.9407 22.276
10.9559 22.006
10.9711 22.210
10.9862 22.339
11.0014 22.177
11.0166 21.942
11.0318 22.089
11.0469 21.789
11.0621 21.942
11.0773 21.908
11.0925 21.763
11.1076 21.759
11.1228 21.424
11.1380 21.655
11.1532 21.837
11.1683 21.943
11.1835 21.338
11.1987 21.677
11.2139 21.743
11.2290 21.600
11.2442 21.434
11.2594 21.737
11.2746 21.939
11.2897 21.464
11.3049 21.522
11.3201 21.457
11.3353 21.625
11.3504 21.318
11.3656 21.446
11.3808 21.397
11.3960 21.235
11.4111 21.194
11.4263 21.341
11.4415 21.263
11.4567 20.926
11.4718 20.992
11.4870 21.107
11.5022 21.048
11.5174 21.186
11.5325 21.073
11.5477 20.741
11.5629 20.500
11.5781 20.608
11.5932 20.373
11.6084 20.719
11.6236 20.981
11.6388 20.804
11.6539 20.695
11.6691 20.586
11.6843 20.523
11.6995 20.326
11.7146 20.674
11.7298 20.425
11.7450 20.417
11.7602 20.078
11.7753 20.111
11.7905 20.309
11.8057 20.331
11.8209 19.774
11.8360 19.893
11.8512 19.648
11.8664 19.923
11.8816 19.911
11.8967 19.645
11.9119 19.523
11.9271 19.503
11.9423 19.667
11.9574 19.745
11.9726 19.480
11.9878 19.317
12.0030 19.147
12.0181 19.100
12.0333 19.089
12.0485 19.119
12.0637 18.809
12.0788 18.579
12.0940 18.901
12.1092 18.820
12.1244 18.736
12.1395 18.576
12.1547 18.531
12.1699 18.328
12.1851 18.193
12.2002 18.045
12.2154 17.907
12.2306 17.972
12.2458 17.997
12.2609 17.846
12.2761 17.636
12.2913 17.709
12.3065 17.617
12.3216 17.398
12.3368 17.270
12.3520 17.142
12.3672 17.026
12.3823 17.465
12.3975 17.365
12.4127 17.246
12.4279 17.174
12.4430 17.070
12.4582 16.708
12.4734 16.697
12.4886 16.462
12.5037 16.534
12.5189 16.527
12.5341 16.591
12.5493 16.220
12.5644 16.070
12.5796 16.167
12.5948 16.021
12.6100 16.088
12.6251 16.261
12.6403 15.956
12.6555 15.561
12.6707 15.495
12.6858 15.266
12.7010 15.380
12.7162 15.783
12.7314 15.732
12.7465 15.262
12.7617 15.272
12.7769 15.205
12.7921 15.173
12.8072 15.394
12.8224 15.177
12.8376 14.833
12.8528 14.915
12.8679 14.811
12.8831 14.696
12.8983 14.678
12.9135 14.411
12.9286 14.378
12.9438 14.518
12.9590 14.498
12.9742 14.428
12.9893 14.606
13.0045 14.509
13.0197 14.225
13.0349 14.237
13.0500 14.117
13.0652 13.845
13.0804 13.713
13.0956 13.885
13.1107 13.868
13.1259 13.657
13.1411 13.855
13.1563 13.594
13.1714 13.379
13.1866 13.491
13.2018 13.377
13.2170 13.493
13.2321 13.476
13.2473 13.222
13.2625 13.099
13.2777 13.218
13.2928 13.009
13.3080 12.877
13.3232 13.035
13.3384 12.955
13.3535 13.189
13.3687 13.253
13.3839 12.857
13.3991 12.863
13.4142 12.973
13.4294 12.786
13.4446 12.493
13.4598 12.573
13.4749 12.759
13.4901 12.826
13.5053 12.802
13.5205 12.397
13.5356 12.211
13.5508 12.328
13.5660 12.334
13.5812 12.390
13.5963 12.267
13.6115 12.037
13.6267 12.044
13.6419 11.939
13.6570 12.075
13.6722 12.090
13.6874 12.028
13.7026 12.008
13.7177 12.016
13.7329 12.073
13.7481 12.038
13.7633 11.878
13.7784 11.841
13.7936 12.038
13.8088 12.164
13.8239 12.111
13.8391 12.352
13.8543 12.342
13.8695 12.185
13.8846 12.128
13.8998 12.055
13.9150 12.158
13.9302 12.045
13.9453 11.925
13.9605 11.969
13.9757 11.671
13.9909 11.735
14.0060 11.766
14.0212 11.580
14.0364 11.709
14.0516 11.411
14.0667 11.499
14.0819 11.461
14.0971 11.355
14.1123 11.463
14.1274 11.538
14.1426 11.488
14.1578 11.427
14.1730 11.349
14.1881 11.246
14.2033 11.441
14.2185 11.462
14.2337 11.347
14.2488 11.342
14.2640 11.902
14.2792 11.977
14.2944 11.847
14.3095 11.777
14.3247 12.280
14.3399 12.234
14.3551 12.194
14.3702 13.133
14.3854 12.967
14.4006 13.056
14.4158 13.526
14.4309 13.290
14.4461 13.193
14.4613 13.391
14.4765 13.023
14.4916 12.711
14.5068 12.577
14.5220 12.179
14.5372 11.642
14.5523 11.863
14.5675 11.482
14.5827 10.984
14.5979 11.122
14.6130 10.992
14.6282 10.940
14.6434 10.681
14.6586 10.825
14.6737 10.709
14.6889 10.684
14.7041 10.920
14.7193 10.481
14.7344 10.630
14.7496 10.553
14.7648 10.616
14.7800 10.605
14.7951 10.385
14.8103 10.614
14.8255 10.597
14.8407 10.614
14.8558 10.417
14.8710 10.491
14.8862 10.759
14.9014 10.655
14.9165 11.025
14.9317 10.693
14.9469 10.625
14.9621 10.404
14.9772 10.341
14.9924 10.409
15.0076 10.255
15.0228 10.227
15.0379 10.407
15.0531 10.587
15.0683 10.429
15.0835 10.433
15.0986 10.377
15.1138 10.353
15.1290 10.329
15.1442 9.978
15.1593 10.406
15.1745 10.069
15.1897 10.138
15.2049 9.945
15.2200 10.290
15.2352 10.075
15.2504 10.295
15.2656 9.947
15.2807 9.986
15.2959 10.233
15.3111 10.157
15.3263 10.014
15.3414 10.441
15.3566 10.118
15.3718 10.090
15.3870 10.474
15.4021 10.094
15.4173 10.263
15.4325 10.404
15.4477 10.054
15.4628 10.265
15.4780 10.233
15.4932 9.929
15.5084 9.889
15.5235 10.015
15.5387 9.846
15.5539 9.918
15.5691 9.872
15.5842 10.134
15.5994 9.836
15.6146 9.794
15.6298 10.017
15.6449 9.902
15.6601 9.946
15.6753 9.754
15.6905 9.754
15.7056 9.632
15.7208 9.617
15.7360 9.789
15.7512 9.708
15.7663 9.692
15.7815 9.830
15.7967 9.742
15.8119 9.752
15.8270 9.774
15.8422 9.613
15.8574 9.578
15.8726 9.740
15.8877 9.760
15.9029 9.607
15.9181 9.862
15.9333 9.652
15.9484 9.426
15.9636 9.598
15.9788 9.733
15.9940 9.690
16.0091 9.582
16.0243 9.851
16.0395 9.803
16.0547 9.651
16.0698 9.463
16.0850 9.717
16.1002 9.660
16.1154 9.553
16.1305 9.533
16.1457 9.684
16.1609 10.008
16.1761 9.707
16.1912 9.399
16.2064 9.919
16.2216 9.948
16.2368 9.907
16.2519 9.852
16.2671 9.727
16.2823 9.771
16.2975 9.729
16.3126 9.991
16.3278 10.081
16.3430 9.977
16.3582 9.866
16.3733 9.905
16.3885 9.912
16.4037 9.813
16.4189 9.585
16.4340 9.744
16.4492 9.696
16.4644 9.762
16.4796 9.831
16.4947 9.649
16.5099 9.627
16.5251 9.570
16.5403 9.586
16.5554 9.600
16.5706 9.638
16.5858 9.358
16.6010 9.275
16.6161 9.350
16.6313 9.445
16.6465 9.559
16.6617 9.593
16.6768 9.772
16.6920 9.685
16.7072 9.841
16.7224 9.928
16.7375 10.034
16.7527 10.001
16.7679 9.602
16.7831 9.586
16.7982 9.757
16.8134 9.816
16.8286 9.956
16.8438 9.845
16.8589 9.767
16.8741 9.562
16.8893 9.506
16.9045 9.816
16.9196 9.778
16.9348 9.744
16.9500 9.812
16.9652 9.618
16.9803 9.760
16.9955 9.936
17.0107 9.901
17.0259 10.061
17.0410 10.081
17.0562 9.918
17.0714 9.992
17.0866 10.174
17.1017 10.322
17.1169 10.734
17.1321 11.035
17.1473 11.108
17.1624 11.484
17.1776 12.129
17.1928 13.041
17.2080 13.833
17.2231 15.114
17.2383 16.386
17.2535 17.379
17.2687 18.537
17.2838 18.408
17.2990 17.641
17.3142 16.849
17.3294 16.228
17.3445 16.141
17.3597 15.756
17.3749 15.593
17.3901 15.227
17.4052 14.246
17.4204 13.254
17.4356 12.555
17.4508 11.895
17.4659 11.298
17.4811 11.340
17.4963 11.265
17.5115 10.971
17.5266 10.701
17.5418 10.634
17.5570 10.766
17.5722 10.836
17.5873 11.143
17.6025 11.187
17.6177 11.072
17.6329 11.184
17.6480 11.276
17.6632 11.524
17.6784 11.893
17.6936 12.138
17.7087 12.083
17.7239 11.817
17.7391 11.458
17.7543 11.366
17.7694 11.451
17.7846 11.530
17.7998 11.447
17.8150 11.363
17.8301 10.999
17.8453 10.718
17.8605 10.572
17.8757 10.405
17.8908 10.490
17.9060 10.541
17.9212 10.532
17.9364 10.555
17.9515 10.402
17.9667 10.298
17.9819 10.363
17.9971 10.260
18.0122 10.127
18.0274 10.335
18.0426 10.292
18.0578 10.203
18.0729 10.201
18.0881 10.098
18.1033 9.926
18.1185 9.946
18.1336 10.000
18.1488 9.946
18.1640 9.809
18.1792 9.936
18.1943 10.004
18.2095 10.043
18.2247 9.891
18.2399 9.778
18.2550 10.009
18.2702 9.929
18.2854 9.973
18.3006 9.964
18.3157 9.756
18.3309 10.018
18.3461 9.974
18.3613 9.668
18.3764 9.702
18.3916 9.766
18.4068 9.819
18.4220 9.764
18.4371 9.726
18.4523 9.883
18.4675 9.801
18.4827 9.793
18.4978 9.968
18.5130 10.018
18.5282 9.938
18.5434 9.753
18.5585 9.729
18.5737 9.696
18.5889 9.538
18.6041 9.664
18.6192 9.949
18.6344 9.985
18.6496 9.873
18.6648 9.660
18.6799 9.797
18.6951 10.111
18.7103 9.915
18.7255 9.666
18.7406 9.749
18.7558 9.781
18.7710 9.673
18.7862 9.709
18.8013 9.749
18.8165 9.435
18.8317 9.636
18.8469 9.871
18.8620 9.928
18.8772 10.039
18.8924 9.843
18.9076 9.737
18.9227 9.953
18.9379 9.970
18.9531 9.904
18.9683 9.983
18.9834 10.084
18.9986 9.972
19.0138 9.987
19.0290 10.160
19.0441 10.193
19.0593 10.156
19.0745 10.164
19.0897 10.261
19.1048 10.358
19.1200 10.350
19.1352 10.288
19.1504 10.257
19.1655 10.401
19.1807 10.432
19.1959 10.563
19.2111 10.701
19.2262 10.665
19.2414 10.635
19.2566 10.868
19.2718 10.925
19.2869 11.010
19.3021 10.779
19.3173 10.777
19.3325 11.025
19.3476 11.009
19.3628 11.104
19.3780 10.989
19.3932 11.194
19.4083 11.369
19.4235 11.135
19.4387 11.129
19.4539 11.146
19.4690 11.262
19.4842 11.255
19.4994 11.074
19.5146 11.133
19.5297 11.198
19.5449 11.291
19.5601 11.401
19.5753 11.626
19.5904 11.690
19.6056 11.545
19.6208 11.520
19.6360 11.587
19.6511 11.699
19.6663 11.799
19.6815 11.596
19.6967 11.556
19.7118 11.732
19.7270 11.508
19.7422 11.481
19.7574 11.651
19.7725 11.622
19.7877 11.710
19.8029 11.808
19.8180 11.946
19.8332 12.194
19.8484 12.462
19.8636 12.512
19.8787 12.663
19.8939 12.930
19.9091 13.192
19.9243 13.428
19.9394 13.605
19.9546 13.911
19.9698 14.307
19.9850 14.438
20.0001 14.448
20.0153 14.227
20.0305 13.819
20.0457 13.460
20.0608 13.463
20.0760 13.892
20.0912 13.912
20.1064 13.692
20.1215 13.412
20.1367 13.235
20.1519 12.885
20.1671 12.860
20.1822 12.890
20.1974 12.669
20.2126 12.619
20.2278 12.731
20.2429 12.840
20.2581 12.448
20.2733 12.056
20.2885 11.921
20.3036 11.476
20.3188 11.856
20.3340 12.107
20.3492 12.001
20.3643 11.741
20.3795 11.768
20.3947 11.878
20.4099 11.725
20.4250 11.913
20.4402 12.123
20.4554 12.299
20.4706 12.000
20.4857 12.053
20.5009 11.895
20.5161 11.683
20.5313 11.795
20.5464 11.545
20.5616 11.375
20.5768 11.679
20.5920 11.387
20.6071 11.424
20.6223 11.127
20.6375 11.110
20.6527 11.194
20.6678 10.927
20.6830 10.649
20.6982 10.916
20.7134 10.677
20.7285 10.365
20.7437 10.422
20.7589 10.414
20.7741 10.635
20.7892 10.600
20.8044 10.454
20.8196 10.471
20.8348 10.019
20.8499 10.562
20.8651 10.289
20.8803 10.283
20.8955 10.083
20.9106 9.855
20.9258 10.111
20.9410 10.118
20.9562 10.295
20.9713 10.081
20.9865 10.173
21.0017 10.137
21.0169 10.159
21.0320 10.061
21.0472 9.980
21.0624 9.989
21.0776 9.976
21.0927 10.023
21.1079 9.962
21.1231 9.649
21.1383 9.553
21.1534 9.735
21.1686 9.823
21.1838 10.015
21.1990 9.827
21.2141 9.824
21.2293 9.646
21.2445 9.744
21.2597 9.538
21.2748 9.725
21.2900 9.632
21.3052 10.028
21.3204 9.678
21.3355 9.616
21.3507 9.387
21.3659 9.478
21.3811 9.772
21.3962 9.344
21.4114 9.444
21.4266 9.644
21.4418 9.578
21.4569 9.109
21.4721 9.233
21.4873 9.253
21.5025 9.249
21.5176 9.315
21.5328 9.138
21.5480 9.153
21.5632 9.254
21.5783 9.338
21.5935 9.018
21.6087 8.836
21.6239 9.313
21.6390 9.312
21.6542 9.063
21.6694 9.143
21.6846 9.236
21.6997 9.321
21.7149 9.113
21.7301 9.032
21.7453 9.119
21.7604 8.995
21.7756 8.955
21.7908 9.183
21.8060 9.200
21.8211 8.891
21.8363 9.037
21.8515 9.023
21.8667 8.897
21.8818 8.831
21.8970 8.828
21.9122 8.890
21.9274 8.818
21.9425 9.055
21.9577 9.018
21.9729 8.848
21.9881 8.873
22.0032 8.901
22.0184 8.755
22.0336 8.636
22.0488 8.740
22.0639 8.761
22.0791 8.681
22.0943 8.649
22.1095 8.806
22.1246 8.859
22.1398 8.530
22.1550 8.473
22.1702 8.603
22.1853 8.534
22.2005 8.562
22.2157 8.682
22.2309 8.720
22.2460 8.663
22.2612 8.783
22.2764 8.569
22.2916 8.669
22.3067 8.535
22.3219 8.463
22.3371 8.466
22.3523 8.459
22.3674 8.424
22.3826 8.596
22.3978 8.421
22.4130 8.498
22.4281 8.418
22.4433 8.457
22.4585 8.326
22.4737 8.382
22.4888 8.306
22.5040 8.405
22.5192 8.214
22.5344 8.345
22.5495 8.229
22.5647 8.456
22.5799 8.536
22.5951 8.611
22.6102 8.179
22.6254 8.225
22.6406 8.445
22.6558 8.491
22.6709 8.249
22.6861 8.551
22.7013 8.248
22.7165 7.750
22.7316 6.370
