'Id: "" Comment: "" Operator: "Lab Manager" Anode: "Mo" Scantype: "Still (Eiger2R_500K (1D mode))" TimePerStep: "300" X: "11.8" Y: "9.4" Z: "11.284" 
7.2532 18.782
7.2684 18.779
7.2836 18.869
7.2987 19.306
7.3139 18.901
7.3291 18.881
7.3443 19.204
7.3594 18.746
7.3746 18.981
7.3898 19.088
7.4050 19.415
7.4201 19.609
7.4353 19.603
7.4505 19.377
7.4657 19.550
7.4808 19.194
7.4960 19.255
7.5112 19.426
7.5264 19.369
7.5415 19.527
7.5567 19.609
7.5719 19.641
7.5871 19.407
7.6022 19.679
7.6174 19.833
7.6326 19.839
7.6478 20.196
7.6629 19.832
7.6781 20.021
7.6933 20.629
7.7085 20.485
7.7236 20.211
7.7388 20.215
7.7540 20.278
7.7692 20.251
7.7843 20.242
7.7995 20.417
7.8147 20.349
7.8299 20.343
7.8450 20.550
7.8602 20.528
7.8754 20.133
7.8905 20.249
7.9057 20.554
7.9209 20.589
7.9361 20.514
7.9512 20.488
7.9664 20.533
7.9816 20.622
7.9968 21.205
8.0119 21.155
8.0271 20.790
8.0423 20.756
8.0575 20.949
8.0726 20.889
8.0878 21.052
8.1030 20.838
8.1182 21.266
8.1333 21.319
8.1485 21.365
8.1637 21.024
8.1789 21.195
8.1940 21.367
8.2092 21.518
8.2244 21.486
8.2396 21.287
8.2547 21.333
8.2699 21.231
8.2851 21.315
8.3003 21.504
8.3154 21.253
8.3306 21.245
8.3458 21.489
8.3610 21.650
8.3761 21.482
8.3913 21.528
8.4065 21.611
8.4217 21.923
8.4368 22.019
8.4520 21.770
8.4672 21.581
8.4824 22.237
8.4975 22.451
8.5127 21.587
8.5279 21.945
8.5431 22.047
8.5582 21.952
8.5734 21.965
8.5886 22.198
8.6038 22.284
8.6189 22.069
8.6341 22.022
8.6493 22.094
8.6645 22.005
8.6796 22.381
8.6948 21.929
8.7100 22.037
8.7252 22.261
8.7403 22.275
8.7555 21.839
8.7707 22.269
8.7859 22.654
8.8010 22.591
8.8162 22.656
8.8314 22.340
8.8466 22.315
8.8617 22.405
8.8769 22.038
8.8921 21.976
8.9073 22.232
8.9224 22.228
8.9376 22.649
8.9528 22.235
8.9680 22.248
8.9831 22.484
8.9983 22.470
9.0135 22.496
9.0287 22.509
9.0438 22.603
9.0590 22.717
9.0742 22.730
9.0894 22.377
9.1045 22.563
9.1197 22.519
9.1349 22.622
9.1501 22.896
9.1652 22.230
9.1804 22.784
9.1956 22.737
9.2108 22.624
9.2259 22.643
9.2411 22.575
9.2563 22.498
9.2715 22.728
9.2866 22.782
9.3018 22.805
9.3170 22.903
9.3322 22.952
9.3473 22.830
9.3625 22.734
9.3777 22.668
9.3929 22.670
9.4080 22.911
9.4232 22.886
9.4384 22.627
9.4536 22.879
9.4687 22.992
9.4839 23.010
9.4991 23.026
9.5143 22.831
9.5294 22.684
9.5446 22.778
9.5598 23.005
9.5750 23.083
9.5901 23.533
9.6053 23.128
9.6205 22.925
9.6357 23.135
9.6508 23.131
9.6660 23.157
9.6812 23.496
9.6964 23.606
9.7115 23.568
9.7267 23.827
9.7419 23.950
9.7571 24.067
9.7722 23.894
9.7874 23.508
9.8026 23.478
9.8178 23.378
9.8329 23.116
9.8481 23.218
9.8633 23.127
9.8785 22.728
9.8936 22.994
9.9088 23.339
9.9240 23.404
9.9392 23.326
9.9543 23.038
9.9695 22.870
9.9847 23.079
9.9999 23.233
10.0150 23.150
10.0302 23.180
10.0454 23.183
10.0606 22.970
10.0757 23.177
10.0909 23.226
10.1061 23.235
10.1213 23.368
10.1364 23.046
10.1516 22.928
10.1668 23.294
10.1820 23.258
10.1971 23.129
10.2123 23.108
10.2275 23.009
10.2427 22.965
10.2578 22.992
10.2730 22.698
10.2882 22.793
10.3034 23.208
10.3185 22.893
10.3337 22.349
10.3489 22.385
10.3641 22.567
10.3792 22.665
10.3944 22.456
10.4096 22.593
10.4248 22.900
10.4399 22.587
10.4551 22.371
10.4703 22.807
10.4855 22.538
10.5006 22.158
10.5158 22.254
10.5310 21.982
10.5462 21.904
10.5613 22.430
10.5765 22.746
10.5917 22.685
10.6069 22.417
10.6220 22.601
10.6372 22.973
10.6524 22.746
10.6676 22.205
10.6827 22.218
10.6979 22.304
10.7131 22.202
10.7283 22.156
10.7434 22.062
10.7586 22.307
10.7738 22.218
10.7890 21.851
10.8041 22.174
10.8193 22.175
10.8345 22.109
10.8497 22.153
10.8648 22.184
10.8800 22.167
10.8952 22.191
10.9104 22.068
10.9255 21.677
10.9407 21.714
10.9559 21.865
10.9711 21.912
10.9862 22.144
11.0014 22.230
11.0166 22.132
11.0318 22.266
11.0469 21.971
11.0621 21.882
11.0773 21.672
11.0925 21.718
11.1076 21.855
11.1228 21.541
11.1380 21.406
11.1532 21.400
11.1683 21.368
11.1835 21.829
11.1987 21.574
11.2139 21.469
11.2290 21.650
11.2442 21.471
11.2594 21.594
11.2746 21.444
11.2897 21.573
11.3049 21.128
11.3201 20.971
11.3353 21.339
11.3504 21.321
11.3656 21.340
11.3808 21.528
11.3960 21.284
11.4111 21.378
11.4263 21.296
11.4415 21.404
11.4567 21.378
11.4718 21.378
11.4870 21.285
11.5022 20.894
11.5174 21.065
11.5325 20.941
11.5477 20.655
11.5629 20.964
11.5781 20.893
11.5932 20.745
11.6084 21.018
11.6236 21.072
11.6388 20.470
11.6539 20.526
11.6691 20.536
11.6843 20.519
11.6995 20.619
11.7146 20.150
11.7298 19.991
11.7450 20.079
11.7602 20.250
11.7753 20.407
11.7905 20.549
11.8057 20.406
11.8209 20.220
11.8360 20.232
11.8512 19.953
11.8664 19.845
11.8816 19.584
11.8967 19.817
11.9119 19.600
11.9271 19.531
11.9423 19.520
11.9574 19.608
11.9726 19.580
11.9878 19.155
12.0030 19.206
12.0181 18.961
12.0333 18.895
12.0485 18.913
12.0637 18.713
12.0788 18.916
12.0940 19.078
12.1092 18.551
12.1244 18.402
12.1395 18.342
12.1547 18.278
12.1699 18.405
12.1851 18.368
12.2002 17.997
12.2154 18.208
12.2306 17.988
12.2458 18.092
12.2609 18.001
12.2761 17.850
12.2913 17.650
12.3065 17.628
12.3216 17.839
12.3368 17.496
12.3520 17.327
12.3672 17.282
12.3823 17.164
12.3975 17.240
12.4127 16.974
12.4279 16.828
12.4430 16.706
12.4582 16.744
12.4734 16.665
12.4886 16.568
12.5037 16.476
12.5189 16.549
12.5341 16.496
12.5493 16.535
12.5644 16.258
12.5796 15.783
12.5948 15.985
12.6100 16.225
12.6251 16.208
12.6403 15.875
12.6555 15.661
12.6707 15.645
12.6858 15.577
12.7010 15.543
12.7162 15.547
12.7314 15.719
12.7465 15.599
12.7617 15.384
12.7769 15.296
12.7921 15.323
12.8072 14.970
12.8224 14.725
12.8376 14.990
12.8528 14.899
12.8679 14.679
12.8831 14.527
12.8983 14.507
12.9135 14.658
12.9286 14.613
12.9438 14.515
12.9590 14.605
12.9742 14.560
12.9893 14.377
13.0045 14.382
13.0197 14.069
13.0349 13.926
13.0500 13.894
13.0652 14.014
13.0804 14.332
13.0956 14.035
13.1107 13.767
13.1259 13.777
13.1411 13.580
13.1563 13.556
13.1714 13.595
13.1866 13.222
13.2018 13.240
13.2170 13.503
13.2321 13.284
13.2473 13.200
13.2625 13.186
13.2777 13.022
13.2928 13.051
13.3080 12.993
13.3232 12.977
13.3384 13.113
13.3535 12.862
13.3687 12.934
13.3839 13.076
13.3991 12.844
13.4142 13.008
13.4294 12.861
13.4446 12.645
13.4598 12.591
13.4749 12.698
13.4901 12.595
13.5053 12.436
13.5205 12.500
13.5356 12.358
13.5508 12.388
13.5660 12.419
13.5812 12.497
13.5963 12.272
13.6115 11.930
13.6267 12.267
13.6419 12.464
13.6570 12.297
13.6722 12.024
13.6874 12.011
13.7026 12.119
13.7177 12.226
13.7329 12.032
13.7481 11.871
13.7633 12.033
13.7784 11.944
13.7936 12.057
13.8088 12.111
13.8239 12.099
13.8391 12.289
13.8543 12.369
13.8695 12.187
13.8846 12.146
13.8998 12.117
13.9150 11.796
13.9302 12.016
13.9453 12.068
13.9605 11.854
13.9757 11.683
13.9909 11.899
14.0060 11.809
14.0212 11.968
14.0364 11.839
14.0516 11.720
14.0667 11.383
14.0819 11.290
14.0971 11.517
14.1123 11.773
14.1274 11.754
14.1426 11.458
14.1578 11.668
14.1730 11.826
14.1881 11.906
14.2033 11.755
14.2185 11.950
14.2337 11.879
14.2488 11.889
14.2640 11.673
14.2792 11.707
14.2944 11.992
14.3095 12.068
14.3247 12.043
14.3399 12.297
14.3551 12.496
14.3702 12.737
14.3854 12.896
14.4006 12.693
14.4158 13.130
14.4309 13.049
14.4461 12.723
14.4613 12.624
14.4765 12.249
14.4916 12.064
14.5068 11.520
14.5220 11.753
14.5372 11.489
14.5523 11.267
14.5675 11.158
14.5827 11.072
14.5979 10.763
14.6130 11.215
14.6282 11.104
14.6434 10.818
14.6586 10.990
14.6737 10.582
14.6889 10.677
14.7041 9.830
14.7193 10.395
14.7344 10.777
14.7496 11.025
14.7648 10.752
14.7800 10.741
14.7951 10.296
14.8103 10.389
14.8255 10.361
14.8407 10.577
14.8558 10.671
14.8710 10.631
14.8862 10.419
14.9014 10.354
14.9165 10.663
14.9317 10.825
14.9469 10.318
14.9621 10.417
14.9772 10.104
14.9924 10.642
15.0076 10.297
15.0228 10.562
15.0379 10.379
15.0531 10.094
15.0683 10.064
15.0835 10.554
15.0986 10.498
15.1138 10.284
15.1290 9.998
15.1442 10.090
15.1593 10.074
15.1745 9.928
15.1897 10.391
15.2049 10.277
15.2200 10.017
15.2352 10.147
15.2504 10.193
15.2656 10.178
15.2807 9.914
15.2959 10.224
15.3111 9.937
15.3263 10.198
15.3414 9.941
15.3566 9.911
15.3718 9.934
15.3870 9.985
15.4021 10.217
15.4173 10.130
15.4325 10.150
15.4477 10.417
15.4628 10.184
15.4780 10.161
15.4932 10.130
15.5084 10.414
15.5235 9.878
15.5387 10.046
15.5539 10.063
15.5691 9.808
15.5842 9.748
15.5994 10.039
15.6146 9.916
15.6298 9.685
15.6449 9.929
15.6601 9.858
15.6753 9.692
15.6905 9.932
15.7056 9.693
15.7208 9.747
15.7360 9.841
15.7512 9.951
15.7663 9.599
15.7815 9.587
15.7967 9.785
15.8119 9.856
15.8270 9.549
15.8422 9.797
15.8574 9.832
15.8726 9.395
15.8877 9.484
15.9029 9.542
15.9181 9.480
15.9333 9.806
15.9484 9.406
15.9636 9.486
15.9788 9.792
15.9940 9.583
16.0091 9.592
16.0243 9.734
16.0395 9.617
16.0547 9.678
16.0698 9.634
16.0850 9.794
16.1002 9.728
16.1154 9.460
16.1305 9.438
16.1457 9.510
16.1609 9.382
16.1761 9.505
16.1912 9.469
16.2064 9.597
16.2216 9.408
16.2368 9.430
16.2519 9.526
16.2671 9.937
16.2823 9.649
16.2975 9.830
16.3126 9.664
16.3278 9.660
16.3430 9.603
16.3582 9.743
16.3733 9.835
16.3885 9.754
16.4037 9.955
16.4189 9.898
16.4340 9.714
16.4492 9.713
16.4644 9.656
16.4796 9.660
16.4947 9.638
16.5099 9.555
16.5251 9.499
16.5403 9.824
16.5554 9.748
16.5706 9.355
16.5858 9.540
16.6010 9.579
16.6161 9.491
16.6313 9.684
16.6465 9.577
16.6617 9.632
16.6768 9.874
16.6920 9.795
16.7072 9.742
16.7224 10.015
16.7375 9.895
16.7527 10.084
16.7679 10.039
16.7831 9.871
16.7982 10.124
16.8134 9.941
16.8286 9.798
16.8438 9.751
16.8589 9.964
16.8741 9.961
16.8893 9.724
16.9045 9.501
16.9196 9.598
16.9348 9.764
16.9500 9.699
16.9652 9.831
16.9803 10.045
16.9955 10.019
17.0107 9.986
17.0259 9.876
17.0410 9.845
17.0562 10.082
17.0714 10.264
17.0866 10.364
17.1017 10.431
17.1169 10.474
17.1321 10.676
17.1473 10.946
17.1624 11.715
17.1776 12.417
17.1928 13.008
17.2080 13.654
17.2231 14.698
17.2383 16.234
17.2535 17.641
17.2687 18.670
17.2838 18.863
17.2990 18.097
17.3142 17.073
17.3294 16.512
17.3445 16.226
17.3597 16.206
17.3749 16.029
17.3901 15.110
17.4052 14.274
17.4204 13.712
17.4356 12.759
17.4508 12.044
17.4659 11.889
17.4811 11.759
17.4963 11.653
17.5115 11.499
17.5266 11.180
17.5418 11.013
17.5570 10.937
17.5722 10.802
17.5873 11.012
17.6025 11.180
17.6177 11.175
17.6329 11.302
17.6480 11.366
17.6632 11.470
17.6784 11.590
17.6936 11.520
17.7087 11.332
17.7239 11.185
17.7391 11.142
17.7543 11.061
17.7694 10.880
17.7846 10.676
17.7998 10.594
17.8150 10.548
17.8301 10.500
17.8453 10.517
17.8605 10.198
17.8757 10.385
17.8908 10.412
17.9060 10.155
17.9212 10.313
17.9364 10.127
17.9515 10.047
17.9667 10.083
17.9819 10.052
17.9971 10.183
18.0122 10.163
18.0274 10.112
18.0426 10.041
18.0578 9.964
18.0729 9.910
18.0881 10.045
18.1033 10.085
18.1185 9.992
18.1336 10.103
18.1488 10.138
18.1640 10.073
18.1792 9.913
18.1943 10.033
18.2095 10.081
18.2247 9.821
18.2399 9.898
18.2550 10.054
18.2702 9.820
18.2854 9.986
18.3006 10.134
18.3157 9.699
18.3309 9.830
18.3461 9.773
18.3613 9.783
18.3764 9.831
18.3916 9.811
18.4068 9.813
18.4220 9.636
18.4371 9.731
18.4523 9.790
18.4675 9.818
18.4827 9.820
18.4978 9.788
18.5130 9.857
18.5282 9.773
18.5434 9.835
18.5585 9.873
18.5737 9.867
18.5889 9.804
18.6041 9.758
18.6192 10.062
18.6344 9.900
18.6496 9.931
18.6648 9.869
18.6799 9.646
18.6951 9.564
18.7103 9.725
18.7255 9.778
18.7406 9.865
18.7558 10.039
18.7710 9.889
18.7862 9.775
18.8013 9.778
18.8165 9.847
18.8317 9.867
18.8469 9.956
18.8620 10.120
18.8772 10.205
18.8924 10.149
18.9076 10.196
18.9227 10.194
18.9379 9.999
18.9531 10.048
18.9683 10.072
18.9834 10.123
18.9986 10.300
19.0138 10.415
19.0290 10.452
19.0441 10.309
19.0593 10.276
19.0745 10.216
19.0897 10.294
19.1048 10.609
19.1200 10.586
19.1352 10.453
19.1504 10.539
19.1655 10.709
19.1807 10.695
19.1959 10.641
19.2111 10.565
19.2262 10.591
19.2414 10.689
19.2566 10.778
19.2718 10.984
19.2869 11.093
19.3021 11.122
19.3173 11.028
19.3325 11.046
19.3476 11.213
19.3628 10.920
19.3780 11.081
19.3932 11.386
19.4083 11.264
19.4235 11.323
19.4387 11.509
19.4539 11.379
19.4690 11.271
19.4842 11.301
19.4994 11.349
19.5146 11.435
19.5297 11.471
19.5449 11.556
19.5601 11.499
19.5753 11.687
19.5904 11.754
19.6056 11.594
19.6208 11.654
19.6360 11.735
19.6511 11.638
19.6663 11.712
19.6815 11.748
19.6967 11.507
19.7118 11.492
19.7270 11.774
19.7422 11.834
19.7574 11.842
19.7725 11.665
19.7877 11.585
19.8029 11.853
19.8180 12.125
19.8332 12.124
19.8484 12.353
19.8636 12.643
19.8787 12.750
19.8939 12.910
19.9091 12.939
19.9243 13.404
19.9394 13.998
19.9546 14.133
19.9698 14.262
19.9850 14.394
20.0001 14.575
20.0153 14.403
20.0305 14.055
20.0457 13.931
20.0608 13.943
20.0760 13.986
20.0912 13.766
20.1064 13.528
20.1215 13.595
20.1367 13.635
20.1519 13.395
20.1671 12.956
20.1822 12.836
20.1974 12.766
20.2126 12.887
20.2278 12.896
20.2429 12.565
20.2581 12.262
20.2733 12.041
20.2885 11.861
20.3036 11.940
20.3188 11.991
20.3340 12.296
20.3492 12.481
20.3643 12.418
20.3795 11.975
20.3947 11.853
20.4099 11.791
20.4250 11.696
20.4402 11.880
20.4554 11.874
20.4706 11.812
20.4857 11.937
20.5009 11.778
20.5161 11.863
20.5313 11.794
20.5464 11.525
20.5616 11.476
20.5768 11.281
20.5920 11.183
20.6071 11.269
20.6223 11.185
20.6375 10.776
20.6527 10.760
20.6678 10.825
20.6830 10.645
20.6982 10.522
20.7134 10.792
20.7285 10.430
20.7437 10.405
20.7589 10.429
20.7741 10.464
20.7892 10.456
20.8044 10.332
20.8196 10.246
20.8348 10.541
20.8499 10.458
20.8651 10.344
20.8803 10.272
20.8955 10.233
20.9106 9.915
20.9258 10.183
20.9410 9.969
20.9562 10.074
20.9713 10.103
20.9865 9.849
21.0017 10.136
21.0169 10.061
21.0320 10.139
21.0472 9.658
21.0624 9.727
21.0776 9.689
21.0927 9.943
21.1079 9.994
21.1231 9.765
21.1383 9.830
21.1534 9.808
21.1686 9.757
21.1838 9.751
21.1990 9.847
21.2141 9.669
21.2293 9.946
21.2445 9.605
21.2597 9.843
21.2748 9.753
21.2900 9.667
21.3052 9.430
21.3204 9.403
21.3355 9.579
21.3507 9.600
21.3659 9.447
21.3811 9.650
21.3962 9.899
21.4114 9.437
21.4266 9.389
21.4418 9.416
21.4569 9.214
21.4721 9.519
21.4873 9.147
21.5025 9.140
21.5176 9.330
21.5328 9.234
21.5480 9.336
21.5632 9.208
21.5783 9.181
21.5935 9.034
21.6087 9.086
21.6239 9.146
21.6390 9.309
21.6542 8.956
21.6694 9.037
21.6846 9.159
21.6997 9.100
21.7149 9.314
21.7301 9.179
21.7453 9.132
21.7604 9.054
21.7756 8.954
21.7908 8.916
21.8060 9.033
21.8211 8.989
21.8363 8.937
21.8515 8.920
21.8667 9.060
21.8818 9.167
21.8970 9.084
21.9122 9.193
21.9274 9.256
21.9425 9.202
21.9577 8.990
21.9729 8.742
21.9881 9.006
22.0032 8.876
22.0184 8.618
22.0336 8.794
22.0488 8.916
22.0639 8.954
22.0791 8.921
22.0943 8.772
22.1095 8.637
22.1246 8.642
22.1398 8.548
22.1550 8.411
22.1702 8.527
22.1853 8.614
22.2005 8.431
22.2157 8.458
22.2309 8.468
22.2460 8.401
22.2612 8.550
22.2764 8.623
22.2916 8.393
22.3067 8.550
22.3219 8.572
22.3371 8.419
22.3523 8.393
22.3674 8.377
22.3826 8.422
22.3978 8.336
22.4130 8.190
22.4281 8.462
22.4433 8.224
22.4585 8.490
22.4737 8.569
22.4888 8.453
22.5040 8.309
22.5192 8.481
22.5344 8.689
22.5495 8.515
22.5647 8.370
22.5799 8.319
22.5951 8.230
22.6102 8.244
22.6254 8.586
22.6406 8.398
22.6558 8.225
22.6709 8.220
22.6861 8.180
22.7013 8.255
22.7165 7.754
22.7316 6.228
