'Id: "" Comment: "" Operator: "Lab Manager" Anode: "Mo" Scantype: "Still (Eiger2R_500K (1D mode))" TimePerStep: "300" X: "11.8" Y: "9.4" Z: "11.284" 
7.2532 18.740
7.2684 18.809
7.2836 19.420
7.2987 18.998
7.3139 18.959
7.3291 19.197
7.3443 19.003
7.3594 19.401
7.3746 19.198
7.3898 19.186
7.4050 19.283
7.4201 19.434
7.4353 19.433
7.4505 19.586
7.4657 19.886
7.4808 19.904
7.4960 19.838
7.5112 19.800
7.5264 19.708
7.5415 19.688
7.5567 19.522
7.5719 20.257
7.5871 20.464
7.6022 20.304
7.6174 20.066
7.6326 20.242
7.6478 20.027
7.6629 20.222
7.6781 20.368
7.6933 20.512
7.7085 20.622
7.7236 20.415
7.7388 20.428
7.7540 20.586
7.7692 20.729
7.7843 20.764
7.7995 20.895
7.8147 20.838
7.8299 20.678
7.8450 20.792
7.8602 21.069
7.8754 20.804
7.8905 20.539
7.9057 21.037
7.9209 21.156
7.9361 20.903
7.9512 20.733
7.9664 20.891
7.9816 20.827
7.9968 20.945
8.0119 21.279
8.0271 21.054
8.0423 21.202
8.0575 21.367
8.0726 21.622
8.0878 21.228
8.1030 21.071
8.1182 20.728
8.1333 21.031
8.1485 21.303
8.1637 21.380
8.1789 21.341
8.1940 21.408
8.2092 21.281
8.2244 21.417
8.2396 21.314
8.2547 21.183
8.2699 21.261
8.2851 21.413
8.3003 21.379
8.3154 21.489
8.3306 21.988
8.3458 21.647
8.3610 21.799
8.3761 21.740
8.3913 21.769
8.4065 21.695
8.4217 21.498
8.4368 21.881
8.4520 22.183
8.4672 21.999
8.4824 22.494
8.4975 21.746
8.5127 21.852
8.5279 22.034
8.5431 22.410
8.5582 22.209
8.5734 21.888
8.5886 22.286
8.6038 22.138
8.6189 22.507
8.6341 22.602
8.6493 22.291
8.6645 22.085
8.6796 22.290
8.6948 22.452
8.7100 22.105
8.7252 22.770
8.7403 22.605
8.7555 21.994
8.7707 22.495
8.7859 22.200
8.8010 21.803
8.8162 22.858
8.8314 22.532
8.8466 22.398
8.8617 22.189
8.8769 22.302
8.8921 22.410
8.9073 22.938
8.9224 22.758
8.9376 22.496
8.9528 22.439
8.9680 22.708
8.9831 22.857
8.9983 22.982
9.0135 22.685
9.0287 22.853
9.0438 23.139
9.0590 22.962
9.0742 22.867
9.0894 23.092
9.1045 23.346
9.1197 22.864
9.1349 23.144
9.1501 22.832
9.1652 22.739
9.1804 23.002
9.1956 22.857
9.2108 22.742
9.2259 22.928
9.2411 22.704
9.2563 22.763
9.2715 23.034
9.2866 22.850
9.3018 22.906
9.3170 23.113
9.3322 23.014
9.3473 22.854
9.3625 22.774
9.3777 22.934
9.3929 23.523
9.4080 23.113
9.4232 22.859
9.4384 23.057
9.4536 23.165
9.4687 23.175
9.4839 23.173
9.4991 23.031
9.5143 22.993
9.5294 22.951
9.5446 23.006
9.5598 23.468
9.5750 23.228
9.5901 23.149
9.6053 23.368
9.6205 23.208
9.6357 23.529
9.6508 23.460
9.6660 23.320
9.6812 23.492
9.6964 23.693
9.7115 23.750
9.7267 23.907
9.7419 24.218
9.7571 24.168
9.7722 23.752
9.7874 23.820
9.8026 24.181
9.8178 23.772
9.8329 23.446
9.8481 23.211
9.8633 23.221
9.8785 23.636
9.8936 23.398
9.9088 23.004
9.9240 23.093
9.9392 22.940
9.9543 22.849
9.9695 23.255
9.9847 23.424
9.9999 23.544
10.0150 23.673
10.0302 23.669
10.0454 23.526
10.0606 23.690
10.0757 23.560
10.0909 23.647
10.1061 23.351
10.1213 23.619
10.1364 23.881
10.1516 23.634
10.1668 23.488
10.1820 23.341
10.1971 23.015
10.2123 23.186
10.2275 23.138
10.2427 22.807
10.2578 23.112
10.2730 22.968
10.2882 22.833
10.3034 22.663
10.3185 22.497
10.3337 22.448
10.3489 22.493
10.3641 22.636
10.3792 22.545
10.3944 22.794
10.4096 22.816
10.4248 22.597
10.4399 22.538
10.4551 22.705
10.4703 23.007
10.4855 22.949
10.5006 22.831
10.5158 22.910
10.5310 22.720
10.5462 22.410
10.5613 22.859
10.5765 22.966
10.5917 22.565
10.6069 22.607
10.6220 22.374
10.6372 22.311
10.6524 22.250
10.6676 22.571
10.6827 22.872
10.6979 22.506
10.7131 22.002
10.7283 22.018
10.7434 22.158
10.7586 22.228
10.7738 22.360
10.7890 22.329
10.8041 22.501
10.8193 22.297
10.8345 22.040
10.8497 22.190
10.8648 22.346
10.8800 22.399
10.8952 22.301
10.9104 22.176
10.9255 22.121
10.9407 22.513
10.9559 22.146
10.9711 22.065
10.9862 22.029
11.0014 22.318
11.0166 22.225
11.0318 22.363
11.0469 21.980
11.0621 21.816
11.0773 21.919
11.0925 22.089
11.1076 22.072
11.1228 21.817
11.1380 21.816
11.1532 21.831
11.1683 21.609
11.1835 21.485
11.1987 21.478
11.2139 21.671
11.2290 21.596
11.2442 21.500
11.2594 21.474
11.2746 21.618
11.2897 21.598
11.3049 21.182
11.3201 21.529
11.3353 21.367
11.3504 21.428
11.3656 21.885
11.3808 21.637
11.3960 21.546
11.4111 21.572
11.4263 21.555
11.4415 21.630
11.4567 21.513
11.4718 21.091
11.4870 21.208
11.5022 21.081
11.5174 20.945
11.5325 20.649
11.5477 20.778
11.5629 20.930
11.5781 21.110
11.5932 20.793
11.6084 20.665
11.6236 20.722
11.6388 21.021
11.6539 20.971
11.6691 20.901
11.6843 20.612
11.6995 20.493
11.7146 20.241
11.7298 20.666
11.7450 20.458
11.7602 20.113
11.7753 20.150
11.7905 20.384
11.8057 20.182
11.8209 19.992
11.8360 20.068
11.8512 19.990
11.8664 19.879
11.8816 19.806
11.8967 19.961
11.9119 19.578
11.9271 19.265
11.9423 18.965
11.9574 19.148
11.9726 19.367
11.9878 19.456
12.0030 19.243
12.0181 19.140
12.0333 19.210
12.0485 19.341
12.0637 19.288
12.0788 19.135
12.0940 18.950
12.1092 18.836
12.1244 18.851
12.1395 18.606
12.1547 18.614
12.1699 18.374
12.1851 18.385
12.2002 18.406
12.2154 18.378
12.2306 18.242
12.2458 18.327
12.2609 18.103
12.2761 17.973
12.2913 18.059
12.3065 17.942
12.3216 17.870
12.3368 17.928
12.3520 17.533
12.3672 17.404
12.3823 17.671
12.3975 17.128
12.4127 16.949
12.4279 17.046
12.4430 16.912
12.4582 16.997
12.4734 16.862
12.4886 16.705
12.5037 16.302
12.5189 16.526
12.5341 16.427
12.5493 16.142
12.5644 16.238
12.5796 16.443
12.5948 16.417
12.6100 16.450
12.6251 16.396
12.6403 16.024
12.6555 15.960
12.6707 15.843
12.6858 15.842
12.7010 15.791
12.7162 15.643
12.7314 15.437
12.7465 15.262
12.7617 15.309
12.7769 15.348
12.7921 15.157
12.8072 15.064
12.8224 15.353
12.8376 15.290
12.8528 15.100
12.8679 15.046
12.8831 15.006
12.8983 14.977
12.9135 14.737
12.9286 14.694
12.9438 14.766
12.9590 14.592
12.9742 14.591
12.9893 14.640
13.0045 14.596
13.0197 14.205
13.0349 13.901
13.0500 14.011
13.0652 14.191
13.0804 14.268
13.0956 14.180
13.1107 14.059
13.1259 13.947
13.1411 13.773
13.1563 13.551
13.1714 13.573
13.1866 13.471
13.2018 13.171
13.2170 13.095
13.2321 13.205
13.2473 13.363
13.2625 13.418
13.2777 13.550
13.2928 13.564
13.3080 13.277
13.3232 13.015
13.3384 12.942
13.3535 13.120
13.3687 13.236
13.3839 13.241
13.3991 13.240
13.4142 13.164
13.4294 13.109
13.4446 12.905
13.4598 12.733
13.4749 12.835
13.4901 12.719
13.5053 12.573
13.5205 12.604
13.5356 12.586
13.5508 12.554
13.5660 12.575
13.5812 12.330
13.5963 12.105
13.6115 12.175
13.6267 12.384
13.6419 12.365
13.6570 12.184
13.6722 12.198
13.6874 12.238
13.7026 11.956
13.7177 12.174
13.7329 12.266
13.7481 12.275
13.7633 12.152
13.7784 12.081
13.7936 12.036
13.8088 11.935
13.8239 11.977
13.8391 12.239
13.8543 12.416
13.8695 12.333
13.8846 12.022
13.8998 11.928
13.9150 11.869
13.9302 11.900
13.9453 11.870
13.9605 11.952
13.9757 11.803
13.9909 11.857
14.0060 11.767
14.0212 11.362
14.0364 11.392
14.0516 11.580
14.0667 11.491
14.0819 11.381
14.0971 11.236
14.1123 11.409
14.1274 11.530
14.1426 11.508
14.1578 11.573
14.1730 11.660
14.1881 11.921
14.2033 12.115
14.2185 11.581
14.2337 11.895
14.2488 12.035
14.2640 12.033
14.2792 12.099
14.2944 12.309
14.3095 12.566
14.3247 12.691
14.3399 12.495
14.3551 12.671
14.3702 13.260
14.3854 13.292
14.4006 13.277
14.4158 13.655
14.4309 13.231
14.4461 12.940
14.4613 12.690
14.4765 12.465
14.4916 12.397
14.5068 12.155
14.5220 11.901
14.5372 11.522
14.5523 11.275
14.5675 11.241
14.5827 11.172
14.5979 10.929
14.6130 10.748
14.6282 10.996
14.6434 10.938
14.6586 10.719
14.6737 11.196
14.6889 10.824
14.7041 11.055
14.7193 10.750
14.7344 10.626
14.7496 10.529
14.7648 10.716
14.7800 10.632
14.7951 10.758
14.8103 10.633
14.8255 11.012
14.8407 10.781
14.8558 10.472
14.8710 10.315
14.8862 10.600
14.9014 10.411
14.9165 10.502
14.9317 10.685
14.9469 10.662
14.9621 10.724
14.9772 10.337
14.9924 9.915
15.0076 10.490
15.0228 10.649
15.0379 10.706
15.0531 10.408
15.0683 10.466
15.0835 10.264
15.0986 10.275
15.1138 10.246
15.1290 10.318
15.1442 10.086
15.1593 10.385
15.1745 10.229
15.1897 9.870
15.2049 10.337
15.2200 10.181
15.2352 10.429
15.2504 10.225
15.2656 10.158
15.2807 10.290
15.2959 10.098
15.3111 10.104
15.3263 10.075
15.3414 10.059
15.3566 10.122
15.3718 10.128
15.3870 10.378
15.4021 10.409
15.4173 10.100
15.4325 10.103
15.4477 10.367
15.4628 10.311
15.4780 10.495
15.4932 10.106
15.5084 10.250
15.5235 10.307
15.5387 9.939
15.5539 9.854
15.5691 9.477
15.5842 10.098
15.5994 9.867
15.6146 10.025
15.6298 9.616
15.6449 9.708
15.6601 9.757
15.6753 9.979
15.6905 9.736
15.7056 9.953
15.7208 10.134
15.7360 9.959
15.7512 9.820
15.7663 9.885
15.7815 9.880
15.7967 9.690
15.8119 9.514
15.8270 9.872
15.8422 9.903
15.8574 9.549
15.8726 9.820
15.8877 9.860
15.9029 9.877
15.9181 9.499
15.9333 9.511
15.9484 9.669
15.9636 9.706
15.9788 9.594
15.9940 9.639
16.0091 9.872
16.0243 9.676
16.0395 9.486
16.0547 9.599
16.0698 9.586
16.0850 9.629
16.1002 9.587
16.1154 9.661
16.1305 9.353
16.1457 9.451
16.1609 9.712
16.1761 9.744
16.1912 9.811
16.2064 9.893
16.2216 9.721
16.2368 9.635
16.2519 9.718
16.2671 10.008
16.2823 10.172
16.2975 9.597
16.3126 9.795
16.3278 9.867
16.3430 9.885
16.3582 9.917
16.3733 9.870
16.3885 10.033
16.4037 9.838
16.4189 9.660
16.4340 9.435
16.4492 9.590
16.4644 9.737
16.4796 9.778
16.4947 9.552
16.5099 9.801
16.5251 9.814
16.5403 9.867
16.5554 9.834
16.5706 9.673
16.5858 9.636
16.6010 9.554
16.6161 9.396
16.6313 9.430
16.6465 9.629
16.6617 9.792
16.6768 9.887
16.6920 9.797
16.7072 9.740
16.7224 9.813
16.7375 9.766
16.7527 9.704
16.7679 9.607
16.7831 9.555
16.7982 9.683
16.8134 10.086
16.8286 10.207
16.8438 10.154
16.8589 9.986
16.8741 10.020
16.8893 10.082
16.9045 9.825
16.9196 9.949
16.9348 9.916
16.9500 9.801
16.9652 9.764
16.9803 9.872
16.9955 9.938
17.0107 9.933
17.0259 9.945
17.0410 10.168
17.0562 10.375
17.0714 10.298
17.0866 10.185
17.1017 10.353
17.1169 10.546
17.1321 10.831
17.1473 11.278
17.1624 11.672
17.1776 12.089
17.1928 12.963
17.2080 13.940
17.2231 14.947
17.2383 16.135
17.2535 17.526
17.2687 18.680
17.2838 18.641
17.2990 17.895
17.3142 17.132
17.3294 16.394
17.3445 15.883
17.3597 15.903
17.3749 15.892
17.3901 15.325
17.4052 14.251
17.4204 13.324
17.4356 12.388
17.4508 11.621
17.4659 11.654
17.4811 11.719
17.4963 11.550
17.5115 11.241
17.5266 11.075
17.5418 11.175
17.5570 11.310
17.5722 11.265
17.5873 11.352
17.6025 11.405
17.6177 11.284
17.6329 11.365
17.6480 11.446
17.6632 11.568
17.6784 11.834
17.6936 11.707
17.7087 11.388
17.7239 11.305
17.7391 11.116
17.7543 11.019
17.7694 11.054
17.7846 11.027
17.7998 10.904
17.8150 10.634
17.8301 10.486
17.8453 10.286
17.8605 10.070
17.8757 10.277
17.8908 10.445
17.9060 10.288
17.9212 10.275
17.9364 10.075
17.9515 10.102
17.9667 10.117
17.9819 10.316
17.9971 10.406
18.0122 10.285
18.0274 10.238
18.0426 10.237
18.0578 10.236
18.0729 10.166
18.0881 10.125
18.1033 9.967
18.1185 9.946
18.1336 9.937
18.1488 9.800
18.1640 9.873
18.1792 9.932
18.1943 9.829
18.2095 9.768
18.2247 9.847
18.2399 9.833
18.2550 9.782
18.2702 9.786
18.2854 9.835
18.3006 9.840
18.3157 9.962
18.3309 10.000
18.3461 9.967
18.3613 9.815
18.3764 9.636
18.3916 9.760
18.4068 9.872
18.4220 9.850
18.4371 9.724
18.4523 9.770
18.4675 9.725
18.4827 9.840
18.4978 9.970
18.5130 9.792
18.5282 9.711
18.5434 9.721
18.5585 9.681
18.5737 9.747
18.5889 9.594
18.6041 9.643
18.6192 9.621
18.6344 9.587
18.6496 9.771
18.6648 9.948
18.6799 9.897
18.6951 9.832
18.7103 9.870
18.7255 10.014
18.7406 9.865
18.7558 9.790
18.7710 9.929
18.7862 9.968
18.8013 9.585
18.8165 9.503
18.8317 9.745
18.8469 9.847
18.8620 9.831
18.8772 9.963
18.8924 9.876
18.9076 9.943
18.9227 10.046
18.9379 10.042
18.9531 10.070
18.9683 10.058
18.9834 10.134
18.9986 10.104
19.0138 10.017
19.0290 9.940
19.0441 10.054
19.0593 10.304
19.0745 10.380
19.0897 10.135
19.1048 10.047
19.1200 10.253
19.1352 10.285
19.1504 10.308
19.1655 10.479
19.1807 10.529
19.1959 10.566
19.2111 10.545
19.2262 10.445
19.2414 10.585
19.2566 10.609
19.2718 10.590
19.2869 10.801
19.3021 10.865
19.3173 10.859
19.3325 11.030
19.3476 11.076
19.3628 10.958
19.3780 11.115
19.3932 11.395
19.4083 11.296
19.4235 11.296
19.4387 11.261
19.4539 11.138
19.4690 11.237
19.4842 11.433
19.4994 11.418
19.5146 11.421
19.5297 11.455
19.5449 11.583
19.5601 11.694
19.5753 11.844
19.5904 11.738
19.6056 11.585
19.6208 11.703
19.6360 11.555
19.6511 11.536
19.6663 11.507
19.6815 11.466
19.6967 11.684
19.7118 11.878
19.7270 11.964
19.7422 11.876
19.7574 11.787
19.7725 11.806
19.7877 11.814
19.8029 12.165
19.8180 12.269
19.8332 12.031
19.8484 12.064
19.8636 12.314
19.8787 12.802
19.8939 12.851
19.9091 12.921
19.9243 13.372
19.9394 13.929
19.9546 14.414
19.9698 14.241
19.9850 14.233
20.0001 14.437
20.0153 14.087
20.0305 13.973
20.0457 13.887
20.0608 13.640
20.0760 13.795
20.0912 13.804
20.1064 13.667
20.1215 13.531
20.1367 13.160
20.1519 13.109
20.1671 13.065
20.1822 12.944
20.1974 12.850
20.2126 12.565
20.2278 12.529
20.2429 12.557
20.2581 12.350
20.2733 11.904
20.2885 11.834
20.3036 12.128
20.3188 12.211
20.3340 12.228
20.3492 11.891
20.3643 11.859
20.3795 12.060
20.3947 12.193
20.4099 11.861
20.4250 11.989
20.4402 11.918
20.4554 11.918
20.4706 11.873
20.4857 11.585
20.5009 11.803
20.5161 11.733
20.5313 11.444
20.5464 11.413
20.5616 11.502
20.5768 11.383
20.5920 11.080
20.6071 11.111
20.6223 11.030
20.6375 10.767
20.6527 10.775
20.6678 10.675
20.6830 10.764
20.6982 10.587
20.7134 10.431
20.7285 10.696
20.7437 10.382
20.7589 10.434
20.7741 10.065
20.7892 10.136
20.8044 10.423
20.8196 10.469
20.8348 10.535
20.8499 10.305
20.8651 10.183
20.8803 10.453
20.8955 10.109
20.9106 10.090
20.9258 10.307
20.9410 10.122
20.9562 10.165
20.9713 10.312
20.9865 9.992
21.0017 10.132
21.0169 10.317
21.0320 10.183
21.0472 9.916
21.0624 9.800
21.0776 10.336
21.0927 9.631
21.1079 9.742
21.1231 9.699
21.1383 10.131
21.1534 10.084
21.1686 9.381
21.1838 9.551
21.1990 10.143
21.2141 9.589
21.2293 9.862
21.2445 9.833
21.2597 9.938
21.2748 9.681
21.2900 9.616
21.3052 9.587
21.3204 9.680
21.3355 9.638
21.3507 9.462
21.3659 9.471
21.3811 9.922
21.3962 9.534
21.4114 9.571
21.4266 9.384
21.4418 9.327
21.4569 9.419
21.4721 9.318
21.4873 9.281
21.5025 9.516
21.5176 9.422
21.5328 9.383
21.5480 9.288
21.5632 9.283
21.5783 9.468
21.5935 9.242
21.6087 9.255
21.6239 9.480
21.6390 9.464
21.6542 9.088
21.6694 8.959
21.6846 8.929
21.6997 9.012
21.7149 9.227
21.7301 9.034
21.7453 8.872
21.7604 8.959
21.7756 9.144
21.7908 8.991
21.8060 9.371
21.8211 9.281
21.8363 9.182
21.8515 9.137
21.8667 9.139
21.8818 8.889
21.8970 8.939
21.9122 9.152
21.9274 8.946
21.9425 8.662
21.9577 8.616
21.9729 8.999
21.9881 9.108
22.0032 8.934
22.0184 8.811
22.0336 8.875
22.0488 9.019
22.0639 8.813
22.0791 8.632
22.0943 8.700
22.1095 8.760
22.1246 8.793
22.1398 8.613
22.1550 8.321
22.1702 8.392
22.1853 8.485
22.2005 8.518
22.2157 8.474
22.2309 8.634
22.2460 8.674
22.2612 8.727
22.2764 8.585
22.2916 8.456
22.3067 8.372
22.3219 8.416
22.3371 8.515
22.3523 8.682
22.3674 8.612
22.3826 8.303
22.3978 8.110
22.4130 8.315
22.4281 8.612
22.4433 8.776
22.4585 8.433
22.4737 8.466
22.4888 8.330
22.5040 8.528
22.5192 8.512
22.5344 8.293
22.5495 8.445
22.5647 8.686
22.5799 8.355
22.5951 8.616
22.6102 8.603
22.6254 8.490
22.6406 8.627
22.6558 8.447
22.6709 8.193
22.6861 8.318
22.7013 8.152
22.7165 8.236
22.7316 6.290
