'Id: "" Comment: "" Operator: "Lab Manager" Anode: "Mo" Scantype: "Still (Eiger2R_500K (1D mode))" TimePerStep: "300" X: "11.8" Y: "9.4" Z: "11.284" 
7.2532 18.889
7.2684 18.946
7.2836 18.838
7.2987 19.234
7.3139 18.813
7.3291 19.696
7.3443 19.291
7.3594 19.634
7.3746 19.308
7.3898 19.198
7.4050 19.323
7.4201 19.406
7.4353 19.441
7.4505 19.563
7.4657 19.668
7.4808 19.769
7.4960 19.518
7.5112 19.927
7.5264 20.089
7.5415 19.774
7.5567 19.632
7.5719 19.961
7.5871 19.794
7.6022 20.081
7.6174 20.131
7.6326 19.875
7.6478 20.366
7.6629 20.501
7.6781 20.321
7.6933 20.307
7.7085 20.514
7.7236 20.525
7.7388 20.361
7.7540 20.386
7.7692 20.415
7.7843 20.496
7.7995 20.522
7.8147 20.863
7.8299 21.068
7.8450 21.112
7.8602 21.110
7.8754 20.882
7.8905 20.843
7.9057 20.992
7.9209 20.968
7.9361 20.912
7.9512 21.197
7.9664 21.458
7.9816 21.369
7.9968 21.197
8.0119 21.015
8.0271 21.211
8.0423 21.329
8.0575 21.288
8.0726 21.226
8.0878 21.067
8.1030 21.263
8.1182 21.650
8.1333 21.676
8.1485 21.518
8.1637 21.369
8.1789 21.438
8.1940 21.628
8.2092 21.343
8.2244 21.572
8.2396 21.707
8.2547 21.770
8.2699 21.719
8.2851 21.752
8.3003 21.652
8.3154 22.266
8.3306 21.627
8.3458 21.890
8.3610 21.889
8.3761 22.016
8.3913 21.883
8.4065 21.919
8.4217 21.835
8.4368 21.575
8.4520 22.057
8.4672 22.386
8.4824 21.792
8.4975 22.152
8.5127 22.290
8.5279 21.843
8.5431 22.159
8.5582 22.117
8.5734 22.186
8.5886 22.114
8.6038 22.151
8.6189 22.695
8.6341 22.330
8.6493 22.533
8.6645 22.590
8.6796 22.575
8.6948 22.023
8.7100 22.616
8.7252 23.078
8.7403 22.926
8.7555 23.052
8.7707 22.748
8.7859 22.818
8.8010 22.799
8.8162 22.886
8.8314 22.484
8.8466 22.740
8.8617 22.886
8.8769 22.894
8.8921 22.592
8.9073 22.428
8.9224 22.813
8.9376 22.769
8.9528 22.781
8.9680 22.673
8.9831 22.917
8.9983 22.672
9.0135 22.697
9.0287 22.617
9.0438 23.094
9.0590 22.916
9.0742 22.820
9.0894 22.768
9.1045 22.732
9.1197 22.681
9.1349 22.777
9.1501 22.992
9.1652 23.148
9.1804 22.938
9.1956 23.058
9.2108 22.880
9.2259 23.163
9.2411 23.348
9.2563 23.064
9.2715 23.043
9.2866 22.928
9.3018 23.222
9.3170 23.495
9.3322 23.198
9.3473 23.095
9.3625 22.984
9.3777 23.078
9.3929 23.504
9.4080 23.254
9.4232 23.146
9.4384 23.440
9.4536 23.271
9.4687 23.234
9.4839 23.031
9.4991 23.199
9.5143 23.080
9.5294 23.072
9.5446 23.397
9.5598 23.543
9.5750 23.521
9.5901 23.461
9.6053 23.541
9.6205 23.272
9.6357 23.469
9.6508 23.644
9.6660 23.543
9.6812 23.663
9.6964 23.616
9.7115 23.797
9.7267 24.081
9.7419 24.341
9.7571 24.161
9.7722 23.645
9.7874 23.898
9.8026 23.952
9.8178 23.438
9.8329 23.413
9.8481 23.249
9.8633 23.097
9.8785 23.419
9.8936 23.387
9.9088 23.351
9.9240 23.211
9.9392 23.349
9.9543 23.404
9.9695 23.553
9.9847 23.594
9.9999 23.761
10.0150 23.898
10.0302 23.702
10.0454 23.656
10.0606 23.732
10.0757 23.964
10.0909 23.724
10.1061 23.491
10.1213 23.899
10.1364 24.172
10.1516 23.977
10.1668 23.835
10.1820 24.063
10.1971 24.231
10.2123 24.254
10.2275 24.076
10.2427 23.964
10.2578 24.272
10.2730 24.379
10.2882 24.202
10.3034 23.261
10.3185 23.022
10.3337 23.275
10.3489 23.220
10.3641 23.126
10.3792 23.364
10.3944 22.870
10.4096 22.846
10.4248 23.130
10.4399 22.973
10.4551 22.759
10.4703 22.721
10.4855 22.798
10.5006 22.560
10.5158 22.465
10.5310 22.811
10.5462 22.932
10.5613 22.914
10.5765 22.680
10.5917 22.779
10.6069 22.729
10.6220 22.732
10.6372 23.088
10.6524 22.665
10.6676 22.859
10.6827 22.789
10.6979 22.708
10.7131 22.600
10.7283 22.044
10.7434 22.432
10.7586 22.329
10.7738 22.426
10.7890 22.575
10.8041 22.078
10.8193 21.992
10.8345 22.353
10.8497 22.749
10.8648 22.382
10.8800 21.986
10.8952 22.038
10.9104 22.284
10.9255 21.894
10.9407 21.902
10.9559 21.904
10.9711 21.964
10.9862 21.955
11.0014 21.965
11.0166 22.094
11.0318 22.403
11.0469 22.070
11.0621 21.735
11.0773 21.797
11.0925 21.975
11.1076 21.881
11.1228 21.798
11.1380 21.917
11.1532 21.750
11.1683 22.025
11.1835 22.139
11.1987 22.125
11.2139 21.837
11.2290 21.961
11.2442 22.232
11.2594 22.253
11.2746 21.969
11.2897 22.032
11.3049 22.090
11.3201 21.860
11.3353 21.531
11.3504 21.724
11.3656 21.288
11.3808 21.320
11.3960 21.512
11.4111 21.620
11.4263 21.383
11.4415 21.436
11.4567 21.365
11.4718 21.466
11.4870 21.053
11.5022 21.140
11.5174 21.389
11.5325 21.215
11.5477 21.125
11.5629 20.711
11.5781 20.719
11.5932 20.356
11.6084 20.565
11.6236 20.757
11.6388 20.668
11.6539 20.500
11.6691 20.536
11.6843 20.727
11.6995 20.787
11.7146 20.462
11.7298 20.517
11.7450 20.331
11.7602 20.531
11.7753 20.290
11.7905 20.407
11.8057 20.450
11.8209 20.238
11.8360 19.969
11.8512 19.842
11.8664 19.914
11.8816 19.651
11.8967 19.419
11.9119 19.642
11.9271 19.592
11.9423 19.530
11.9574 19.713
11.9726 19.590
11.9878 19.487
12.0030 19.183
12.0181 19.016
12.0333 19.080
12.0485 19.120
12.0637 19.002
12.0788 18.686
12.0940 18.722
12.1092 19.113
12.1244 18.944
12.1395 18.645
12.1547 18.568
12.1699 18.448
12.1851 18.434
12.2002 18.315
12.2154 18.046
12.2306 18.176
12.2458 17.763
12.2609 17.746
12.2761 17.658
12.2913 17.684
12.3065 17.625
12.3216 17.520
12.3368 17.970
12.3520 17.957
12.3672 17.836
12.3823 17.542
12.3975 17.156
12.4127 17.279
12.4279 17.401
12.4430 17.358
12.4582 17.062
12.4734 16.675
12.4886 16.823
12.5037 17.321
12.5189 16.920
12.5341 16.476
12.5493 16.463
12.5644 16.577
12.5796 16.375
12.5948 15.854
12.6100 15.879
12.6251 16.047
12.6403 15.877
12.6555 15.695
12.6707 15.658
12.6858 15.576
12.7010 15.694
12.7162 15.751
12.7314 15.774
12.7465 15.546
12.7617 15.250
12.7769 15.115
12.7921 15.179
12.8072 15.056
12.8224 14.907
12.8376 15.143
12.8528 15.090
12.8679 14.772
12.8831 14.892
12.8983 15.063
12.9135 14.985
12.9286 14.575
12.9438 14.547
12.9590 14.717
12.9742 14.989
12.9893 14.826
13.0045 14.498
13.0197 14.477
13.0349 14.337
13.0500 14.269
13.0652 14.224
13.0804 14.198
13.0956 14.093
13.1107 14.080
13.1259 14.088
13.1411 13.987
13.1563 13.810
13.1714 13.544
13.1866 13.266
13.2018 12.905
13.2170 13.148
13.2321 13.270
13.2473 13.134
13.2625 13.253
13.2777 13.010
13.2928 13.200
13.3080 13.279
13.3232 12.984
13.3384 13.010
13.3535 13.102
13.3687 13.067
13.3839 12.922
13.3991 12.690
13.4142 12.485
13.4294 12.757
13.4446 12.984
13.4598 12.865
13.4749 12.866
13.4901 12.900
13.5053 12.695
13.5205 12.588
13.5356 12.578
13.5508 12.578
13.5660 12.392
13.5812 12.165
13.5963 12.185
13.6115 12.206
13.6267 12.063
13.6419 12.113
13.6570 12.006
13.6722 11.814
13.6874 12.028
13.7026 12.162
13.7177 12.193
13.7329 12.251
13.7481 12.095
13.7633 12.062
13.7784 12.015
13.7936 12.154
13.8088 12.297
13.8239 12.545
13.8391 12.585
13.8543 12.360
13.8695 12.091
13.8846 11.942
13.8998 11.876
13.9150 11.824
13.9302 12.032
13.9453 11.854
13.9605 11.776
13.9757 11.887
13.9909 11.442
14.0060 11.503
14.0212 11.600
14.0364 11.608
14.0516 11.660
14.0667 11.287
14.0819 11.345
14.0971 11.281
14.1123 11.289
14.1274 11.230
14.1426 11.434
14.1578 11.561
14.1730 11.675
14.1881 11.813
14.2033 11.822
14.2185 11.918
14.2337 11.825
14.2488 11.866
14.2640 11.680
14.2792 11.850
14.2944 12.139
14.3095 12.469
14.3247 12.741
14.3399 12.441
14.3551 12.889
14.3702 13.069
14.3854 13.299
14.4006 13.364
14.4158 13.182
14.4309 13.424
14.4461 13.059
14.4613 12.844
14.4765 12.758
14.4916 12.561
14.5068 12.824
14.5220 12.593
14.5372 12.478
14.5523 12.388
14.5675 11.993
14.5827 11.784
14.5979 11.771
14.6130 11.801
14.6282 11.725
14.6434 11.613
14.6586 11.382
14.6737 11.426
14.6889 11.291
14.7041 11.105
14.7193 11.014
14.7344 10.715
14.7496 10.837
14.7648 10.822
14.7800 10.779
14.7951 10.473
14.8103 10.857
14.8255 10.591
14.8407 10.329
14.8558 10.395
14.8710 10.330
14.8862 10.430
14.9014 10.690
14.9165 11.052
14.9317 10.898
14.9469 10.448
14.9621 10.787
14.9772 10.105
14.9924 10.341
15.0076 10.800
15.0228 10.474
15.0379 10.469
15.0531 10.527
15.0683 10.585
15.0835 10.532
15.0986 10.734
15.1138 10.460
15.1290 10.126
15.1442 10.544
15.1593 10.532
15.1745 10.437
15.1897 10.619
15.2049 10.665
15.2200 10.566
15.2352 10.541
15.2504 10.633
15.2656 10.208
15.2807 10.484
15.2959 10.540
15.3111 10.080
15.3263 10.400
15.3414 10.443
15.3566 10.204
15.3718 10.408
15.3870 10.653
15.4021 10.352
15.4173 10.324
15.4325 10.453
15.4477 10.657
15.4628 10.451
15.4780 10.667
15.4932 10.360
15.5084 10.199
15.5235 10.738
15.5387 10.268
15.5539 10.342
15.5691 10.336
15.5842 10.341
15.5994 10.417
15.6146 10.148
15.6298 9.847
15.6449 10.126
15.6601 10.212
15.6753 10.118
15.6905 10.039
15.7056 9.817
15.7208 9.650
15.7360 9.775
15.7512 9.981
15.7663 9.893
15.7815 9.701
15.7967 9.446
15.8119 9.591
15.8270 9.813
15.8422 9.923
15.8574 10.023
15.8726 9.851
15.8877 9.565
15.9029 9.660
15.9181 9.694
15.9333 9.636
15.9484 9.955
15.9636 9.737
15.9788 9.923
15.9940 10.002
16.0091 9.870
16.0243 9.896
16.0395 9.731
16.0547 9.688
16.0698 9.574
16.0850 9.579
16.1002 9.678
16.1154 9.640
16.1305 9.503
16.1457 9.850
16.1609 9.869
16.1761 9.985
16.1912 9.868
16.2064 9.862
16.2216 10.141
16.2368 10.171
16.2519 9.848
16.2671 9.742
16.2823 9.946
16.2975 10.172
16.3126 10.021
16.3278 9.845
16.3430 9.979
16.3582 10.110
16.3733 10.046
16.3885 10.051
16.4037 10.270
16.4189 9.969
16.4340 9.844
16.4492 9.906
16.4644 9.878
16.4796 9.827
16.4947 9.807
16.5099 9.619
16.5251 9.466
16.5403 9.673
16.5554 9.671
16.5706 9.543
16.5858 9.738
16.6010 9.722
16.6161 9.845
16.6313 9.860
16.6465 9.620
16.6617 9.885
16.6768 9.919
16.6920 9.953
16.7072 9.900
16.7224 9.950
16.7375 9.864
16.7527 9.936
16.7679 10.143
16.7831 10.096
16.7982 9.972
16.8134 9.895
16.8286 9.927
16.8438 9.833
16.8589 9.988
16.8741 9.955
16.8893 9.822
16.9045 9.866
16.9196 9.869
16.9348 9.779
16.9500 9.602
16.9652 9.615
16.9803 10.023
16.9955 10.110
17.0107 10.010
17.0259 10.022
17.0410 10.043
17.0562 9.907
17.0714 9.935
17.0866 10.339
17.1017 10.539
17.1169 10.700
17.1321 10.866
17.1473 11.231
17.1624 11.609
17.1776 12.104
17.1928 12.989
17.2080 13.883
17.2231 14.798
17.2383 16.276
17.2535 17.737
17.2687 18.435
17.2838 18.731
17.2990 18.244
17.3142 17.048
17.3294 16.116
17.3445 16.067
17.3597 16.129
17.3749 15.753
17.3901 15.155
17.4052 14.199
17.4204 13.230
17.4356 12.628
17.4508 12.101
17.4659 11.606
17.4811 11.489
17.4963 11.346
17.5115 11.277
17.5266 11.304
17.5418 11.145
17.5570 11.325
17.5722 11.796
17.5873 11.978
17.6025 11.686
17.6177 11.382
17.6329 11.253
17.6480 11.074
17.6632 10.953
17.6784 11.052
17.6936 11.256
17.7087 11.057
17.7239 10.898
17.7391 10.991
17.7543 10.876
17.7694 10.706
17.7846 10.816
17.7998 11.017
17.8150 10.996
17.8301 11.003
17.8453 11.112
17.8605 11.156
17.8757 11.196
17.8908 11.042
17.9060 11.152
17.9212 11.048
17.9364 10.626
17.9515 10.551
17.9667 10.859
17.9819 10.759
17.9971 10.536
18.0122 10.348
18.0274 10.200
18.0426 10.356
18.0578 10.226
18.0729 10.100
18.0881 10.112
18.1033 9.948
18.1185 9.973
18.1336 10.258
18.1488 10.196
18.1640 9.874
18.1792 9.847
18.1943 9.888
18.2095 10.156
18.2247 10.039
18.2399 9.891
18.2550 9.714
18.2702 9.724
18.2854 9.814
18.3006 9.821
18.3157 9.551
18.3309 9.554
18.3461 9.785
18.3613 9.932
18.3764 9.868
18.3916 9.850
18.4068 9.967
18.4220 9.743
18.4371 9.508
18.4523 9.684
18.4675 9.821
18.4827 9.909
18.4978 9.833
18.5130 9.869
18.5282 9.895
18.5434 9.593
18.5585 9.624
18.5737 9.695
18.5889 9.847
18.6041 9.829
18.6192 9.856
18.6344 10.093
18.6496 9.950
18.6648 9.875
18.6799 9.805
18.6951 9.729
18.7103 9.868
18.7255 9.847
18.7406 9.993
18.7558 9.888
18.7710 9.838
18.7862 9.954
18.8013 9.753
18.8165 9.619
18.8317 9.636
18.8469 9.877
18.8620 10.068
18.8772 10.210
18.8924 9.865
18.9076 9.685
18.9227 9.956
18.9379 9.912
18.9531 10.033
18.9683 9.968
18.9834 9.746
18.9986 10.102
19.0138 10.120
19.0290 9.930
19.0441 10.202
19.0593 10.275
19.0745 10.244
19.0897 10.377
19.1048 10.295
19.1200 10.387
19.1352 10.482
19.1504 10.511
19.1655 10.538
19.1807 10.424
19.1959 10.440
19.2111 10.376
19.2262 10.698
19.2414 10.702
19.2566 10.680
19.2718 10.908
19.2869 10.771
19.3021 10.933
19.3173 10.912
19.3325 10.961
19.3476 11.015
19.3628 11.008
19.3780 11.013
19.3932 11.028
19.4083 11.150
19.4235 11.124
19.4387 11.272
19.4539 11.287
19.4690 11.148
19.4842 11.294
19.4994 11.343
19.5146 11.270
19.5297 11.260
19.5449 11.626
19.5601 11.635
19.5753 11.504
19.5904 11.494
19.6056 11.531
19.6208 11.460
19.6360 11.418
19.6511 11.542
19.6663 11.581
19.6815 11.585
19.6967 11.658
19.7118 11.663
19.7270 11.531
19.7422 11.675
19.7574 11.756
19.7725 11.782
19.7877 11.962
19.8029 11.984
19.8180 11.813
19.8332 11.866
19.8484 12.026
19.8636 12.309
19.8787 12.513
19.8939 12.771
19.9091 12.894
19.9243 13.066
19.9394 13.487
19.9546 13.819
19.9698 14.358
19.9850 14.394
20.0001 14.173
20.0153 13.980
20.0305 13.774
20.0457 13.453
20.0608 13.400
20.0760 13.450
20.0912 13.358
20.1064 13.416
20.1215 13.471
20.1367 13.413
20.1519 13.225
20.1671 12.907
20.1822 12.892
20.1974 13.120
20.2126 13.048
20.2278 12.775
20.2429 12.674
20.2581 12.565
20.2733 12.255
20.2885 11.987
20.3036 11.829
20.3188 11.996
20.3340 12.055
20.3492 11.860
20.3643 11.781
20.3795 11.570
20.3947 11.242
20.4099 10.939
20.4250 11.097
20.4402 11.163
20.4554 11.034
20.4706 10.935
20.4857 10.983
20.5009 10.937
20.5161 11.100
20.5313 10.755
20.5464 10.847
20.5616 10.922
20.5768 10.691
20.5920 10.834
20.6071 11.009
20.6223 10.999
20.6375 11.067
20.6527 10.723
20.6678 10.928
20.6830 10.896
20.6982 10.728
20.7134 10.450
20.7285 10.444
20.7437 10.532
20.7589 10.500
20.7741 10.848
20.7892 10.852
20.8044 10.322
20.8196 10.496
20.8348 10.673
20.8499 10.464
20.8651 10.422
20.8803 10.270
20.8955 10.679
20.9106 10.260
20.9258 10.413
20.9410 10.277
20.9562 10.266
20.9713 9.914
20.9865 10.005
21.0017 10.221
21.0169 10.106
21.0320 10.266
21.0472 10.372
21.0624 10.103
21.0776 9.667
21.0927 10.074
21.1079 9.795
21.1231 9.995
21.1383 9.898
21.1534 9.716
21.1686 9.592
21.1838 10.020
21.1990 10.204
21.2141 9.724
21.2293 9.660
21.2445 9.775
21.2597 9.547
21.2748 9.285
21.2900 9.773
21.3052 9.760
21.3204 9.299
21.3355 9.789
21.3507 9.358
21.3659 9.282
21.3811 9.780
21.3962 9.580
21.4114 9.552
21.4266 9.271
21.4418 9.195
21.4569 9.449
21.4721 9.271
21.4873 9.258
21.5025 9.297
21.5176 9.310
21.5328 9.182
21.5480 9.549
21.5632 9.391
21.5783 9.232
21.5935 9.329
21.6087 9.154
21.6239 9.509
21.6390 9.336
21.6542 8.900
21.6694 9.068
21.6846 9.227
21.6997 9.110
21.7149 9.006
21.7301 9.031
21.7453 9.061
21.7604 9.161
21.7756 8.988
21.7908 8.680
21.8060 8.966
21.8211 9.017
21.8363 9.085
21.8515 9.059
21.8667 9.287
21.8818 9.376
21.8970 9.158
21.9122 8.854
21.9274 8.996
21.9425 9.225
21.9577 8.946
21.9729 8.825
21.9881 8.845
22.0032 8.845
22.0184 8.937
22.0336 8.742
22.0488 8.519
22.0639 8.627
22.0791 8.714
22.0943 8.542
22.1095 8.615
22.1246 8.681
22.1398 8.718
22.1550 8.577
22.1702 8.473
22.1853 8.577
22.2005 8.540
22.2157 8.583
22.2309 8.543
22.2460 8.563
22.2612 8.574
22.2764 8.728
22.2916 8.578
22.3067 8.578
22.3219 8.490
22.3371 8.318
22.3523 8.566
22.3674 8.641
22.3826 8.556
22.3978 8.474
22.4130 8.611
22.4281 8.539
22.4433 8.329
22.4585 8.437
22.4737 8.644
22.4888 8.395
22.5040 8.316
22.5192 8.378
22.5344 8.442
22.5495 8.349
22.5647 8.713
22.5799 8.314
22.5951 8.314
22.6102 8.734
22.6254 8.590
22.6406 8.691
22.6558 8.303
22.6709 8.561
22.6861 8.500
22.7013 8.254
22.7165 7.960
22.7316 6.359
