'Id: "" Comment: "" Operator: "Lab Manager" Anode: "Mo" Scantype: "Still (Eiger2R_500K (1D mode))" TimePerStep: "300" X: "11.8" Y: "9.4" Z: "11.284" 
7.2532 19.206
7.2684 18.719
7.2836 19.040
7.2987 19.366
7.3139 19.150
7.3291 18.936
7.3443 19.463
7.3594 19.018
7.3746 19.210
7.3898 19.768
7.4050 18.996
7.4201 19.219
7.4353 19.235
7.4505 19.363
7.4657 19.450
7.4808 19.504
7.4960 19.903
7.5112 19.925
7.5264 19.863
7.5415 20.008
7.5567 19.938
7.5719 20.137
7.5871 19.990
7.6022 20.059
7.6174 19.986
7.6326 20.197
7.6478 20.265
7.6629 20.410
7.6781 20.158
7.6933 20.262
7.7085 20.241
7.7236 20.038
7.7388 20.386
7.7540 20.466
7.7692 20.394
7.7843 20.415
7.7995 20.368
7.8147 20.630
7.8299 20.727
7.8450 20.518
7.8602 20.434
7.8754 20.519
7.8905 20.746
7.9057 20.701
7.9209 20.661
7.9361 20.926
7.9512 21.078
7.9664 21.458
7.9816 21.564
7.9968 21.356
8.0119 21.031
8.0271 21.232
8.0423 21.277
8.0575 20.800
8.0726 21.021
8.0878 21.330
8.1030 21.349
8.1182 21.196
8.1333 21.359
8.1485 21.526
8.1637 21.453
8.1789 21.404
8.1940 21.701
8.2092 21.763
8.2244 21.520
8.2396 21.624
8.2547 21.543
8.2699 21.443
8.2851 21.898
8.3003 21.821
8.3154 21.789
8.3306 21.479
8.3458 21.945
8.3610 21.526
8.3761 21.891
8.3913 22.138
8.4065 22.079
8.4217 21.941
8.4368 21.599
8.4520 21.705
8.4672 21.833
8.4824 21.619
8.4975 21.962
8.5127 21.947
8.5279 22.393
8.5431 22.342
8.5582 21.964
8.5734 21.968
8.5886 22.344
8.6038 22.237
8.6189 21.879
8.6341 22.161
8.6493 22.787
8.6645 21.985
8.6796 22.853
8.6948 22.667
8.7100 22.331
8.7252 22.550
8.7403 22.511
8.7555 22.869
8.7707 22.314
8.7859 22.300
8.8010 22.514
8.8162 22.218
8.8314 22.560
8.8466 22.273
8.8617 22.284
8.8769 22.394
8.8921 22.515
8.9073 22.671
8.9224 22.799
8.9376 22.676
8.9528 22.769
8.9680 22.851
8.9831 22.837
8.9983 22.853
9.0135 22.856
9.0287 22.959
9.0438 23.009
9.0590 23.048
9.0742 22.882
9.0894 23.022
9.1045 23.081
9.1197 23.273
9.1349 22.985
9.1501 22.599
9.1652 22.648
9.1804 22.889
9.1956 22.675
9.2108 22.414
9.2259 22.922
9.2411 23.039
9.2563 23.085
9.2715 23.235
9.2866 22.858
9.3018 23.097
9.3170 23.159
9.3322 22.637
9.3473 22.701
9.3625 22.783
9.3777 22.850
9.3929 22.812
9.4080 23.170
9.4232 23.062
9.4384 23.085
9.4536 23.367
9.4687 23.143
9.4839 23.128
9.4991 23.498
9.5143 23.459
9.5294 23.462
9.5446 23.206
9.5598 23.308
9.5750 23.494
9.5901 23.330
9.6053 23.203
9.6205 23.331
9.6357 23.824
9.6508 23.890
9.6660 23.733
9.6812 23.761
9.6964 23.786
9.7115 23.697
9.7267 23.659
9.7419 23.849
9.7571 23.895
9.7722 23.918
9.7874 23.858
9.8026 23.924
9.8178 23.946
9.8329 23.909
9.8481 23.728
9.8633 23.301
9.8785 23.076
9.8936 23.266
9.9088 23.425
9.9240 23.221
9.9392 23.344
9.9543 23.217
9.9695 23.011
9.9847 23.327
9.9999 23.437
10.0150 23.240
10.0302 23.228
10.0454 23.448
10.0606 23.117
10.0757 23.035
10.0909 23.442
10.1061 23.356
10.1213 23.659
10.1364 23.621
10.1516 23.751
10.1668 23.548
10.1820 23.544
10.1971 23.467
10.2123 23.241
10.2275 23.487
10.2427 23.134
10.2578 22.977
10.2730 22.999
10.2882 22.494
10.3034 22.293
10.3185 22.791
10.3337 23.055
10.3489 22.890
10.3641 22.952
10.3792 22.670
10.3944 22.495
10.4096 22.972
10.4248 23.023
10.4399 22.826
10.4551 22.930
10.4703 22.643
10.4855 22.767
10.5006 22.893
10.5158 22.683
10.5310 22.430
10.5462 22.269
10.5613 22.761
10.5765 22.740
10.5917 22.668
10.6069 22.689
10.6220 22.534
10.6372 22.443
10.6524 22.648
10.6676 22.880
10.6827 22.695
10.6979 22.564
10.7131 22.524
10.7283 22.640
10.7434 22.389
10.7586 22.153
10.7738 22.638
10.7890 22.577
10.8041 22.430
10.8193 22.070
10.8345 22.397
10.8497 22.448
10.8648 22.677
10.8800 22.778
10.8952 22.284
10.9104 22.172
10.9255 22.024
10.9407 21.862
10.9559 21.703
10.9711 22.099
10.9862 22.001
11.0014 21.882
11.0166 21.991
11.0318 22.113
11.0469 22.038
11.0621 21.831
11.0773 21.888
11.0925 21.661
11.1076 21.473
11.1228 21.856
11.1380 21.780
11.1532 21.792
11.1683 21.906
11.1835 21.763
11.1987 21.675
11.2139 21.732
11.2290 22.220
11.2442 22.044
11.2594 21.634
11.2746 21.755
11.2897 21.881
11.3049 21.726
11.3201 21.756
11.3353 21.606
11.3504 21.617
11.3656 21.727
11.3808 21.652
11.3960 21.904
11.4111 21.709
11.4263 21.778
11.4415 21.474
11.4567 21.168
11.4718 21.084
11.4870 21.234
11.5022 21.261
11.5174 21.055
11.5325 21.163
11.5477 20.967
11.5629 20.986
11.5781 21.010
11.5932 20.800
11.6084 20.785
11.6236 20.965
11.6388 20.920
11.6539 20.585
11.6691 20.672
11.6843 20.690
11.6995 20.588
11.7146 20.750
11.7298 20.571
11.7450 20.517
11.7602 20.684
11.7753 20.522
11.7905 20.302
11.8057 20.107
11.8209 19.948
11.8360 20.122
11.8512 19.906
11.8664 19.708
11.8816 19.991
11.8967 19.985
11.9119 20.098
11.9271 19.837
11.9423 19.618
11.9574 19.207
11.9726 19.108
11.9878 19.199
12.0030 19.164
12.0181 19.112
12.0333 19.104
12.0485 19.050
12.0637 18.848
12.0788 18.824
12.0940 18.632
12.1092 18.698
12.1244 18.608
12.1395 18.702
12.1547 18.627
12.1699 18.380
12.1851 18.266
12.2002 18.326
12.2154 18.310
12.2306 18.336
12.2458 18.479
12.2609 17.859
12.2761 17.867
12.2913 18.050
12.3065 17.863
12.3216 17.680
12.3368 17.338
12.3520 17.328
12.3672 17.363
12.3823 17.152
12.3975 16.944
12.4127 17.288
12.4279 17.374
12.4430 17.114
12.4582 16.854
12.4734 16.669
12.4886 16.586
12.5037 16.654
12.5189 16.565
12.5341 16.330
12.5493 16.041
12.5644 16.093
12.5796 16.295
12.5948 16.212
12.6100 15.987
12.6251 15.963
12.6403 15.996
12.6555 16.136
12.6707 16.027
12.6858 15.862
12.7010 15.991
12.7162 15.851
12.7314 15.822
12.7465 15.631
12.7617 15.241
12.7769 15.072
12.7921 15.080
12.8072 15.068
12.8224 15.111
12.8376 15.234
12.8528 15.018
12.8679 14.854
12.8831 14.914
12.8983 14.722
12.9135 14.458
12.9286 14.485
12.9438 14.659
12.9590 14.486
12.9742 14.450
12.9893 14.695
13.0045 14.537
13.0197 14.106
13.0349 14.029
13.0500 14.132
13.0652 14.016
13.0804 13.824
13.0956 13.868
13.1107 14.023
13.1259 14.033
13.1411 13.948
13.1563 13.661
13.1714 13.636
13.1866 13.733
13.2018 13.650
13.2170 13.430
13.2321 13.322
13.2473 13.480
13.2625 13.380
13.2777 13.350
13.2928 13.239
13.3080 13.274
13.3232 13.392
13.3384 13.216
13.3535 13.189
13.3687 13.223
13.3839 13.223
13.3991 12.982
13.4142 13.026
13.4294 13.060
13.4446 12.717
13.4598 12.750
13.4749 12.872
13.4901 12.537
13.5053 12.390
13.5205 12.615
13.5356 12.540
13.5508 12.446
13.5660 12.704
13.5812 12.685
13.5963 12.475
13.6115 12.415
13.6267 12.347
13.6419 12.327
13.6570 12.240
13.6722 12.093
13.6874 11.997
13.7026 12.149
13.7177 11.870
13.7329 11.921
13.7481 12.495
13.7633 12.428
13.7784 12.246
13.7936 12.302
13.8088 12.276
13.8239 12.315
13.8391 12.274
13.8543 12.313
13.8695 12.269
13.8846 12.351
13.8998 11.975
13.9150 12.067
13.9302 12.284
13.9453 12.064
13.9605 11.957
13.9757 11.917
13.9909 11.930
14.0060 11.748
14.0212 11.561
14.0364 11.597
14.0516 11.704
14.0667 11.544
14.0819 11.433
14.0971 11.385
14.1123 11.277
14.1274 11.316
14.1426 11.838
14.1578 11.454
14.1730 11.310
14.1881 11.273
14.2033 11.529
14.2185 11.619
14.2337 11.550
14.2488 11.591
14.2640 11.624
14.2792 11.833
14.2944 12.158
14.3095 12.205
14.3247 12.327
14.3399 12.401
14.3551 13.036
14.3702 13.156
14.3854 13.367
14.4006 13.617
14.4158 13.607
14.4309 13.453
14.4461 13.101
14.4613 12.795
14.4765 12.466
14.4916 12.380
14.5068 12.239
14.5220 11.754
14.5372 11.640
14.5523 11.091
14.5675 11.296
14.5827 10.959
14.5979 11.123
14.6130 10.868
14.6282 11.369
14.6434 11.044
14.6586 10.821
14.6737 10.783
14.6889 10.729
14.7041 10.565
14.7193 10.879
14.7344 10.753
14.7496 10.703
14.7648 10.533
14.7800 10.487
14.7951 10.574
14.8103 10.598
14.8255 10.555
14.8407 10.724
14.8558 10.574
14.8710 10.644
14.8862 10.499
14.9014 10.368
14.9165 10.697
14.9317 10.744
14.9469 10.165
14.9621 10.231
14.9772 10.308
14.9924 10.573
15.0076 10.582
15.0228 10.296
15.0379 10.542
15.0531 10.540
15.0683 9.832
15.0835 10.367
15.0986 10.322
15.1138 10.519
15.1290 10.131
15.1442 10.432
15.1593 10.395
15.1745 11.084
15.1897 10.399
15.2049 10.359
15.2200 10.063
15.2352 10.219
15.2504 10.493
15.2656 10.313
15.2807 10.263
15.2959 10.349
15.3111 10.290
15.3263 10.246
15.3414 10.067
15.3566 10.548
15.3718 10.293
15.3870 10.344
15.4021 10.264
15.4173 10.409
15.4325 10.348
15.4477 10.174
15.4628 10.018
15.4780 10.370
15.4932 10.180
15.5084 10.178
15.5235 10.418
15.5387 10.149
15.5539 10.061
15.5691 9.960
15.5842 10.093
15.5994 10.154
15.6146 10.151
15.6298 9.973
15.6449 10.047
15.6601 9.829
15.6753 9.731
15.6905 9.929
15.7056 9.429
15.7208 9.840
15.7360 9.834
15.7512 9.762
15.7663 9.855
15.7815 9.833
15.7967 9.783
15.8119 9.937
15.8270 10.047
15.8422 10.033
15.8574 9.835
15.8726 9.687
15.8877 9.372
15.9029 9.455
15.9181 9.911
15.9333 9.680
15.9484 9.364
15.9636 9.348
15.9788 9.821
15.9940 9.828
16.0091 9.824
16.0243 9.540
16.0395 9.711
16.0547 9.795
16.0698 9.749
16.0850 9.713
16.1002 9.509
16.1154 9.642
16.1305 9.696
16.1457 9.643
16.1609 9.458
16.1761 9.569
16.1912 9.579
16.2064 9.796
16.2216 9.974
16.2368 9.763
16.2519 9.926
16.2671 9.634
16.2823 9.780
16.2975 9.892
16.3126 9.907
16.3278 9.836
16.3430 9.841
16.3582 9.930
16.3733 10.132
16.3885 9.914
16.4037 10.111
16.4189 9.961
16.4340 10.079
16.4492 9.976
16.4644 9.857
16.4796 9.867
16.4947 9.906
16.5099 9.912
16.5251 9.695
16.5403 9.583
16.5554 9.669
16.5706 9.725
16.5858 9.741
16.6010 9.732
16.6161 9.872
16.6313 9.720
16.6465 9.748
16.6617 9.840
16.6768 9.615
16.6920 9.846
16.7072 10.185
16.7224 9.984
16.7375 9.923
16.7527 9.994
16.7679 10.066
16.7831 9.858
16.7982 9.667
16.8134 9.853
16.8286 9.946
16.8438 9.790
16.8589 9.948
16.8741 10.121
16.8893 10.098
16.9045 10.011
16.9196 9.822
16.9348 9.918
16.9500 10.124
16.9652 10.080
16.9803 9.943
16.9955 9.837
17.0107 9.894
17.0259 10.223
17.0410 10.133
17.0562 10.213
17.0714 10.312
17.0866 10.559
17.1017 10.782
17.1169 10.754
17.1321 11.135
17.1473 11.381
17.1624 11.529
17.1776 12.421
17.1928 13.208
17.2080 13.877
17.2231 14.982
17.2383 15.996
17.2535 17.339
17.2687 18.618
17.2838 18.723
17.2990 18.159
17.3142 17.156
17.3294 16.273
17.3445 16.067
17.3597 15.842
17.3749 15.612
17.3901 15.032
17.4052 14.134
17.4204 13.334
17.4356 12.730
17.4508 11.985
17.4659 11.587
17.4811 11.522
17.4963 11.305
17.5115 11.248
17.5266 10.999
17.5418 10.896
17.5570 10.828
17.5722 10.892
17.5873 11.153
17.6025 11.576
17.6177 11.572
17.6329 11.316
17.6480 11.388
17.6632 11.429
17.6784 11.798
17.6936 12.087
17.7087 11.805
17.7239 11.376
17.7391 11.107
17.7543 11.276
17.7694 11.201
17.7846 10.845
17.7998 10.946
17.8150 10.956
17.8301 10.791
17.8453 10.513
17.8605 10.238
17.8757 10.232
17.8908 10.363
17.9060 10.313
17.9212 10.228
17.9364 10.154
17.9515 10.063
17.9667 10.120
17.9819 9.997
17.9971 10.025
18.0122 10.219
18.0274 10.242
18.0426 10.195
18.0578 10.206
18.0729 10.056
18.0881 10.016
18.1033 10.050
18.1185 9.714
18.1336 9.754
18.1488 9.869
18.1640 9.716
18.1792 9.965
18.1943 9.978
18.2095 9.966
18.2247 9.969
18.2399 9.865
18.2550 9.769
18.2702 9.604
18.2854 9.662
18.3006 9.720
18.3157 10.069
18.3309 9.998
18.3461 9.667
18.3613 9.727
18.3764 9.763
18.3916 9.712
18.4068 9.815
18.4220 9.937
18.4371 9.827
18.4523 9.729
18.4675 9.896
18.4827 9.963
18.4978 9.835
18.5130 9.750
18.5282 9.786
18.5434 9.624
18.5585 9.557
18.5737 9.709
18.5889 9.915
18.6041 9.692
18.6192 9.889
18.6344 9.872
18.6496 9.645
18.6648 9.926
18.6799 10.082
18.6951 9.960
18.7103 9.757
18.7255 9.841
18.7406 9.820
18.7558 9.861
18.7710 9.946
18.7862 9.988
18.8013 9.621
18.8165 9.511
18.8317 9.728
18.8469 9.794
18.8620 9.836
18.8772 10.051
18.8924 10.003
18.9076 9.918
18.9227 9.751
18.9379 9.988
18.9531 9.923
18.9683 9.952
18.9834 10.080
18.9986 10.038
19.0138 9.944
19.0290 10.206
19.0441 10.115
19.0593 10.295
19.0745 10.304
19.0897 10.277
19.1048 10.449
19.1200 10.295
19.1352 10.412
19.1504 10.765
19.1655 10.754
19.1807 10.552
19.1959 10.583
19.2111 10.632
19.2262 10.759
19.2414 10.874
19.2566 10.608
19.2718 10.691
19.2869 10.892
19.3021 10.985
19.3173 11.035
19.3325 10.964
19.3476 10.961
19.3628 11.074
19.3780 11.212
19.3932 11.303
19.4083 11.234
19.4235 11.037
19.4387 11.124
19.4539 11.121
19.4690 11.223
19.4842 11.417
19.4994 11.393
19.5146 11.444
19.5297 11.348
19.5449 11.367
19.5601 11.632
19.5753 11.518
19.5904 11.476
19.6056 11.682
19.6208 11.397
19.6360 11.415
19.6511 11.630
19.6663 11.609
19.6815 11.676
19.6967 11.690
19.7118 11.849
19.7270 11.867
19.7422 11.686
19.7574 11.752
19.7725 12.029
19.7877 11.860
19.8029 11.687
19.8180 11.675
19.8332 11.927
19.8484 12.071
19.8636 12.165
19.8787 12.523
19.8939 13.003
19.9091 13.255
19.9243 13.276
19.9394 13.785
19.9546 14.208
19.9698 14.355
19.9850 14.562
20.0001 14.545
20.0153 14.335
20.0305 13.836
20.0457 13.663
20.0608 13.684
20.0760 13.801
20.0912 13.684
20.1064 13.512
20.1215 13.192
20.1367 12.877
20.1519 12.701
20.1671 12.744
20.1822 12.751
20.1974 12.689
20.2126 12.984
20.2278 12.993
20.2429 12.587
20.2581 12.239
20.2733 12.288
20.2885 12.149
20.3036 11.916
20.3188 11.884
20.3340 12.158
20.3492 12.280
20.3643 12.094
20.3795 11.927
20.3947 11.926
20.4099 11.817
20.4250 12.079
20.4402 11.956
20.4554 12.168
20.4706 12.264
20.4857 11.939
20.5009 11.878
20.5161 11.517
20.5313 11.551
20.5464 11.720
20.5616 11.721
20.5768 11.311
20.5920 11.041
20.6071 11.231
20.6223 11.233
20.6375 10.916
20.6527 10.639
20.6678 10.711
20.6830 10.564
20.6982 10.621
20.7134 10.446
20.7285 10.702
20.7437 10.731
20.7589 10.122
20.7741 10.278
20.7892 10.301
20.8044 10.166
20.8196 10.176
20.8348 10.476
20.8499 10.269
20.8651 10.273
20.8803 10.298
20.8955 10.393
20.9106 10.035
20.9258 10.239
20.9410 10.435
20.9562 10.212
20.9713 9.927
20.9865 9.869
21.0017 9.964
21.0169 10.090
21.0320 10.114
21.0472 9.805
21.0624 9.878
21.0776 9.715
21.0927 9.861
21.1079 10.099
21.1231 9.859
21.1383 9.602
21.1534 9.828
21.1686 9.938
21.1838 9.771
21.1990 9.466
21.2141 9.938
21.2293 9.483
21.2445 9.821
21.2597 9.694
21.2748 9.618
21.2900 9.807
21.3052 9.630
21.3204 9.732
21.3355 9.377
21.3507 9.788
21.3659 9.769
21.3811 9.525
21.3962 9.461
21.4114 9.601
21.4266 9.417
21.4418 9.501
21.4569 9.349
21.4721 9.361
21.4873 9.429
21.5025 9.621
21.5176 9.407
21.5328 9.195
21.5480 9.251
21.5632 9.027
21.5783 9.200
21.5935 9.028
21.6087 9.181
21.6239 9.187
21.6390 9.217
21.6542 9.203
21.6694 9.010
21.6846 9.123
21.6997 9.252
21.7149 9.258
21.7301 9.206
21.7453 9.151
21.7604 8.994
21.7756 8.989
21.7908 9.249
21.8060 9.149
21.8211 9.373
21.8363 9.231
21.8515 9.089
21.8667 9.174
21.8818 9.207
21.8970 9.033
21.9122 9.039
21.9274 8.888
21.9425 8.845
21.9577 8.928
21.9729 8.990
21.9881 8.987
22.0032 8.996
22.0184 8.851
22.0336 8.877
22.0488 8.717
22.0639 8.611
22.0791 8.535
22.0943 8.848
22.1095 9.051
22.1246 8.764
22.1398 8.477
22.1550 8.416
22.1702 8.671
22.1853 8.675
22.2005 8.712
22.2157 8.388
22.2309 8.529
22.2460 8.859
22.2612 8.801
22.2764 8.742
22.2916 8.900
22.3067 8.624
22.3219 8.271
22.3371 8.197
22.3523 8.515
22.3674 8.511
22.3826 8.490
22.3978 8.549
22.4130 8.306
22.4281 8.500
22.4433 8.594
22.4585 8.419
22.4737 8.523
22.4888 8.564
22.5040 8.392
22.5192 8.367
22.5344 8.140
22.5495 8.359
22.5647 8.475
22.5799 8.236
22.5951 8.572
22.6102 8.427
22.6254 8.380
22.6406 8.375
22.6558 8.412
22.6709 8.247
22.6861 8.476
22.7013 8.304
22.7165 7.762
22.7316 6.468
