'Id: "" Comment: "" Operator: "Lab Manager" Anode: "Mo" Scantype: "Still (Eiger2R_500K (1D mode))" TimePerStep: "300" X: "11.8" Y: "9.4" Z: "11.284" 
7.2532 18.848
7.2684 18.564
7.2836 18.729
7.2987 19.400
7.3139 18.988
7.3291 18.652
7.3443 18.543
7.3594 19.055
7.3746 19.082
7.3898 18.985
7.4050 19.553
7.4201 19.348
7.4353 19.165
7.4505 19.506
7.4657 19.095
7.4808 19.338
7.4960 19.409
7.5112 19.310
7.5264 19.436
7.5415 19.104
7.5567 19.412
7.5719 19.852
7.5871 19.805
7.6022 20.111
7.6174 19.978
7.6326 20.109
7.6478 19.727
7.6629 19.593
7.6781 20.080
7.6933 20.088
7.7085 20.127
7.7236 20.286
7.7388 20.288
7.7540 20.190
7.7692 20.252
7.7843 20.472
7.7995 20.562
7.8147 20.291
7.8299 20.306
7.8450 20.517
7.8602 20.432
7.8754 20.455
7.8905 20.873
7.9057 20.854
7.9209 20.530
7.9361 20.393
7.9512 20.706
7.9664 21.094
7.9816 21.168
7.9968 20.958
8.0119 20.968
8.0271 21.187
8.0423 21.055
8.0575 20.953
8.0726 20.995
8.0878 21.249
8.1030 21.093
8.1182 21.047
8.1333 21.282
8.1485 21.455
8.1637 21.265
8.1789 20.986
8.1940 21.424
8.2092 21.426
8.2244 21.686
8.2396 22.099
8.2547 21.439
8.2699 21.374
8.2851 21.881
8.3003 21.776
8.3154 21.693
8.3306 21.583
8.3458 21.559
8.3610 21.352
8.3761 21.715
8.3913 21.533
8.4065 21.466
8.4217 21.394
8.4368 21.883
8.4520 22.046
8.4672 21.131
8.4824 21.817
8.4975 21.778
8.5127 21.869
8.5279 21.682
8.5431 22.228
8.5582 22.809
8.5734 21.866
8.5886 21.957
8.6038 21.708
8.6189 22.045
8.6341 22.076
8.6493 22.460
8.6645 21.765
8.6796 21.751
8.6948 22.617
8.7100 22.055
8.7252 22.392
8.7403 22.130
8.7555 22.493
8.7707 22.452
8.7859 22.356
8.8010 22.562
8.8162 22.643
8.8314 22.649
8.8466 22.651
8.8617 22.537
8.8769 22.398
8.8921 22.616
8.9073 22.883
8.9224 22.553
8.9376 21.978
8.9528 22.494
8.9680 22.212
8.9831 22.040
8.9983 22.272
9.0135 22.759
9.0287 22.390
9.0438 22.301
9.0590 22.810
9.0742 22.960
9.0894 22.622
9.1045 22.497
9.1197 22.694
9.1349 22.835
9.1501 23.019
9.1652 22.786
9.1804 22.884
9.1956 23.221
9.2108 22.756
9.2259 22.669
9.2411 22.672
9.2563 22.804
9.2715 22.705
9.2866 22.835
9.3018 22.554
9.3170 22.628
9.3322 22.960
9.3473 23.083
9.3625 23.093
9.3777 23.082
9.3929 23.024
9.4080 22.757
9.4232 22.790
9.4384 23.168
9.4536 23.086
9.4687 22.718
9.4839 22.775
9.4991 22.757
9.5143 22.774
9.5294 22.979
9.5446 22.571
9.5598 22.627
9.5750 22.791
9.5901 22.577
9.6053 23.071
9.6205 23.224
9.6357 23.151
9.6508 23.025
9.6660 23.147
9.6812 23.311
9.6964 23.694
9.7115 23.894
9.7267 23.998
9.7419 23.994
9.7571 23.764
9.7722 23.804
9.7874 23.983
9.8026 23.749
9.8178 23.465
9.8329 23.210
9.8481 23.066
9.8633 23.338
9.8785 23.279
9.8936 23.028
9.9088 22.935
9.9240 22.746
9.9392 23.087
9.9543 23.375
9.9695 23.063
9.9847 23.000
9.9999 23.054
10.0150 23.162
10.0302 23.567
10.0454 23.119
10.0606 22.885
10.0757 23.139
10.0909 22.818
10.1061 22.942
10.1213 23.200
10.1364 23.372
10.1516 23.427
10.1668 22.991
10.1820 22.962
10.1971 23.212
10.2123 23.205
10.2275 23.219
10.2427 22.849
10.2578 22.823
10.2730 23.143
10.2882 23.021
10.3034 22.637
10.3185 22.701
10.3337 22.532
10.3489 22.764
10.3641 22.814
10.3792 22.703
10.3944 22.707
10.4096 22.268
10.4248 22.593
10.4399 22.848
10.4551 22.610
10.4703 22.788
10.4855 22.387
10.5006 22.294
10.5158 22.437
10.5310 22.293
10.5462 22.381
10.5613 22.600
10.5765 22.283
10.5917 22.309
10.6069 22.622
10.6220 22.486
10.6372 22.662
10.6524 22.246
10.6676 22.428
10.6827 22.244
10.6979 22.118
10.7131 22.508
10.7283 22.208
10.7434 22.436
10.7586 22.222
10.7738 22.380
10.7890 22.095
10.8041 22.316
10.8193 22.100
10.8345 22.115
10.8497 22.248
10.8648 22.463
10.8800 22.531
10.8952 22.526
10.9104 22.616
10.9255 22.187
10.9407 21.867
10.9559 22.187
10.9711 22.270
10.9862 22.116
11.0014 22.265
11.0166 21.999
11.0318 22.093
11.0469 21.919
11.0621 21.723
11.0773 22.347
11.0925 22.205
11.1076 21.877
11.1228 21.692
11.1380 21.815
11.1532 21.711
11.1683 22.063
11.1835 21.865
11.1987 21.767
11.2139 21.788
11.2290 21.685
11.2442 21.561
11.2594 21.509
11.2746 21.260
11.2897 21.230
11.3049 21.465
11.3201 21.594
11.3353 21.769
11.3504 21.531
11.3656 21.142
11.3808 20.973
11.3960 21.422
11.4111 21.637
11.4263 21.260
11.4415 21.284
11.4567 21.016
11.4718 21.307
11.4870 21.022
11.5022 20.868
11.5174 21.056
11.5325 21.418
11.5477 21.035
11.5629 20.930
11.5781 21.050
11.5932 20.821
11.6084 20.735
11.6236 20.435
11.6388 20.606
11.6539 21.033
11.6691 20.779
11.6843 20.272
11.6995 20.113
11.7146 20.543
11.7298 20.638
11.7450 20.468
11.7602 20.383
11.7753 20.124
11.7905 20.096
11.8057 20.022
11.8209 20.050
11.8360 20.247
11.8512 19.986
11.8664 19.870
11.8816 19.823
11.8967 19.941
11.9119 19.679
11.9271 19.598
11.9423 19.433
11.9574 19.343
11.9726 19.125
11.9878 19.093
12.0030 19.375
12.0181 19.424
12.0333 19.167
12.0485 18.994
12.0637 18.935
12.0788 18.996
12.0940 18.973
12.1092 18.856
12.1244 18.626
12.1395 18.936
12.1547 18.617
12.1699 18.224
12.1851 18.259
12.2002 18.026
12.2154 18.103
12.2306 18.288
12.2458 17.943
12.2609 17.627
12.2761 17.912
12.2913 17.866
12.3065 17.760
12.3216 17.416
12.3368 17.483
12.3520 17.370
12.3672 17.101
12.3823 17.177
12.3975 17.227
12.4127 17.268
12.4279 16.774
12.4430 16.966
12.4582 17.044
12.4734 16.827
12.4886 16.787
12.5037 16.754
12.5189 16.602
12.5341 16.429
12.5493 16.283
12.5644 16.314
12.5796 16.351
12.5948 16.185
12.6100 16.030
12.6251 16.167
12.6403 16.098
12.6555 15.831
12.6707 15.953
12.6858 16.055
12.7010 15.768
12.7162 15.502
12.7314 15.534
12.7465 15.644
12.7617 15.365
12.7769 15.145
12.7921 14.949
12.8072 14.948
12.8224 15.045
12.8376 14.827
12.8528 14.777
12.8679 14.998
12.8831 14.899
12.8983 14.706
12.9135 14.553
12.9286 14.479
12.9438 14.252
12.9590 14.229
12.9742 14.462
12.9893 14.290
13.0045 14.037
13.0197 13.938
13.0349 13.781
13.0500 13.795
13.0652 13.933
13.0804 13.855
13.0956 13.816
13.1107 13.821
13.1259 13.903
13.1411 13.877
13.1563 13.661
13.1714 13.541
13.1866 13.605
13.2018 13.535
13.2170 13.358
13.2321 13.314
13.2473 13.159
13.2625 13.222
13.2777 13.364
13.2928 13.292
13.3080 13.103
13.3232 13.056
13.3384 13.157
13.3535 13.104
13.3687 13.038
13.3839 12.945
13.3991 13.034
13.4142 13.111
13.4294 12.849
13.4446 12.751
13.4598 12.659
13.4749 12.553
13.4901 12.668
13.5053 12.886
13.5205 12.837
13.5356 12.632
13.5508 12.437
13.5660 12.530
13.5812 12.655
13.5963 12.689
13.6115 12.590
13.6267 12.389
13.6419 12.183
13.6570 11.956
13.6722 11.910
13.6874 12.070
13.7026 12.193
13.7177 12.196
13.7329 11.927
13.7481 12.080
13.7633 12.272
13.7784 12.224
13.7936 12.176
13.8088 12.141
13.8239 12.355
13.8391 12.608
13.8543 12.525
13.8695 12.637
13.8846 12.490
13.8998 12.387
13.9150 12.422
13.9302 12.507
13.9453 12.297
13.9605 12.173
13.9757 11.758
13.9909 11.732
14.0060 11.931
14.0212 12.081
14.0364 11.746
14.0516 11.506
14.0667 11.501
14.0819 11.557
14.0971 11.755
14.1123 11.720
14.1274 11.698
14.1426 11.491
14.1578 11.640
14.1730 11.707
14.1881 11.536
14.2033 11.518
14.2185 11.354
14.2337 11.656
14.2488 11.501
14.2640 11.365
14.2792 11.967
14.2944 12.146
14.3095 11.691
14.3247 12.047
14.3399 11.891
14.3551 12.661
14.3702 12.612
14.3854 12.838
14.4006 12.903
14.4158 12.821
14.4309 12.909
14.4461 12.757
14.4613 12.533
14.4765 12.477
14.4916 12.163
14.5068 11.857
14.5220 11.703
14.5372 11.611
14.5523 11.261
14.5675 10.996
14.5827 11.066
14.5979 10.960
14.6130 11.031
14.6282 10.913
14.6434 10.867
14.6586 10.699
14.6737 10.714
14.6889 10.416
14.7041 10.618
14.7193 10.701
14.7344 10.819
14.7496 10.553
14.7648 10.665
14.7800 10.587
14.7951 10.441
14.8103 10.703
14.8255 10.497
14.8407 10.510
14.8558 10.420
14.8710 10.583
14.8862 10.369
14.9014 10.176
14.9165 10.634
14.9317 10.384
14.9469 10.143
14.9621 10.251
14.9772 10.271
14.9924 10.500
15.0076 10.217
15.0228 10.279
15.0379 10.176
15.0531 10.215
15.0683 10.199
15.0835 10.101
15.0986 10.140
15.1138 10.132
15.1290 9.992
15.1442 9.835
15.1593 9.980
15.1745 10.235
15.1897 10.030
15.2049 10.017
15.2200 9.788
15.2352 9.944
15.2504 9.968
15.2656 9.853
15.2807 9.872
15.2959 10.057
15.3111 10.100
15.3263 10.251
15.3414 10.079
15.3566 10.306
15.3718 10.154
15.3870 10.062
15.4021 10.165
15.4173 10.214
15.4325 10.219
15.4477 10.166
15.4628 10.207
15.4780 9.999
15.4932 10.224
15.5084 10.034
15.5235 9.960
15.5387 10.368
15.5539 9.994
15.5691 9.855
15.5842 9.949
15.5994 9.859
15.6146 9.967
15.6298 10.049
15.6449 9.612
15.6601 9.868
15.6753 9.854
15.6905 9.931
15.7056 9.438
15.7208 9.645
15.7360 9.573
15.7512 9.781
15.7663 9.503
15.7815 9.728
15.7967 9.720
15.8119 9.592
15.8270 9.642
15.8422 9.402
15.8574 9.546
15.8726 9.842
15.8877 9.448
15.9029 9.483
15.9181 9.568
15.9333 9.737
15.9484 9.672
15.9636 9.457
15.9788 9.309
15.9940 9.752
16.0091 9.671
16.0243 9.672
16.0395 9.507
16.0547 9.476
16.0698 9.498
16.0850 9.560
16.1002 9.609
16.1154 9.708
16.1305 9.371
16.1457 9.567
16.1609 9.645
16.1761 9.580
16.1912 9.441
16.2064 9.662
16.2216 9.737
16.2368 9.848
16.2519 9.888
16.2671 9.781
16.2823 9.703
16.2975 9.652
16.3126 9.788
16.3278 9.892
16.3430 9.729
16.3582 9.753
16.3733 9.967
16.3885 9.691
16.4037 9.653
16.4189 9.601
16.4340 9.615
16.4492 9.695
16.4644 9.635
16.4796 9.634
16.4947 9.521
16.5099 9.584
16.5251 9.561
16.5403 9.398
16.5554 9.403
16.5706 9.514
16.5858 9.424
16.6010 9.470
16.6161 9.273
16.6313 9.363
16.6465 9.521
16.6617 9.455
16.6768 9.578
16.6920 9.770
16.7072 9.820
16.7224 9.874
16.7375 9.972
16.7527 9.870
16.7679 9.814
16.7831 9.648
16.7982 9.702
16.8134 9.871
16.8286 9.998
16.8438 9.934
16.8589 9.968
16.8741 9.771
16.8893 9.610
16.9045 9.610
16.9196 9.742
16.9348 9.780
16.9500 9.594
16.9652 9.571
16.9803 9.560
16.9955 9.527
17.0107 9.802
17.0259 9.725
17.0410 9.867
17.0562 10.080
17.0714 10.129
17.0866 10.139
17.1017 10.431
17.1169 10.718
17.1321 11.080
17.1473 11.535
17.1624 11.728
17.1776 12.053
17.1928 12.942
17.2080 13.918
17.2231 14.890
17.2383 16.165
17.2535 17.500
17.2687 18.535
17.2838 18.716
17.2990 18.009
17.3142 17.048
17.3294 16.246
17.3445 16.071
17.3597 16.001
17.3749 15.510
17.3901 15.166
17.4052 14.273
17.4204 13.143
17.4356 12.460
17.4508 12.014
17.4659 11.835
17.4811 11.519
17.4963 11.211
17.5115 11.170
17.5266 11.073
17.5418 10.781
17.5570 10.895
17.5722 11.111
17.5873 11.110
17.6025 11.289
17.6177 11.289
17.6329 11.165
17.6480 11.393
17.6632 11.479
17.6784 11.287
17.6936 11.269
17.7087 11.317
17.7239 11.434
17.7391 11.301
17.7543 10.998
17.7694 11.130
17.7846 11.175
17.7998 10.936
17.8150 10.786
17.8301 10.501
17.8453 10.410
17.8605 10.607
17.8757 10.548
17.8908 10.144
17.9060 10.269
17.9212 10.323
17.9364 9.940
17.9515 10.024
17.9667 10.017
17.9819 9.951
17.9971 9.924
18.0122 10.182
18.0274 10.106
18.0426 10.029
18.0578 10.057
18.0729 10.113
18.0881 10.147
18.1033 10.038
18.1185 10.012
18.1336 9.924
18.1488 9.965
18.1640 9.948
18.1792 9.814
18.1943 9.862
18.2095 9.840
18.2247 9.971
18.2399 10.125
18.2550 9.712
18.2702 9.595
18.2854 9.695
18.3006 9.904
18.3157 9.817
18.3309 9.705
18.3461 9.678
18.3613 9.584
18.3764 9.548
18.3916 9.621
18.4068 9.760
18.4220 9.791
18.4371 9.838
18.4523 9.925
18.4675 9.905
18.4827 9.655
18.4978 9.741
18.5130 9.742
18.5282 9.701
18.5434 9.885
18.5585 9.874
18.5737 9.614
18.5889 9.787
18.6041 10.093
18.6192 9.938
18.6344 9.949
18.6496 9.811
18.6648 9.752
18.6799 9.815
18.6951 9.887
18.7103 10.158
18.7255 9.893
18.7406 9.710
18.7558 9.902
18.7710 9.832
18.7862 9.960
18.8013 9.867
18.8165 9.717
18.8317 9.712
18.8469 9.724
18.8620 9.719
18.8772 9.951
18.8924 9.933
18.9076 9.838
18.9227 9.846
18.9379 9.971
18.9531 10.083
18.9683 10.037
18.9834 9.878
18.9986 10.070
19.0138 10.228
19.0290 10.161
19.0441 10.255
19.0593 10.264
19.0745 10.150
19.0897 10.148
19.1048 10.108
19.1200 10.330
19.1352 10.406
19.1504 10.464
19.1655 10.529
19.1807 10.555
19.1959 10.712
19.2111 10.732
19.2262 10.775
19.2414 10.846
19.2566 10.903
19.2718 10.900
19.2869 10.892
19.3021 10.936
19.3173 10.871
19.3325 10.870
19.3476 11.109
19.3628 11.171
19.3780 11.048
19.3932 11.031
19.4083 11.189
19.4235 11.300
19.4387 11.464
19.4539 11.517
19.4690 11.284
19.4842 11.290
19.4994 11.591
19.5146 11.544
19.5297 11.513
19.5449 11.755
19.5601 11.830
19.5753 11.726
19.5904 11.686
19.6056 11.629
19.6208 11.473
19.6360 11.527
19.6511 11.703
19.6663 11.743
19.6815 11.703
19.6967 11.797
19.7118 12.077
19.7270 11.968
19.7422 12.014
19.7574 12.113
19.7725 12.255
19.7877 12.186
19.8029 12.056
19.8180 12.185
19.8332 12.239
19.8484 12.488
19.8636 12.548
19.8787 12.526
19.8939 12.917
19.9091 13.288
19.9243 13.559
19.9394 13.958
19.9546 14.349
19.9698 14.575
19.9850 14.678
20.0001 14.751
20.0153 14.351
20.0305 14.090
20.0457 14.007
20.0608 13.741
20.0760 13.905
20.0912 14.154
20.1064 14.092
20.1215 13.683
20.1367 13.379
20.1519 13.238
20.1671 13.134
20.1822 12.978
20.1974 12.916
20.2126 12.797
20.2278 12.841
20.2429 12.841
20.2581 12.676
20.2733 12.419
20.2885 12.126
20.3036 12.122
20.3188 12.278
20.3340 12.442
20.3492 12.065
20.3643 12.098
20.3795 11.796
20.3947 11.892
20.4099 11.839
20.4250 11.827
20.4402 11.876
20.4554 11.578
20.4706 11.781
20.4857 11.787
20.5009 11.603
20.5161 11.414
20.5313 11.342
20.5464 11.288
20.5616 11.161
20.5768 11.211
20.5920 11.395
20.6071 11.181
20.6223 11.128
20.6375 11.116
20.6527 11.028
20.6678 10.911
20.6830 10.970
20.6982 10.896
20.7134 10.465
20.7285 10.869
20.7437 10.752
20.7589 10.478
20.7741 10.278
20.7892 10.306
20.8044 10.464
20.8196 10.269
20.8348 10.592
20.8499 10.478
20.8651 10.375
20.8803 10.635
20.8955 10.142
20.9106 10.331
20.9258 10.303
20.9410 10.384
20.9562 10.428
20.9713 10.270
20.9865 10.098
21.0017 10.304
21.0169 10.105
21.0320 10.296
21.0472 10.155
21.0624 9.677
21.0776 9.951
21.0927 10.201
21.1079 9.668
21.1231 10.004
21.1383 10.152
21.1534 9.687
21.1686 10.061
21.1838 9.892
21.1990 10.107
21.2141 9.510
21.2293 9.929
21.2445 9.794
21.2597 10.040
21.2748 9.461
21.2900 9.600
21.3052 9.567
21.3204 9.624
21.3355 9.216
21.3507 9.383
21.3659 9.695
21.3811 9.641
21.3962 9.596
21.4114 9.523
21.4266 9.526
21.4418 9.282
21.4569 9.658
21.4721 9.425
21.4873 9.254
21.5025 9.413
21.5176 9.233
21.5328 9.278
21.5480 9.281
21.5632 9.343
21.5783 9.735
21.5935 9.327
21.6087 9.190
21.6239 9.389
21.6390 9.387
21.6542 9.547
21.6694 9.195
21.6846 9.105
21.6997 9.141
21.7149 9.140
21.7301 9.078
21.7453 8.959
21.7604 8.944
21.7756 8.878
21.7908 8.820
21.8060 9.164
21.8211 9.174
21.8363 9.120
21.8515 9.135
21.8667 9.265
21.8818 9.192
21.8970 9.158
21.9122 9.089
21.9274 8.962
21.9425 9.039
21.9577 9.041
21.9729 9.106
21.9881 9.074
22.0032 8.937
22.0184 8.985
22.0336 8.923
22.0488 8.854
22.0639 8.722
22.0791 8.628
22.0943 8.630
22.1095 8.565
22.1246 8.530
22.1398 8.501
22.1550 8.606
22.1702 8.577
22.1853 8.654
22.2005 8.647
22.2157 8.685
22.2309 8.601
22.2460 8.561
22.2612 8.479
22.2764 8.450
22.2916 8.247
22.3067 8.480
22.3219 8.668
22.3371 8.654
22.3523 8.577
22.3674 8.533
22.3826 8.429
22.3978 8.479
22.4130 8.674
22.4281 8.632
22.4433 8.662
22.4585 8.214
22.4737 8.399
22.4888 8.207
22.5040 8.399
22.5192 8.606
22.5344 8.440
22.5495 8.270
22.5647 8.285
22.5799 8.282
22.5951 8.216
22.6102 8.628
22.6254 8.128
22.6406 8.731
22.6558 8.578
22.6709 8.301
22.6861 8.318
22.7013 7.995
22.7165 7.988
22.7316 6.461
