'Id: "" Comment: "" Operator: "Lab Manager" Anode: "Mo" Scantype: "Still (Eiger2R_500K (1D mode))" TimePerStep: "300" X: "11.8" Y: "9.4" Z: "11.284" 
7.2532 18.863
7.2684 19.218
7.2836 18.882
7.2987 19.079
7.3139 18.716
7.3291 18.971
7.3443 19.005
7.3594 18.950
7.3746 19.131
7.3898 19.232
7.4050 19.473
7.4201 19.459
7.4353 19.332
7.4505 19.402
7.4657 19.471
7.4808 19.265
7.4960 19.251
7.5112 19.354
7.5264 19.638
7.5415 19.612
7.5567 19.405
7.5719 19.775
7.5871 20.027
7.6022 19.943
7.6174 19.869
7.6326 20.106
7.6478 20.142
7.6629 19.952
7.6781 20.065
7.6933 20.273
7.7085 20.364
7.7236 20.319
7.7388 20.185
7.7540 20.009
7.7692 20.351
7.7843 20.486
7.7995 20.574
7.8147 20.542
7.8299 20.377
7.8450 20.264
7.8602 20.595
7.8754 20.848
7.8905 20.662
7.9057 20.504
7.9209 20.704
7.9361 20.898
7.9512 20.924
7.9664 20.963
7.9816 21.119
7.9968 20.908
8.0119 20.790
8.0271 20.833
8.0423 21.119
8.0575 20.810
8.0726 20.969
8.0878 21.186
8.1030 21.199
8.1182 21.386
8.1333 21.203
8.1485 21.333
8.1637 21.741
8.1789 21.130
8.1940 21.206
8.2092 21.353
8.2244 21.377
8.2396 21.282
8.2547 21.532
8.2699 21.603
8.2851 21.505
8.3003 21.460
8.3154 21.409
8.3306 21.434
8.3458 22.265
8.3610 21.673
8.3761 22.070
8.3913 21.393
8.4065 21.843
8.4217 21.660
8.4368 21.498
8.4520 21.667
8.4672 21.625
8.4824 21.894
8.4975 21.840
8.5127 22.084
8.5279 21.952
8.5431 21.860
8.5582 22.030
8.5734 22.449
8.5886 22.228
8.6038 22.691
8.6189 21.944
8.6341 22.245
8.6493 21.845
8.6645 22.020
8.6796 22.251
8.6948 21.980
8.7100 22.602
8.7252 21.937
8.7403 21.887
8.7555 22.131
8.7707 22.290
8.7859 22.177
8.8010 22.203
8.8162 21.933
8.8314 22.321
8.8466 22.389
8.8617 22.283
8.8769 22.567
8.8921 22.462
8.9073 22.857
8.9224 23.097
8.9376 22.606
8.9528 22.586
8.9680 22.506
8.9831 22.671
8.9983 22.576
9.0135 22.572
9.0287 22.527
9.0438 23.168
9.0590 23.051
9.0742 22.836
9.0894 22.469
9.1045 22.315
9.1197 22.345
9.1349 22.747
9.1501 22.979
9.1652 22.868
9.1804 22.919
9.1956 22.964
9.2108 22.832
9.2259 22.712
9.2411 22.489
9.2563 22.772
9.2715 22.843
9.2866 22.774
9.3018 22.750
9.3170 23.108
9.3322 22.833
9.3473 22.738
9.3625 22.444
9.3777 22.533
9.3929 22.925
9.4080 23.361
9.4232 23.043
9.4384 23.285
9.4536 23.041
9.4687 22.688
9.4839 23.022
9.4991 23.027
9.5143 22.877
9.5294 22.773
9.5446 22.778
9.5598 23.059
9.5750 23.227
9.5901 23.207
9.6053 23.264
9.6205 23.544
9.6357 23.530
9.6508 23.429
9.6660 23.461
9.6812 23.215
9.6964 23.279
9.7115 23.679
9.7267 23.726
9.7419 23.828
9.7571 23.991
9.7722 23.795
9.7874 23.619
9.8026 23.506
9.8178 23.301
9.8329 23.314
9.8481 23.232
9.8633 22.990
9.8785 23.289
9.8936 23.120
9.9088 23.020
9.9240 23.383
9.9392 23.231
9.9543 23.066
9.9695 23.145
9.9847 23.137
9.9999 22.928
10.0150 23.009
10.0302 23.123
10.0454 22.915
10.0606 22.968
10.0757 23.182
10.0909 23.529
10.1061 23.399
10.1213 23.289
10.1364 23.086
10.1516 22.909
10.1668 23.198
10.1820 23.129
10.1971 23.374
10.2123 23.374
10.2275 22.958
10.2427 22.740
10.2578 22.711
10.2730 22.781
10.2882 22.441
10.3034 22.418
10.3185 22.841
10.3337 22.742
10.3489 22.758
10.3641 23.187
10.3792 22.697
10.3944 22.373
10.4096 22.304
10.4248 22.382
10.4399 22.736
10.4551 22.733
10.4703 22.745
10.4855 22.621
10.5006 22.492
10.5158 22.314
10.5310 22.382
10.5462 22.593
10.5613 22.522
10.5765 22.304
10.5917 22.564
10.6069 22.635
10.6220 22.458
10.6372 22.414
10.6524 22.381
10.6676 22.484
10.6827 22.322
10.6979 22.270
10.7131 22.270
10.7283 22.298
10.7434 22.080
10.7586 22.134
10.7738 21.951
10.7890 22.233
10.8041 22.276
10.8193 21.904
10.8345 22.137
10.8497 22.085
10.8648 21.870
10.8800 21.811
10.8952 21.749
10.9104 21.575
10.9255 21.782
10.9407 22.154
10.9559 22.346
10.9711 22.073
10.9862 21.862
11.0014 21.690
11.0166 21.979
11.0318 22.011
11.0469 21.658
11.0621 21.614
11.0773 21.402
11.0925 21.807
11.1076 21.776
11.1228 21.721
11.1380 21.838
11.1532 21.898
11.1683 21.613
11.1835 21.719
11.1987 21.946
11.2139 21.899
11.2290 21.497
11.2442 21.537
11.2594 22.046
11.2746 21.680
11.2897 21.740
11.3049 21.882
11.3201 21.488
11.3353 21.261
11.3504 21.305
11.3656 21.625
11.3808 21.607
11.3960 21.665
11.4111 21.796
11.4263 21.158
11.4415 21.086
11.4567 21.069
11.4718 21.195
11.4870 21.221
11.5022 20.978
11.5174 21.075
11.5325 20.738
11.5477 20.934
11.5629 21.140
11.5781 20.866
11.5932 20.545
11.6084 20.615
11.6236 20.730
11.6388 20.867
11.6539 20.442
11.6691 20.545
11.6843 20.776
11.6995 20.568
11.7146 20.532
11.7298 20.160
11.7450 20.223
11.7602 20.211
11.7753 19.839
11.7905 19.957
11.8057 20.039
11.8209 20.071
11.8360 20.205
11.8512 19.648
11.8664 19.656
11.8816 19.591
11.8967 19.767
11.9119 20.071
11.9271 19.625
11.9423 19.423
11.9574 19.288
11.9726 19.308
11.9878 19.408
12.0030 19.244
12.0181 19.286
12.0333 19.087
12.0485 18.915
12.0637 18.937
12.0788 18.654
12.0940 18.838
12.1092 18.879
12.1244 18.941
12.1395 18.797
12.1547 18.514
12.1699 18.599
12.1851 18.714
12.2002 18.579
12.2154 18.340
12.2306 18.162
12.2458 18.246
12.2609 18.058
12.2761 17.958
12.2913 17.884
12.3065 17.665
12.3216 17.574
12.3368 17.793
12.3520 17.618
12.3672 17.524
12.3823 17.686
12.3975 17.391
12.4127 16.994
12.4279 16.938
12.4430 16.809
12.4582 16.914
12.4734 16.802
12.4886 16.646
12.5037 16.568
12.5189 16.815
12.5341 16.598
12.5493 16.543
12.5644 16.316
12.5796 15.929
12.5948 16.059
12.6100 15.871
12.6251 15.809
12.6403 15.825
12.6555 15.971
12.6707 15.692
12.6858 15.759
12.7010 15.869
12.7162 15.897
12.7314 15.668
12.7465 15.409
12.7617 15.219
12.7769 15.277
12.7921 15.376
12.8072 15.333
12.8224 15.046
12.8376 15.153
12.8528 15.233
12.8679 15.080
12.8831 14.815
12.8983 14.561
12.9135 14.837
12.9286 14.838
12.9438 14.489
12.9590 14.286
12.9742 14.334
12.9893 14.333
13.0045 14.234
13.0197 14.062
13.0349 13.774
13.0500 13.682
13.0652 13.635
13.0804 13.789
13.0956 13.977
13.1107 13.870
13.1259 13.649
13.1411 13.528
13.1563 13.686
13.1714 13.621
13.1866 13.526
13.2018 13.669
13.2170 13.451
13.2321 13.004
13.2473 13.047
13.2625 13.363
13.2777 13.388
13.2928 13.234
13.3080 13.237
13.3232 13.262
13.3384 13.001
13.3535 12.959
13.3687 13.021
13.3839 13.091
13.3991 13.112
13.4142 12.982
13.4294 12.933
13.4446 12.921
13.4598 12.873
13.4749 12.721
13.4901 12.648
13.5053 12.541
13.5205 12.372
13.5356 12.412
13.5508 12.471
13.5660 12.322
13.5812 12.301
13.5963 12.292
13.6115 12.389
13.6267 12.160
13.6419 12.034
13.6570 12.160
13.6722 12.066
13.6874 12.166
13.7026 12.055
13.7177 12.203
13.7329 12.128
13.7481 11.950
13.7633 12.043
13.7784 12.024
13.7936 11.856
13.8088 12.086
13.8239 12.347
13.8391 12.421
13.8543 12.320
13.8695 12.281
13.8846 12.442
13.8998 12.303
13.9150 12.039
13.9302 12.148
13.9453 12.168
13.9605 11.963
13.9757 12.200
13.9909 11.828
14.0060 11.510
14.0212 11.564
14.0364 11.461
14.0516 11.578
14.0667 12.049
14.0819 11.929
14.0971 11.624
14.1123 11.669
14.1274 11.550
14.1426 11.476
14.1578 11.420
14.1730 11.752
14.1881 11.490
14.2033 11.910
14.2185 11.747
14.2337 11.602
14.2488 11.477
14.2640 11.658
14.2792 11.870
14.2944 11.802
14.3095 12.017
14.3247 12.164
14.3399 12.746
14.3551 12.727
14.3702 12.462
14.3854 12.851
14.4006 12.832
14.4158 12.890
14.4309 13.001
14.4461 12.863
14.4613 12.615
14.4765 12.204
14.4916 12.312
14.5068 11.956
14.5220 11.475
14.5372 11.569
14.5523 11.608
14.5675 11.039
14.5827 10.840
14.5979 11.015
14.6130 10.960
14.6282 10.827
14.6434 11.166
14.6586 10.603
14.6737 10.706
14.6889 10.744
14.7041 10.508
14.7193 10.672
14.7344 10.604
14.7496 10.751
14.7648 10.615
14.7800 10.743
14.7951 10.223
14.8103 10.482
14.8255 10.481
14.8407 10.319
14.8558 10.625
14.8710 10.666
14.8862 10.560
14.9014 10.488
14.9165 10.186
14.9317 10.576
14.9469 10.179
14.9621 10.269
14.9772 10.124
14.9924 10.654
15.0076 10.086
15.0228 10.394
15.0379 10.274
15.0531 10.406
15.0683 10.131
15.0835 10.190
15.0986 10.368
15.1138 10.288
15.1290 10.619
15.1442 10.200
15.1593 10.252
15.1745 10.081
15.1897 10.536
15.2049 9.901
15.2200 9.981
15.2352 10.220
15.2504 9.968
15.2656 9.817
15.2807 10.203
15.2959 10.167
15.3111 10.057
15.3263 10.183
15.3414 9.704
15.3566 10.227
15.3718 9.898
15.3870 10.133
15.4021 10.163
15.4173 10.239
15.4325 10.490
15.4477 10.252
15.4628 9.952
15.4780 10.171
15.4932 10.287
15.5084 9.996
15.5235 10.336
15.5387 10.018
15.5539 10.089
15.5691 9.851
15.5842 9.857
15.5994 9.807
15.6146 9.761
15.6298 9.955
15.6449 9.584
15.6601 9.917
15.6753 9.937
15.6905 9.837
15.7056 9.785
15.7208 9.751
15.7360 9.911
15.7512 9.899
15.7663 9.588
15.7815 9.845
15.7967 9.767
15.8119 9.858
15.8270 9.901
15.8422 9.694
15.8574 9.764
15.8726 9.509
15.8877 9.349
15.9029 9.765
15.9181 9.602
15.9333 9.375
15.9484 9.593
15.9636 9.536
15.9788 9.701
15.9940 9.570
16.0091 9.660
16.0243 9.711
16.0395 9.701
16.0547 9.570
16.0698 9.493
16.0850 9.393
16.1002 9.394
16.1154 9.518
16.1305 9.633
16.1457 9.610
16.1609 9.639
16.1761 9.577
16.1912 9.411
16.2064 9.540
16.2216 9.823
16.2368 9.864
16.2519 9.753
16.2671 9.812
16.2823 9.881
16.2975 9.608
16.3126 9.658
16.3278 9.759
16.3430 9.984
16.3582 9.813
16.3733 9.885
16.3885 10.116
16.4037 9.810
16.4189 9.667
16.4340 9.569
16.4492 9.608
16.4644 9.842
16.4796 9.876
16.4947 9.557
16.5099 9.460
16.5251 9.554
16.5403 9.678
16.5554 9.592
16.5706 9.460
16.5858 9.595
16.6010 9.619
16.6161 9.728
16.6313 9.728
16.6465 9.655
16.6617 9.549
16.6768 9.714
16.6920 9.763
16.7072 9.651
16.7224 9.853
16.7375 9.938
16.7527 9.996
16.7679 9.942
16.7831 9.912
16.7982 10.069
16.8134 10.034
16.8286 9.682
16.8438 9.649
16.8589 9.573
16.8741 9.834
16.8893 9.714
16.9045 9.448
16.9196 9.465
16.9348 9.589
16.9500 9.608
16.9652 9.626
16.9803 9.717
16.9955 9.778
17.0107 9.823
17.0259 9.733
17.0410 9.728
17.0562 10.044
17.0714 10.094
17.0866 10.115
17.1017 10.285
17.1169 10.607
17.1321 11.216
17.1473 11.397
17.1624 11.697
17.1776 12.383
17.1928 12.946
17.2080 13.876
17.2231 15.005
17.2383 16.153
17.2535 17.563
17.2687 18.613
17.2838 18.671
17.2990 17.682
17.3142 16.660
17.3294 16.113
17.3445 15.944
17.3597 15.955
17.3749 16.047
17.3901 15.582
17.4052 14.396
17.4204 13.412
17.4356 12.615
17.4508 12.009
17.4659 11.624
17.4811 11.493
17.4963 11.386
17.5115 11.219
17.5266 11.094
17.5418 10.998
17.5570 11.078
17.5722 10.984
17.5873 10.959
17.6025 11.145
17.6177 11.276
17.6329 11.402
17.6480 11.342
17.6632 11.513
17.6784 11.574
17.6936 11.285
17.7087 11.249
17.7239 11.138
17.7391 11.133
17.7543 11.091
17.7694 10.974
17.7846 11.073
17.7998 11.117
17.8150 11.078
17.8301 10.762
17.8453 10.431
17.8605 10.246
17.8757 10.168
17.8908 9.946
17.9060 10.123
17.9212 10.446
17.9364 10.320
17.9515 10.120
17.9667 10.054
17.9819 10.078
17.9971 10.108
18.0122 10.111
18.0274 10.248
18.0426 10.077
18.0578 10.062
18.0729 10.132
18.0881 10.130
18.1033 10.028
18.1185 9.861
18.1336 9.907
18.1488 9.930
18.1640 10.117
18.1792 10.027
18.1943 10.100
18.2095 9.958
18.2247 9.615
18.2399 9.600
18.2550 9.713
18.2702 9.810
18.2854 9.985
18.3006 9.970
18.3157 9.751
18.3309 9.724
18.3461 9.701
18.3613 9.637
18.3764 9.799
18.3916 9.927
18.4068 9.802
18.4220 9.764
18.4371 9.751
18.4523 9.719
18.4675 9.641
18.4827 9.725
18.4978 9.984
18.5130 9.998
18.5282 9.880
18.5434 9.726
18.5585 9.664
18.5737 9.915
18.5889 10.159
18.6041 9.894
18.6192 9.599
18.6344 9.996
18.6496 9.962
18.6648 9.774
18.6799 9.880
18.6951 9.828
18.7103 9.995
18.7255 9.729
18.7406 9.816
18.7558 10.017
18.7710 9.884
18.7862 9.752
18.8013 9.731
18.8165 10.015
18.8317 10.091
18.8469 9.909
18.8620 9.899
18.8772 9.948
18.8924 9.985
18.9076 9.938
18.9227 9.939
18.9379 10.091
18.9531 10.306
18.9683 10.252
18.9834 10.187
18.9986 10.331
19.0138 10.143
19.0290 10.312
19.0441 10.406
19.0593 10.231
19.0745 10.223
19.0897 10.334
19.1048 10.305
19.1200 10.451
19.1352 10.367
19.1504 10.309
19.1655 10.411
19.1807 10.449
19.1959 10.626
19.2111 10.757
19.2262 10.746
19.2414 10.943
19.2566 10.911
19.2718 10.776
19.2869 10.820
19.3021 10.932
19.3173 11.099
19.3325 11.331
19.3476 11.353
19.3628 11.268
19.3780 11.291
19.3932 11.353
19.4083 11.153
19.4235 11.194
19.4387 11.365
19.4539 11.335
19.4690 11.488
19.4842 11.484
19.4994 11.590
19.5146 11.705
19.5297 11.711
19.5449 11.877
19.5601 11.678
19.5753 11.544
19.5904 11.818
19.6056 11.904
19.6208 11.718
19.6360 11.819
19.6511 11.904
19.6663 11.853
19.6815 11.924
19.6967 11.937
19.7118 11.930
19.7270 11.917
19.7422 11.927
19.7574 11.923
19.7725 11.980
19.7877 12.002
19.8029 11.915
19.8180 12.026
19.8332 11.879
19.8484 11.947
19.8636 12.231
19.8787 12.472
19.8939 12.963
19.9091 13.359
19.9243 13.519
19.9394 13.807
19.9546 14.349
19.9698 14.445
19.9850 14.477
20.0001 14.362
20.0153 14.179
20.0305 14.060
20.0457 13.810
20.0608 13.955
20.0760 13.914
20.0912 13.832
20.1064 13.735
20.1215 13.697
20.1367 13.396
20.1519 12.973
20.1671 13.042
20.1822 12.939
20.1974 12.886
20.2126 13.002
20.2278 12.887
20.2429 12.784
20.2581 12.673
20.2733 12.461
20.2885 12.315
20.3036 11.977
20.3188 11.920
20.3340 11.846
20.3492 12.037
20.3643 11.992
20.3795 11.984
20.3947 11.946
20.4099 12.022
20.4250 11.656
20.4402 11.521
20.4554 11.482
20.4706 11.862
20.4857 11.877
20.5009 11.472
20.5161 11.466
20.5313 11.599
20.5464 11.654
20.5616 11.576
20.5768 11.551
20.5920 11.429
20.6071 10.905
20.6223 10.899
20.6375 11.167
20.6527 10.829
20.6678 11.034
20.6830 11.058
20.6982 10.712
20.7134 10.719
20.7285 10.846
20.7437 10.605
20.7589 10.563
20.7741 10.479
20.7892 10.415
20.8044 10.365
20.8196 10.286
20.8348 10.379
20.8499 10.272
20.8651 10.529
20.8803 10.452
20.8955 10.451
20.9106 10.517
20.9258 10.140
20.9410 10.306
20.9562 10.428
20.9713 10.235
20.9865 10.086
21.0017 10.137
21.0169 9.945
21.0320 10.049
21.0472 9.734
21.0624 9.985
21.0776 9.774
21.0927 10.058
21.1079 10.265
21.1231 9.914
21.1383 10.168
21.1534 9.711
21.1686 9.862
21.1838 9.699
21.1990 9.963
21.2141 10.051
21.2293 9.813
21.2445 9.548
21.2597 9.906
21.2748 9.587
21.2900 9.770
21.3052 9.768
21.3204 9.694
21.3355 9.750
21.3507 9.834
21.3659 9.449
21.3811 9.649
21.3962 9.673
21.4114 9.684
21.4266 9.771
21.4418 9.600
21.4569 9.111
21.4721 9.214
21.4873 9.503
21.5025 9.185
21.5176 9.278
21.5328 9.270
21.5480 9.369
21.5632 9.391
21.5783 9.025
21.5935 8.985
21.6087 9.289
21.6239 9.483
21.6390 9.405
21.6542 9.260
21.6694 9.051
21.6846 9.158
21.6997 9.184
21.7149 9.208
21.7301 9.215
21.7453 9.139
21.7604 8.953
21.7756 9.041
21.7908 9.162
21.8060 8.868
21.8211 9.012
21.8363 9.044
21.8515 9.086
21.8667 9.029
21.8818 9.202
21.8970 9.174
21.9122 9.075
21.9274 9.111
21.9425 8.920
21.9577 9.010
21.9729 9.089
21.9881 9.004
22.0032 8.816
22.0184 8.751
22.0336 8.897
22.0488 8.902
22.0639 8.787
22.0791 8.719
22.0943 8.777
22.1095 8.869
22.1246 8.670
22.1398 8.605
22.1550 8.557
22.1702 8.458
22.1853 8.729
22.2005 8.826
22.2157 8.831
22.2309 8.677
22.2460 8.629
22.2612 8.517
22.2764 8.546
22.2916 8.674
22.3067 8.632
22.3219 8.464
22.3371 8.356
22.3523 8.468
22.3674 8.501
22.3826 8.603
22.3978 8.322
22.4130 8.569
22.4281 8.677
22.4433 8.476
22.4585 8.415
22.4737 8.537
22.4888 8.174
22.5040 8.243
22.5192 8.644
22.5344 8.437
22.5495 8.457
22.5647 8.502
22.5799 8.165
22.5951 8.421
22.6102 8.682
22.6254 8.332
22.6406 8.298
22.6558 8.345
22.6709 8.345
22.6861 8.160
22.7013 8.388
22.7165 7.874
22.7316 6.464
