'Id: "" Comment: "" Operator: "Lab Manager" Anode: "Mo" Scantype: "Still (Eiger2R_500K (1D mode))" TimePerStep: "300" X: "11.8" Y: "9.4" Z: "11.284" 
7.2532 18.885
7.2684 18.847
7.2836 19.027
7.2987 18.825
7.3139 18.584
7.3291 19.441
7.3443 19.216
7.3594 19.254
7.3746 18.996
7.3898 19.725
7.4050 19.260
7.4201 19.270
7.4353 19.415
7.4505 19.385
7.4657 19.486
7.4808 19.466
7.4960 19.310
7.5112 19.416
7.5264 19.640
7.5415 19.951
7.5567 19.751
7.5719 19.827
7.5871 19.878
7.6022 20.064
7.6174 20.207
7.6326 20.104
7.6478 20.013
7.6629 20.172
7.6781 20.315
7.6933 20.286
7.7085 20.323
7.7236 20.226
7.7388 20.372
7.7540 20.499
7.7692 20.506
7.7843 20.470
7.7995 20.323
7.8147 20.193
7.8299 20.284
7.8450 20.479
7.8602 20.399
7.8754 20.540
7.8905 20.444
7.9057 20.664
7.9209 20.706
7.9361 20.889
7.9512 20.771
7.9664 20.831
7.9816 20.790
7.9968 20.910
8.0119 20.881
8.0271 20.730
8.0423 20.736
8.0575 20.949
8.0726 21.018
8.0878 21.254
8.1030 21.380
8.1182 21.164
8.1333 21.305
8.1485 21.122
8.1637 21.287
8.1789 20.982
8.1940 21.543
8.2092 21.765
8.2244 21.143
8.2396 21.242
8.2547 21.118
8.2699 21.378
8.2851 21.484
8.3003 21.342
8.3154 21.541
8.3306 21.818
8.3458 21.312
8.3610 21.482
8.3761 21.373
8.3913 21.732
8.4065 21.512
8.4217 21.442
8.4368 21.743
8.4520 22.124
8.4672 22.109
8.4824 21.619
8.4975 21.893
8.5127 21.853
8.5279 21.682
8.5431 21.986
8.5582 22.152
8.5734 22.437
8.5886 22.043
8.6038 22.312
8.6189 22.322
8.6341 22.103
8.6493 22.385
8.6645 22.330
8.6796 21.976
8.6948 22.080
8.7100 22.060
8.7252 21.987
8.7403 22.324
8.7555 22.474
8.7707 22.445
8.7859 22.803
8.8010 22.502
8.8162 22.154
8.8314 22.553
8.8466 21.906
8.8617 22.330
8.8769 22.276
8.8921 22.240
8.9073 22.325
8.9224 22.666
8.9376 22.773
8.9528 22.816
8.9680 22.476
8.9831 22.585
8.9983 22.786
9.0135 22.382
9.0287 22.814
9.0438 22.364
9.0590 22.373
9.0742 22.708
9.0894 22.574
9.1045 22.474
9.1197 22.810
9.1349 22.831
9.1501 22.646
9.1652 22.901
9.1804 22.833
9.1956 22.775
9.2108 22.889
9.2259 22.569
9.2411 22.381
9.2563 22.537
9.2715 22.644
9.2866 23.011
9.3018 22.875
9.3170 22.844
9.3322 22.824
9.3473 22.544
9.3625 22.807
9.3777 22.978
9.3929 22.781
9.4080 22.613
9.4232 22.808
9.4384 23.015
9.4536 23.093
9.4687 23.072
9.4839 23.085
9.4991 23.208
9.5143 23.248
9.5294 23.201
9.5446 23.074
9.5598 23.330
9.5750 23.453
9.5901 23.207
9.6053 23.186
9.6205 23.188
9.6357 23.264
9.6508 23.342
9.6660 23.458
9.6812 23.573
9.6964 23.717
9.7115 23.927
9.7267 24.083
9.7419 24.139
9.7571 24.155
9.7722 24.023
9.7874 23.958
9.8026 23.787
9.8178 23.489
9.8329 23.341
9.8481 23.127
9.8633 23.130
9.8785 23.145
9.8936 23.209
9.9088 23.188
9.9240 23.055
9.9392 22.989
9.9543 23.018
9.9695 23.634
9.9847 23.519
9.9999 23.436
10.0150 23.500
10.0302 23.052
10.0454 22.772
10.0606 22.824
10.0757 22.865
10.0909 23.072
10.1061 22.986
10.1213 23.110
10.1364 23.408
10.1516 23.391
10.1668 23.184
10.1820 22.851
10.1971 23.307
10.2123 23.496
10.2275 23.146
10.2427 22.825
10.2578 22.791
10.2730 23.129
10.2882 22.828
10.3034 22.696
10.3185 22.845
10.3337 22.849
10.3489 22.638
10.3641 22.918
10.3792 22.548
10.3944 22.271
10.4096 22.845
10.4248 22.765
10.4399 22.468
10.4551 23.059
10.4703 22.833
10.4855 22.723
10.5006 22.472
10.5158 22.328
10.5310 22.707
10.5462 22.758
10.5613 22.483
10.5765 22.477
10.5917 22.485
10.6069 22.568
10.6220 22.813
10.6372 22.872
10.6524 22.416
10.6676 22.342
10.6827 22.615
10.6979 22.166
10.7131 22.253
10.7283 22.246
10.7434 22.138
10.7586 22.209
10.7738 22.151
10.7890 22.065
10.8041 22.357
10.8193 22.147
10.8345 22.185
10.8497 22.197
10.8648 22.129
10.8800 21.780
10.8952 22.028
10.9104 22.364
10.9255 22.181
10.9407 21.806
10.9559 21.755
10.9711 21.849
10.9862 21.648
11.0014 21.714
11.0166 21.752
11.0318 21.781
11.0469 21.957
11.0621 21.707
11.0773 21.783
11.0925 21.849
11.1076 21.720
11.1228 21.417
11.1380 21.421
11.1532 22.073
11.1683 21.788
11.1835 21.720
11.1987 21.640
11.2139 21.543
11.2290 21.706
11.2442 21.965
11.2594 21.847
11.2746 21.656
11.2897 21.641
11.3049 21.651
11.3201 21.495
11.3353 21.374
11.3504 21.327
11.3656 21.663
11.3808 21.495
11.3960 21.382
11.4111 21.442
11.4263 21.156
11.4415 20.890
11.4567 21.221
11.4718 21.155
11.4870 20.966
11.5022 21.207
11.5174 20.940
11.5325 21.001
11.5477 20.953
11.5629 21.030
11.5781 21.030
11.5932 20.657
11.6084 21.085
11.6236 20.735
11.6388 20.687
11.6539 20.410
11.6691 20.480
11.6843 20.738
11.6995 20.310
11.7146 20.189
11.7298 20.369
11.7450 20.296
11.7602 20.218
11.7753 20.084
11.7905 20.010
11.8057 19.731
11.8209 19.592
11.8360 19.957
11.8512 19.966
11.8664 19.944
11.8816 19.632
11.8967 19.937
11.9119 19.758
11.9271 19.758
11.9423 19.596
11.9574 19.845
11.9726 19.544
11.9878 19.374
12.0030 19.174
12.0181 18.874
12.0333 19.290
12.0485 19.172
12.0637 19.241
12.0788 19.088
12.0940 18.868
12.1092 18.748
12.1244 18.264
12.1395 18.523
12.1547 18.642
12.1699 18.494
12.1851 18.415
12.2002 18.095
12.2154 17.999
12.2306 18.337
12.2458 17.972
12.2609 17.722
12.2761 17.718
12.2913 17.741
12.3065 17.704
12.3216 17.850
12.3368 17.647
12.3520 17.411
12.3672 17.403
12.3823 17.537
12.3975 17.555
12.4127 17.120
12.4279 17.097
12.4430 17.006
12.4582 16.733
12.4734 16.655
12.4886 16.918
12.5037 16.790
12.5189 16.689
12.5341 16.375
12.5493 16.090
12.5644 16.177
12.5796 16.184
12.5948 16.198
12.6100 16.379
12.6251 16.409
12.6403 16.147
12.6555 16.139
12.6707 16.271
12.6858 15.777
12.7010 15.665
12.7162 15.695
12.7314 15.450
12.7465 15.439
12.7617 15.208
12.7769 14.990
12.7921 15.256
12.8072 15.067
12.8224 14.735
12.8376 14.799
12.8528 15.121
12.8679 15.005
12.8831 14.871
12.8983 14.829
12.9135 14.455
12.9286 14.317
12.9438 14.450
12.9590 14.618
12.9742 14.456
12.9893 14.157
13.0045 14.259
13.0197 14.264
13.0349 14.022
13.0500 13.988
13.0652 14.227
13.0804 13.958
13.0956 13.676
13.1107 13.863
13.1259 13.780
13.1411 13.664
13.1563 13.641
13.1714 13.505
13.1866 13.495
13.2018 13.607
13.2170 13.605
13.2321 13.428
13.2473 13.193
13.2625 13.111
13.2777 13.058
13.2928 13.096
13.3080 13.144
13.3232 12.990
13.3384 12.844
13.3535 12.761
13.3687 12.885
13.3839 13.112
13.3991 13.176
13.4142 12.929
13.4294 12.641
13.4446 12.734
13.4598 12.865
13.4749 12.892
13.4901 12.859
13.5053 12.707
13.5205 12.563
13.5356 12.390
13.5508 12.371
13.5660 12.426
13.5812 12.241
13.5963 12.283
13.6115 12.314
13.6267 12.431
13.6419 12.257
13.6570 12.480
13.6722 12.464
13.6874 12.106
13.7026 11.836
13.7177 12.015
13.7329 12.378
13.7481 12.267
13.7633 12.152
13.7784 12.275
13.7936 12.105
13.8088 12.226
13.8239 12.421
13.8391 12.467
13.8543 12.170
13.8695 12.099
13.8846 12.124
13.8998 12.247
13.9150 12.101
13.9302 12.220
13.9453 12.177
13.9605 11.996
13.9757 12.001
13.9909 11.594
14.0060 11.635
14.0212 11.654
14.0364 11.803
14.0516 11.897
14.0667 11.428
14.0819 11.650
14.0971 11.812
14.1123 11.730
14.1274 11.762
14.1426 11.410
14.1578 11.559
14.1730 11.558
14.1881 11.573
14.2033 11.866
14.2185 11.885
14.2337 11.239
14.2488 11.350
14.2640 11.638
14.2792 11.445
14.2944 11.832
14.3095 12.180
14.3247 12.126
14.3399 12.288
14.3551 12.316
14.3702 12.650
14.3854 12.939
14.4006 12.927
14.4158 13.059
14.4309 12.702
14.4461 12.741
14.4613 12.618
14.4765 12.288
14.4916 12.146
14.5068 11.864
14.5220 11.801
14.5372 11.354
14.5523 11.159
14.5675 11.352
14.5827 11.021
14.5979 11.065
14.6130 10.707
14.6282 10.811
14.6434 10.642
14.6586 10.497
14.6737 10.636
14.6889 10.572
14.7041 10.679
14.7193 10.443
14.7344 10.813
14.7496 10.858
14.7648 10.544
14.7800 10.504
14.7951 10.489
14.8103 10.353
14.8255 10.571
14.8407 10.652
14.8558 10.474
14.8710 10.659
14.8862 10.389
14.9014 10.653
14.9165 10.964
14.9317 10.814
14.9469 10.336
14.9621 10.342
14.9772 10.495
14.9924 10.346
15.0076 10.029
15.0228 10.496
15.0379 10.116
15.0531 10.199
15.0683 10.093
15.0835 10.282
15.0986 10.166
15.1138 10.276
15.1290 10.095
15.1442 10.131
15.1593 9.826
15.1745 10.148
15.1897 10.447
15.2049 10.037
15.2200 9.894
15.2352 9.885
15.2504 10.005
15.2656 10.168
15.2807 10.235
15.2959 10.326
15.3111 9.590
15.3263 9.923
15.3414 9.527
15.3566 9.746
15.3718 9.682
15.3870 10.164
15.4021 10.082
15.4173 9.977
15.4325 10.250
15.4477 10.187
15.4628 9.977
15.4780 10.058
15.4932 10.069
15.5084 10.214
15.5235 9.936
15.5387 9.858
15.5539 9.803
15.5691 9.953
15.5842 9.854
15.5994 9.870
15.6146 9.750
15.6298 9.883
15.6449 9.551
15.6601 9.718
15.6753 9.630
15.6905 9.660
15.7056 9.714
15.7208 9.774
15.7360 9.741
15.7512 9.709
15.7663 9.707
15.7815 9.710
15.7967 9.707
15.8119 9.469
15.8270 9.719
15.8422 9.801
15.8574 9.716
15.8726 9.731
15.8877 9.917
15.9029 9.463
15.9181 9.329
15.9333 9.773
15.9484 9.609
15.9636 9.687
15.9788 9.709
15.9940 9.420
16.0091 9.462
16.0243 9.655
16.0395 9.775
16.0547 9.789
16.0698 9.410
16.0850 9.439
16.1002 9.462
16.1154 9.523
16.1305 9.711
16.1457 9.718
16.1609 9.613
16.1761 9.426
16.1912 9.754
16.2064 9.751
16.2216 9.666
16.2368 9.437
16.2519 9.748
16.2671 9.873
16.2823 9.937
16.2975 9.917
16.3126 9.723
16.3278 9.897
16.3430 9.877
16.3582 9.777
16.3733 9.804
16.3885 9.897
16.4037 9.931
16.4189 9.823
16.4340 9.561
16.4492 9.695
16.4644 9.404
16.4796 9.622
16.4947 9.616
16.5099 9.570
16.5251 9.628
16.5403 9.529
16.5554 9.468
16.5706 9.738
16.5858 9.597
16.6010 9.577
16.6161 9.414
16.6313 9.544
16.6465 9.668
16.6617 9.799
16.6768 9.997
16.6920 9.876
16.7072 9.744
16.7224 9.909
16.7375 9.932
16.7527 9.635
16.7679 9.563
16.7831 9.772
16.7982 9.836
16.8134 9.716
16.8286 9.738
16.8438 9.902
16.8589 9.702
16.8741 9.449
16.8893 9.574
16.9045 9.931
16.9196 9.859
16.9348 9.771
16.9500 9.836
16.9652 9.865
16.9803 9.842
16.9955 9.594
17.0107 9.763
17.0259 10.200
17.0410 10.088
17.0562 9.946
17.0714 10.132
17.0866 10.421
17.1017 10.563
17.1169 10.681
17.1321 11.063
17.1473 11.337
17.1624 11.744
17.1776 12.706
17.1928 13.296
17.2080 13.881
17.2231 15.026
17.2383 16.505
17.2535 17.771
17.2687 18.385
17.2838 18.553
17.2990 18.066
17.3142 17.042
17.3294 16.245
17.3445 16.065
17.3597 16.212
17.3749 15.802
17.3901 15.096
17.4052 14.526
17.4204 13.315
17.4356 12.335
17.4508 12.034
17.4659 11.683
17.4811 11.449
17.4963 11.319
17.5115 11.160
17.5266 10.886
17.5418 10.648
17.5570 10.809
17.5722 10.987
17.5873 10.968
17.6025 11.012
17.6177 11.061
17.6329 11.074
17.6480 11.129
17.6632 11.259
17.6784 11.313
17.6936 11.273
17.7087 11.270
17.7239 11.243
17.7391 11.073
17.7543 11.152
17.7694 11.080
17.7846 10.974
17.7998 10.802
17.8150 10.566
17.8301 10.555
17.8453 10.389
17.8605 10.235
17.8757 10.377
17.8908 10.515
17.9060 10.458
17.9212 10.311
17.9364 10.139
17.9515 9.976
17.9667 10.031
17.9819 10.429
17.9971 10.430
18.0122 10.373
18.0274 10.255
18.0426 10.182
18.0578 10.228
18.0729 10.231
18.0881 10.160
18.1033 10.173
18.1185 10.107
18.1336 9.983
18.1488 9.909
18.1640 10.006
18.1792 9.953
18.1943 9.746
18.2095 9.748
18.2247 10.013
18.2399 9.923
18.2550 9.901
18.2702 9.898
18.2854 9.937
18.3006 9.973
18.3157 9.847
18.3309 9.782
18.3461 10.044
18.3613 10.102
18.3764 9.832
18.3916 9.653
18.4068 9.843
18.4220 9.836
18.4371 9.808
18.4523 9.806
18.4675 9.848
18.4827 10.048
18.4978 9.975
18.5130 9.811
18.5282 9.777
18.5434 9.747
18.5585 9.740
18.5737 9.643
18.5889 9.699
18.6041 10.094
18.6192 9.902
18.6344 9.647
18.6496 9.762
18.6648 9.692
18.6799 9.707
18.6951 9.758
18.7103 9.615
18.7255 9.694
18.7406 9.778
18.7558 9.855
18.7710 9.866
18.7862 9.787
18.8013 9.773
18.8165 9.621
18.8317 9.720
18.8469 9.746
18.8620 9.813
18.8772 9.855
18.8924 9.870
18.9076 9.966
18.9227 9.906
18.9379 10.050
18.9531 10.034
18.9683 9.847
18.9834 9.921
18.9986 10.133
19.0138 10.269
19.0290 10.396
19.0441 10.188
19.0593 9.952
19.0745 10.158
19.0897 10.208
19.1048 10.690
19.1200 10.424
19.1352 10.335
19.1504 10.502
19.1655 10.567
19.1807 10.719
19.1959 10.674
19.2111 10.563
19.2262 10.754
19.2414 10.951
19.2566 10.957
19.2718 11.077
19.2869 11.062
19.3021 11.068
19.3173 11.123
19.3325 10.925
19.3476 10.999
19.3628 11.048
19.3780 11.284
19.3932 11.721
19.4083 11.557
19.4235 11.422
19.4387 11.436
19.4539 11.380
19.4690 11.354
19.4842 11.378
19.4994 11.448
19.5146 11.386
19.5297 11.444
19.5449 11.503
19.5601 11.621
19.5753 11.645
19.5904 11.629
19.6056 11.718
19.6208 11.789
19.6360 11.912
19.6511 12.254
19.6663 12.125
19.6815 11.856
19.6967 11.737
19.7118 11.665
19.7270 11.831
19.7422 11.989
19.7574 11.928
19.7725 11.804
19.7877 11.809
19.8029 11.995
19.8180 12.221
19.8332 12.330
19.8484 12.452
19.8636 12.455
19.8787 12.498
19.8939 12.757
19.9091 13.009
19.9243 13.413
19.9394 13.926
19.9546 14.226
19.9698 14.613
19.9850 14.617
20.0001 14.361
20.0153 14.301
20.0305 13.945
20.0457 13.641
20.0608 13.778
20.0760 14.046
20.0912 13.779
20.1064 13.711
20.1215 13.653
20.1367 13.463
20.1519 13.161
20.1671 13.034
20.1822 13.101
20.1974 12.907
20.2126 12.836
20.2278 12.644
20.2429 12.682
20.2581 12.672
20.2733 12.241
20.2885 11.965
20.3036 11.848
20.3188 12.000
20.3340 12.135
20.3492 12.029
20.3643 12.146
20.3795 11.941
20.3947 11.649
20.4099 11.632
20.4250 11.722
20.4402 11.732
20.4554 11.752
20.4706 11.749
20.4857 11.662
20.5009 11.607
20.5161 11.489
20.5313 11.539
20.5464 11.489
20.5616 11.170
20.5768 11.324
20.5920 11.429
20.6071 11.243
20.6223 11.109
20.6375 11.047
20.6527 10.979
20.6678 10.606
20.6830 10.823
20.6982 10.775
20.7134 10.675
20.7285 10.590
20.7437 10.645
20.7589 10.494
20.7741 10.223
20.7892 10.735
20.8044 10.528
20.8196 10.531
20.8348 10.410
20.8499 10.244
20.8651 10.295
20.8803 10.134
20.8955 10.208
20.9106 10.485
20.9258 10.348
20.9410 9.985
20.9562 10.128
20.9713 10.263
20.9865 10.226
21.0017 10.241
21.0169 10.273
21.0320 10.326
21.0472 9.920
21.0624 10.066
21.0776 10.011
21.0927 9.970
21.1079 9.879
21.1231 9.925
21.1383 9.579
21.1534 9.829
21.1686 9.789
21.1838 9.893
21.1990 9.806
21.2141 10.025
21.2293 9.665
21.2445 9.714
21.2597 10.011
21.2748 9.739
21.2900 9.753
21.3052 9.666
21.3204 9.701
21.3355 9.660
21.3507 9.484
21.3659 9.575
21.3811 9.299
21.3962 9.403
21.4114 9.906
21.4266 9.222
21.4418 9.450
21.4569 9.525
21.4721 9.479
21.4873 9.598
21.5025 9.481
21.5176 9.291
21.5328 9.429
21.5480 9.416
21.5632 9.147
21.5783 9.111
21.5935 9.239
21.6087 9.506
21.6239 9.315
21.6390 9.239
21.6542 9.241
21.6694 9.192
21.6846 9.106
21.6997 9.097
21.7149 9.188
21.7301 9.074
21.7453 8.999
21.7604 9.153
21.7756 8.843
21.7908 9.022
21.8060 9.129
21.8211 9.012
21.8363 8.982
21.8515 8.931
21.8667 9.023
21.8818 9.160
21.8970 9.187
21.9122 8.809
21.9274 8.887
21.9425 8.896
21.9577 9.014
21.9729 9.071
21.9881 8.973
22.0032 8.862
22.0184 8.891
22.0336 8.839
22.0488 8.713
22.0639 8.769
22.0791 8.819
22.0943 8.926
22.1095 8.938
22.1246 8.755
22.1398 8.836
22.1550 8.762
22.1702 8.670
22.1853 8.586
22.2005 8.683
22.2157 8.802
22.2309 8.741
22.2460 8.630
22.2612 8.549
22.2764 8.800
22.2916 8.677
22.3067 8.564
22.3219 8.724
22.3371 8.578
22.3523 8.457
22.3674 8.395
22.3826 8.655
22.3978 8.596
22.4130 8.433
22.4281 8.537
22.4433 8.586
22.4585 8.510
22.4737 8.229
22.4888 8.160
22.5040 8.504
22.5192 8.491
22.5344 8.448
22.5495 8.642
22.5647 8.340
22.5799 8.213
22.5951 8.447
22.6102 8.435
22.6254 8.180
22.6406 8.049
22.6558 8.273
22.6709 8.531
22.6861 8.206
22.7013 8.077
22.7165 7.724
22.7316 6.346
