'Id: "" Comment: "" Operator: "Lab Manager" Anode: "Mo" Scantype: "Still (Eiger2R_500K (1D mode))" TimePerStep: "300" X: "11.8" Y: "9.4" Z: "11.284" 
7.2532 18.723
7.2684 18.902
7.2836 19.181
7.2987 18.961
7.3139 19.126
7.3291 18.783
7.3443 19.025
7.3594 18.958
7.3746 19.613
7.3898 19.667
7.4050 19.096
7.4201 19.196
7.4353 19.364
7.4505 19.908
7.4657 19.944
7.4808 19.580
7.4960 19.825
7.5112 19.999
7.5264 19.633
7.5415 19.309
7.5567 19.266
7.5719 19.856
7.5871 19.972
7.6022 20.342
7.6174 20.151
7.6326 19.784
7.6478 20.110
7.6629 20.503
7.6781 20.262
7.6933 20.316
7.7085 20.457
7.7236 20.509
7.7388 20.278
7.7540 20.377
7.7692 20.589
7.7843 20.487
7.7995 20.507
7.8147 20.899
7.8299 21.185
7.8450 20.850
7.8602 20.519
7.8754 20.594
7.8905 20.936
7.9057 20.980
7.9209 21.052
7.9361 21.147
7.9512 20.931
7.9664 20.689
7.9816 20.483
7.9968 20.753
8.0119 21.102
8.0271 21.184
8.0423 21.496
8.0575 21.252
8.0726 21.494
8.0878 21.376
8.1030 21.152
8.1182 21.199
8.1333 21.630
8.1485 21.593
8.1637 21.399
8.1789 21.543
8.1940 21.647
8.2092 21.667
8.2244 21.745
8.2396 21.671
8.2547 21.462
8.2699 21.680
8.2851 21.748
8.3003 21.799
8.3154 21.698
8.3306 21.567
8.3458 21.956
8.3610 22.091
8.3761 22.242
8.3913 22.449
8.4065 21.997
8.4217 22.009
8.4368 21.844
8.4520 21.800
8.4672 21.799
8.4824 22.519
8.4975 21.934
8.5127 22.184
8.5279 21.719
8.5431 22.321
8.5582 22.258
8.5734 21.895
8.5886 22.285
8.6038 22.592
8.6189 22.075
8.6341 22.040
8.6493 22.050
8.6645 22.373
8.6796 22.502
8.6948 23.026
8.7100 22.559
8.7252 22.769
8.7403 22.399
8.7555 22.972
8.7707 22.945
8.7859 22.953
8.8010 22.665
8.8162 22.684
8.8314 22.621
8.8466 22.660
8.8617 22.352
8.8769 22.506
8.8921 22.735
8.9073 22.921
8.9224 23.286
8.9376 23.021
8.9528 22.617
8.9680 22.833
8.9831 23.048
8.9983 23.233
9.0135 22.908
9.0287 22.814
9.0438 22.803
9.0590 22.941
9.0742 22.640
9.0894 22.821
9.1045 22.844
9.1197 22.940
9.1349 23.038
9.1501 22.981
9.1652 22.795
9.1804 23.134
9.1956 23.067
9.2108 22.838
9.2259 23.435
9.2411 23.400
9.2563 23.240
9.2715 23.125
9.2866 22.967
9.3018 23.165
9.3170 23.230
9.3322 23.202
9.3473 23.278
9.3625 23.104
9.3777 23.038
9.3929 23.402
9.4080 23.389
9.4232 23.265
9.4384 23.424
9.4536 23.720
9.4687 23.286
9.4839 23.196
9.4991 23.268
9.5143 23.510
9.5294 23.406
9.5446 23.510
9.5598 23.204
9.5750 23.487
9.5901 23.740
9.6053 23.621
9.6205 23.366
9.6357 23.467
9.6508 23.565
9.6660 23.685
9.6812 23.883
9.6964 23.939
9.7115 23.876
9.7267 23.800
9.7419 23.824
9.7571 23.958
9.7722 23.942
9.7874 23.818
9.8026 23.829
9.8178 23.581
9.8329 23.333
9.8481 23.556
9.8633 23.481
9.8785 23.327
9.8936 23.337
9.9088 23.457
9.9240 23.767
9.9392 23.638
9.9543 23.213
9.9695 23.323
9.9847 23.422
9.9999 23.132
10.0150 23.061
10.0302 23.230
10.0454 23.509
10.0606 23.472
10.0757 23.288
10.0909 23.597
10.1061 23.735
10.1213 23.500
10.1364 23.495
10.1516 23.224
10.1668 23.349
10.1820 23.557
10.1971 23.455
10.2123 23.714
10.2275 23.872
10.2427 23.763
10.2578 23.793
10.2730 23.688
10.2882 23.870
10.3034 23.608
10.3185 23.375
10.3337 23.502
10.3489 23.378
10.3641 23.141
10.3792 23.088
10.3944 22.932
10.4096 23.278
10.4248 23.222
10.4399 22.872
10.4551 22.617
10.4703 22.591
10.4855 23.120
10.5006 23.339
10.5158 23.151
10.5310 22.562
10.5462 22.453
10.5613 22.451
10.5765 22.355
10.5917 22.532
10.6069 22.786
10.6220 22.941
10.6372 22.894
10.6524 22.607
10.6676 22.474
10.6827 22.640
10.6979 22.307
10.7131 22.426
10.7283 22.638
10.7434 22.353
10.7586 22.592
10.7738 22.164
10.7890 22.529
10.8041 22.501
10.8193 22.507
10.8345 23.048
10.8497 22.779
10.8648 22.436
10.8800 22.243
10.8952 22.432
10.9104 22.354
10.9255 21.951
10.9407 21.954
10.9559 21.722
10.9711 21.947
10.9862 22.290
11.0014 21.772
11.0166 22.119
11.0318 22.567
11.0469 22.492
11.0621 21.871
11.0773 21.834
11.0925 22.171
11.1076 22.021
11.1228 21.905
11.1380 21.966
11.1532 22.279
11.1683 21.885
11.1835 21.995
11.1987 22.134
11.2139 22.041
11.2290 22.020
11.2442 21.959
11.2594 21.930
11.2746 21.971
11.2897 21.783
11.3049 21.740
11.3201 21.558
11.3353 21.489
11.3504 21.665
11.3656 21.257
11.3808 21.690
11.3960 21.683
11.4111 21.444
11.4263 21.516
11.4415 21.236
11.4567 21.416
11.4718 21.394
11.4870 21.133
11.5022 21.300
11.5174 21.582
11.5325 21.142
11.5477 21.247
11.5629 21.023
11.5781 21.191
11.5932 21.291
11.6084 21.210
11.6236 20.932
11.6388 20.715
11.6539 20.568
11.6691 20.496
11.6843 20.682
11.6995 20.572
11.7146 20.526
11.7298 20.407
11.7450 20.664
11.7602 20.467
11.7753 20.311
11.7905 20.277
11.8057 20.043
11.8209 20.169
11.8360 20.018
11.8512 20.082
11.8664 20.263
11.8816 20.355
11.8967 20.092
11.9119 20.140
11.9271 20.021
11.9423 19.725
11.9574 19.568
11.9726 19.567
11.9878 19.408
12.0030 19.496
12.0181 19.219
12.0333 18.927
12.0485 18.733
12.0637 18.613
12.0788 18.905
12.0940 18.824
12.1092 18.840
12.1244 18.709
12.1395 18.816
12.1547 18.924
12.1699 18.794
12.1851 18.643
12.2002 18.440
12.2154 18.171
12.2306 18.036
12.2458 18.055
12.2609 18.203
12.2761 18.456
12.2913 18.022
12.3065 17.594
12.3216 17.824
12.3368 17.757
12.3520 17.670
12.3672 17.677
12.3823 17.603
12.3975 17.539
12.4127 17.524
12.4279 17.173
12.4430 17.144
12.4582 17.505
12.4734 17.389
12.4886 17.136
12.5037 17.058
12.5189 17.034
12.5341 16.671
12.5493 16.607
12.5644 16.135
12.5796 16.189
12.5948 16.492
12.6100 16.304
12.6251 16.100
12.6403 16.149
12.6555 16.255
12.6707 16.286
12.6858 16.113
12.7010 15.715
12.7162 15.783
12.7314 15.701
12.7465 15.448
12.7617 15.507
12.7769 15.472
12.7921 15.303
12.8072 15.279
12.8224 15.439
12.8376 15.151
12.8528 15.076
12.8679 15.496
12.8831 15.489
12.8983 15.125
12.9135 14.916
12.9286 14.822
12.9438 14.639
12.9590 14.667
12.9742 14.639
12.9893 14.575
13.0045 14.652
13.0197 14.358
13.0349 14.270
13.0500 14.235
13.0652 14.132
13.0804 14.179
13.0956 14.250
13.1107 14.278
13.1259 13.932
13.1411 13.813
13.1563 13.813
13.1714 13.713
13.1866 13.510
13.2018 13.420
13.2170 13.614
13.2321 13.681
13.2473 13.740
13.2625 13.489
13.2777 13.330
13.2928 13.470
13.3080 13.380
13.3232 13.256
13.3384 13.197
13.3535 13.138
13.3687 13.108
13.3839 13.289
13.3991 13.165
13.4142 12.964
13.4294 13.135
13.4446 12.949
13.4598 12.948
13.4749 12.683
13.4901 12.610
13.5053 12.787
13.5205 12.613
13.5356 12.628
13.5508 12.676
13.5660 12.598
13.5812 12.435
13.5963 12.272
13.6115 12.357
13.6267 12.392
13.6419 12.334
13.6570 12.225
13.6722 12.225
13.6874 12.321
13.7026 12.169
13.7177 12.231
13.7329 12.203
13.7481 12.478
13.7633 12.334
13.7784 12.334
13.7936 12.364
13.8088 12.522
13.8239 12.307
13.8391 12.607
13.8543 12.479
13.8695 12.421
13.8846 12.465
13.8998 12.483
13.9150 12.312
13.9302 12.026
13.9453 11.979
13.9605 11.946
13.9757 11.948
13.9909 11.964
14.0060 11.770
14.0212 11.838
14.0364 11.768
14.0516 11.414
14.0667 11.400
14.0819 11.644
14.0971 11.643
14.1123 11.628
14.1274 11.751
14.1426 11.655
14.1578 11.696
14.1730 11.630
14.1881 11.730
14.2033 11.767
14.2185 11.623
14.2337 11.562
14.2488 11.618
14.2640 11.873
14.2792 11.785
14.2944 11.847
14.3095 12.035
14.3247 12.011
14.3399 12.049
14.3551 12.351
14.3702 12.324
14.3854 12.535
14.4006 12.430
14.4158 12.534
14.4309 12.180
14.4461 12.192
14.4613 12.361
14.4765 12.094
14.4916 11.940
14.5068 11.726
14.5220 11.636
14.5372 11.906
14.5523 11.490
14.5675 11.167
14.5827 11.405
14.5979 11.158
14.6130 11.170
14.6282 11.214
14.6434 10.966
14.6586 11.083
14.6737 10.723
14.6889 10.885
14.7041 10.412
14.7193 10.763
14.7344 11.082
14.7496 11.003
14.7648 10.996
14.7800 11.095
14.7951 11.039
14.8103 10.861
14.8255 10.838
14.8407 10.495
14.8558 10.756
14.8710 10.743
14.8862 10.696
14.9014 10.587
14.9165 11.074
14.9317 10.891
14.9469 10.410
14.9621 10.590
14.9772 10.468
14.9924 10.722
15.0076 10.416
15.0228 10.223
15.0379 10.607
15.0531 10.649
15.0683 10.370
15.0835 10.580
15.0986 10.602
15.1138 10.194
15.1290 10.573
15.1442 10.481
15.1593 10.422
15.1745 10.384
15.1897 10.447
15.2049 10.254
15.2200 10.307
15.2352 10.453
15.2504 11.040
15.2656 10.540
15.2807 10.224
15.2959 10.643
15.3111 10.419
15.3263 10.506
15.3414 10.604
15.3566 10.301
15.3718 10.040
15.3870 10.441
15.4021 10.480
15.4173 10.327
15.4325 10.449
15.4477 10.503
15.4628 10.494
15.4780 10.637
15.4932 10.297
15.5084 10.235
15.5235 10.655
15.5387 10.590
15.5539 10.501
15.5691 10.191
15.5842 10.239
15.5994 10.141
15.6146 10.086
15.6298 10.195
15.6449 10.339
15.6601 9.960
15.6753 10.023
15.6905 9.902
15.7056 10.055
15.7208 9.590
15.7360 9.824
15.7512 9.971
15.7663 10.075
15.7815 10.016
15.7967 9.825
15.8119 9.849
15.8270 10.063
15.8422 9.958
15.8574 9.950
15.8726 9.794
15.8877 10.009
15.9029 9.655
15.9181 10.044
15.9333 9.932
15.9484 9.832
15.9636 9.695
15.9788 9.866
15.9940 9.775
16.0091 9.777
16.0243 9.750
16.0395 10.003
16.0547 9.725
16.0698 9.778
16.0850 9.743
16.1002 9.656
16.1154 9.556
16.1305 9.662
16.1457 9.897
16.1609 9.900
16.1761 9.897
16.1912 10.014
16.2064 10.024
16.2216 9.829
16.2368 9.794
16.2519 9.989
16.2671 9.980
16.2823 9.900
16.2975 9.907
16.3126 10.103
16.3278 10.176
16.3430 10.004
16.3582 10.122
16.3733 10.201
16.3885 10.139
16.4037 10.039
16.4189 10.107
16.4340 9.827
16.4492 9.642
16.4644 9.811
16.4796 9.930
16.4947 10.043
16.5099 10.018
16.5251 9.912
16.5403 9.604
16.5554 9.636
16.5706 9.743
16.5858 9.815
16.6010 9.785
16.6161 9.637
16.6313 9.836
16.6465 10.040
16.6617 9.967
16.6768 9.920
16.6920 9.860
16.7072 9.982
16.7224 10.168
16.7375 10.045
16.7527 10.129
16.7679 10.216
16.7831 10.020
16.7982 9.980
16.8134 9.957
16.8286 9.771
16.8438 9.783
16.8589 9.791
16.8741 9.719
16.8893 9.930
16.9045 10.064
16.9196 9.908
16.9348 9.940
16.9500 10.062
16.9652 10.047
16.9803 10.078
16.9955 9.946
17.0107 9.860
17.0259 9.990
17.0410 10.225
17.0562 10.258
17.0714 10.326
17.0866 10.291
17.1017 10.470
17.1169 10.739
17.1321 11.207
17.1473 11.522
17.1624 11.726
17.1776 12.500
17.1928 13.418
17.2080 14.134
17.2231 15.091
17.2383 16.597
17.2535 17.949
17.2687 18.751
17.2838 18.982
17.2990 18.561
17.3142 17.597
17.3294 16.747
17.3445 16.335
17.3597 16.053
17.3749 15.914
17.3901 15.537
17.4052 14.420
17.4204 13.075
17.4356 12.351
17.4508 11.913
17.4659 11.560
17.4811 11.627
17.4963 11.576
17.5115 11.365
17.5266 11.318
17.5418 11.281
17.5570 11.081
17.5722 10.997
17.5873 11.014
17.6025 11.133
17.6177 11.358
17.6329 11.046
17.6480 10.710
17.6632 10.551
17.6784 10.320
17.6936 10.338
17.7087 10.358
17.7239 10.302
17.7391 10.400
17.7543 10.223
17.7694 10.166
17.7846 10.127
17.7998 10.095
17.8150 10.018
17.8301 9.997
17.8453 10.079
17.8605 10.120
17.8757 10.468
17.8908 10.498
17.9060 10.378
17.9212 10.337
17.9364 10.106
17.9515 10.138
17.9667 10.295
17.9819 10.206
17.9971 10.151
18.0122 10.072
18.0274 10.119
18.0426 10.070
18.0578 10.123
18.0729 10.171
18.0881 10.165
18.1033 10.213
18.1185 10.209
18.1336 9.835
18.1488 9.936
18.1640 10.128
18.1792 9.979
18.1943 9.745
18.2095 9.891
18.2247 10.051
18.2399 9.960
18.2550 9.887
18.2702 9.867
18.2854 9.937
18.3006 9.893
18.3157 9.866
18.3309 9.965
18.3461 9.970
18.3613 9.749
18.3764 9.779
18.3916 9.897
18.4068 9.828
18.4220 9.853
18.4371 9.907
18.4523 9.954
18.4675 10.031
18.4827 9.901
18.4978 9.889
18.5130 9.944
18.5282 9.636
18.5434 9.728
18.5585 9.827
18.5737 9.677
18.5889 9.788
18.6041 9.761
18.6192 9.732
18.6344 9.550
18.6496 9.563
18.6648 9.772
18.6799 9.878
18.6951 9.933
18.7103 9.777
18.7255 9.654
18.7406 9.587
18.7558 9.645
18.7710 9.786
18.7862 9.805
18.8013 9.588
18.8165 9.716
18.8317 9.906
18.8469 10.019
18.8620 9.955
18.8772 10.028
18.8924 10.173
18.9076 10.196
18.9227 10.238
18.9379 10.239
18.9531 10.155
18.9683 10.020
18.9834 9.892
18.9986 9.935
19.0138 10.049
19.0290 10.030
19.0441 10.268
19.0593 10.370
19.0745 10.209
19.0897 10.330
19.1048 10.334
19.1200 10.274
19.1352 10.325
19.1504 10.410
19.1655 10.556
19.1807 10.760
19.1959 10.976
19.2111 10.835
19.2262 10.706
19.2414 10.826
19.2566 10.985
19.2718 10.973
19.2869 11.011
19.3021 10.883
19.3173 10.720
19.3325 10.999
19.3476 11.116
19.3628 10.994
19.3780 10.959
19.3932 11.124
19.4083 11.331
19.4235 11.311
19.4387 11.240
19.4539 11.413
19.4690 11.518
19.4842 11.454
19.4994 11.491
19.5146 11.545
19.5297 11.651
19.5449 11.706
19.5601 11.758
19.5753 11.710
19.5904 11.632
19.6056 11.653
19.6208 11.623
19.6360 11.517
19.6511 11.703
19.6663 11.933
19.6815 11.999
19.6967 11.806
19.7118 11.706
19.7270 11.726
19.7422 11.776
19.7574 11.632
19.7725 11.616
19.7877 11.727
19.8029 11.870
19.8180 12.129
19.8332 12.059
19.8484 12.160
19.8636 12.598
19.8787 12.790
19.8939 12.803
19.9091 13.147
19.9243 13.485
19.9394 13.498
19.9546 13.977
19.9698 14.355
19.9850 14.523
20.0001 14.918
20.0153 14.426
20.0305 14.104
20.0457 13.956
20.0608 13.799
20.0760 13.956
20.0912 13.787
20.1064 13.561
20.1215 13.479
20.1367 13.257
20.1519 13.089
20.1671 12.875
20.1822 12.627
20.1974 12.721
20.2126 12.915
20.2278 12.732
20.2429 12.637
20.2581 12.488
20.2733 12.246
20.2885 12.077
20.3036 11.720
20.3188 11.546
20.3340 11.705
20.3492 11.823
20.3643 11.680
20.3795 11.213
20.3947 11.019
20.4099 10.981
20.4250 10.859
20.4402 10.656
20.4554 11.021
20.4706 10.827
20.4857 10.736
20.5009 10.807
20.5161 10.386
20.5313 10.442
20.5464 10.727
20.5616 10.426
20.5768 10.464
20.5920 10.380
20.6071 10.501
20.6223 10.407
20.6375 10.538
20.6527 10.630
20.6678 10.532
20.6830 10.426
20.6982 10.438
20.7134 10.656
20.7285 10.406
20.7437 10.412
20.7589 10.333
20.7741 10.432
20.7892 10.516
20.8044 10.262
20.8196 10.323
20.8348 10.337
20.8499 10.094
20.8651 10.236
20.8803 10.157
20.8955 10.280
20.9106 10.296
20.9258 10.242
20.9410 10.312
20.9562 9.843
20.9713 10.048
20.9865 10.115
21.0017 9.870
21.0169 9.786
21.0320 9.819
21.0472 10.072
21.0624 9.963
21.0776 9.799
21.0927 9.945
21.1079 9.904
21.1231 9.688
21.1383 9.977
21.1534 9.795
21.1686 9.886
21.1838 9.798
21.1990 9.911
21.2141 9.765
21.2293 9.799
21.2445 9.565
21.2597 10.075
21.2748 9.508
21.2900 9.732
21.3052 9.792
21.3204 9.583
21.3355 9.694
21.3507 10.002
21.3659 9.657
21.3811 9.770
21.3962 9.609
21.4114 9.671
21.4266 9.400
21.4418 9.521
21.4569 9.570
21.4721 9.248
21.4873 9.483
21.5025 9.258
21.5176 9.190
21.5328 9.483
21.5480 9.565
21.5632 9.328
21.5783 9.187
21.5935 9.220
21.6087 9.113
21.6239 9.152
21.6390 9.365
21.6542 9.433
21.6694 9.263
21.6846 9.104
21.6997 9.102
21.7149 9.205
21.7301 9.258
21.7453 9.154
21.7604 8.914
21.7756 8.955
21.7908 9.136
21.8060 9.080
21.8211 8.823
21.8363 9.040
21.8515 9.289
21.8667 9.226
21.8818 9.051
21.8970 9.050
21.9122 9.077
21.9274 9.253
21.9425 9.120
21.9577 8.970
21.9729 8.989
21.9881 8.977
22.0032 9.064
22.0184 8.896
22.0336 8.682
22.0488 8.614
22.0639 8.786
22.0791 8.913
22.0943 8.957
22.1095 8.903
22.1246 8.767
22.1398 8.828
22.1550 8.837
22.1702 8.728
22.1853 8.712
22.2005 8.723
22.2157 8.772
22.2309 8.922
22.2460 8.810
22.2612 8.718
22.2764 8.708
22.2916 8.688
22.3067 8.508
22.3219 8.561
22.3371 8.702
22.3523 8.655
22.3674 8.390
22.3826 8.347
22.3978 8.588
22.4130 8.336
22.4281 8.459
22.4433 8.438
22.4585 8.494
22.4737 8.714
22.4888 8.590
22.5040 8.453
22.5192 8.552
22.5344 8.467
22.5495 8.566
22.5647 8.480
22.5799 8.394
22.5951 8.470
22.6102 8.230
22.6254 8.492
22.6406 8.635
22.6558 8.436
22.6709 8.484
22.6861 8.414
22.7013 8.565
22.7165 8.315
22.7316 6.580
