'Id: "" Comment: "" Operator: "Lab Manager" Anode: "Mo" Scantype: "Still (Eiger2R_500K (1D mode))" TimePerStep: "300" X: "11.8" Y: "9.4" Z: "11.284" 
7.2532 18.844
7.2684 19.103
7.2836 19.372
7.2987 18.977
7.3139 19.084
7.3291 18.937
7.3443 19.248
7.3594 19.367
7.3746 19.234
7.3898 19.119
7.4050 19.265
7.4201 19.332
7.4353 19.297
7.4505 19.433
7.4657 19.355
7.4808 19.273
7.4960 19.481
7.5112 19.638
7.5264 19.563
7.5415 20.181
7.5567 20.198
7.5719 20.148
7.5871 20.129
7.6022 20.326
7.6174 20.377
7.6326 20.229
7.6478 20.261
7.6629 20.361
7.6781 20.154
7.6933 20.101
7.7085 20.272
7.7236 20.573
7.7388 20.504
7.7540 20.317
7.7692 20.425
7.7843 20.579
7.7995 20.647
7.8147 20.813
7.8299 20.445
7.8450 20.397
7.8602 20.756
7.8754 20.607
7.8905 20.782
7.9057 20.988
7.9209 20.828
7.9361 20.999
7.9512 21.084
7.9664 21.050
7.9816 21.157
7.9968 21.073
8.0119 20.942
8.0271 21.371
8.0423 21.063
8.0575 21.103
8.0726 21.036
8.0878 21.123
8.1030 21.028
8.1182 21.149
8.1333 21.112
8.1485 21.204
8.1637 21.112
8.1789 21.415
8.1940 21.125
8.2092 21.358
8.2244 21.532
8.2396 21.552
8.2547 21.623
8.2699 21.730
8.2851 22.104
8.3003 21.913
8.3154 21.647
8.3306 21.961
8.3458 21.623
8.3610 21.784
8.3761 21.906
8.3913 22.008
8.4065 21.934
8.4217 22.081
8.4368 22.012
8.4520 21.463
8.4672 22.051
8.4824 22.257
8.4975 22.232
8.5127 21.886
8.5279 22.134
8.5431 22.404
8.5582 22.162
8.5734 21.949
8.5886 22.517
8.6038 22.478
8.6189 21.669
8.6341 22.451
8.6493 22.200
8.6645 22.383
8.6796 22.155
8.6948 22.212
8.7100 22.685
8.7252 22.155
8.7403 21.990
8.7555 22.532
8.7707 22.699
8.7859 22.624
8.8010 22.567
8.8162 22.415
8.8314 22.520
8.8466 22.832
8.8617 22.324
8.8769 22.392
8.8921 22.606
8.9073 22.393
8.9224 22.717
8.9376 22.528
8.9528 21.965
8.9680 22.841
8.9831 23.085
8.9983 23.150
9.0135 22.609
9.0287 22.667
9.0438 22.691
9.0590 22.747
9.0742 22.893
9.0894 22.904
9.1045 23.125
9.1197 22.619
9.1349 22.610
9.1501 22.728
9.1652 22.518
9.1804 22.812
9.1956 22.735
9.2108 22.930
9.2259 22.863
9.2411 22.856
9.2563 23.287
9.2715 23.188
9.2866 23.005
9.3018 22.992
9.3170 22.881
9.3322 23.258
9.3473 22.999
9.3625 23.094
9.3777 23.211
9.3929 23.224
9.4080 23.250
9.4232 23.182
9.4384 23.140
9.4536 23.170
9.4687 23.249
9.4839 23.162
9.4991 23.161
9.5143 22.950
9.5294 22.841
9.5446 22.875
9.5598 23.210
9.5750 23.119
9.5901 23.097
9.6053 23.396
9.6205 23.822
9.6357 23.654
9.6508 23.374
9.6660 23.558
9.6812 23.790
9.6964 23.865
9.7115 23.948
9.7267 24.021
9.7419 24.274
9.7571 24.004
9.7722 23.898
9.7874 24.081
9.8026 23.780
9.8178 23.786
9.8329 23.906
9.8481 23.808
9.8633 23.763
9.8785 23.835
9.8936 23.395
9.9088 23.126
9.9240 23.671
9.9392 23.847
9.9543 23.229
9.9695 23.135
9.9847 23.292
9.9999 23.311
10.0150 23.093
10.0302 23.316
10.0454 23.312
10.0606 23.118
10.0757 23.220
10.0909 23.445
10.1061 23.295
10.1213 23.103
10.1364 23.369
10.1516 23.265
10.1668 22.959
10.1820 23.102
10.1971 22.969
10.2123 23.073
10.2275 23.236
10.2427 23.131
10.2578 22.666
10.2730 22.663
10.2882 23.036
10.3034 22.977
10.3185 22.807
10.3337 22.729
10.3489 22.595
10.3641 22.887
10.3792 22.762
10.3944 22.971
10.4096 22.696
10.4248 22.601
10.4399 23.071
10.4551 23.040
10.4703 23.049
10.4855 22.953
10.5006 22.750
10.5158 22.738
10.5310 22.809
10.5462 22.710
10.5613 22.943
10.5765 23.266
10.5917 23.060
10.6069 22.813
10.6220 22.672
10.6372 22.741
10.6524 22.422
10.6676 22.286
10.6827 22.567
10.6979 22.522
10.7131 22.743
10.7283 22.663
10.7434 22.186
10.7586 22.212
10.7738 22.374
10.7890 22.561
10.8041 22.421
10.8193 22.425
10.8345 22.107
10.8497 22.023
10.8648 22.570
10.8800 22.525
10.8952 22.083
10.9104 22.049
10.9255 22.428
10.9407 21.937
10.9559 21.933
10.9711 21.910
10.9862 22.109
11.0014 22.123
11.0166 21.855
11.0318 22.192
11.0469 22.014
11.0621 21.875
11.0773 22.088
11.0925 21.886
11.1076 21.687
11.1228 21.814
11.1380 21.906
11.1532 21.744
11.1683 21.619
11.1835 21.914
11.1987 22.034
11.2139 21.706
11.2290 21.361
11.2442 21.426
11.2594 21.558
11.2746 21.678
11.2897 21.584
11.3049 21.912
11.3201 21.766
11.3353 21.314
11.3504 21.489
11.3656 21.899
11.3808 21.571
11.3960 21.913
11.4111 21.850
11.4263 21.469
11.4415 21.587
11.4567 21.370
11.4718 21.444
11.4870 21.457
11.5022 21.234
11.5174 21.086
11.5325 21.077
11.5477 20.869
11.5629 21.405
11.5781 21.433
11.5932 20.924
11.6084 21.155
11.6236 20.934
11.6388 20.528
11.6539 20.863
11.6691 20.805
11.6843 20.968
11.6995 20.592
11.7146 20.729
11.7298 20.614
11.7450 20.182
11.7602 20.106
11.7753 20.264
11.7905 20.231
11.8057 19.900
11.8209 19.856
11.8360 20.192
11.8512 19.855
11.8664 19.831
11.8816 19.627
11.8967 19.860
11.9119 19.592
11.9271 19.567
11.9423 19.266
11.9574 19.101
11.9726 18.967
11.9878 19.155
12.0030 19.174
12.0181 19.450
12.0333 19.482
12.0485 19.399
12.0637 19.114
12.0788 18.874
12.0940 18.882
12.1092 18.850
12.1244 18.454
12.1395 18.370
12.1547 18.675
12.1699 18.459
12.1851 18.002
12.2002 18.324
12.2154 18.395
12.2306 18.249
12.2458 18.270
12.2609 18.035
12.2761 17.933
12.2913 17.800
12.3065 17.998
12.3216 17.838
12.3368 17.571
12.3520 17.346
12.3672 17.333
12.3823 17.312
12.3975 17.456
12.4127 17.466
12.4279 17.039
12.4430 16.865
12.4582 16.994
12.4734 16.881
12.4886 17.059
12.5037 16.942
12.5189 16.637
12.5341 16.688
12.5493 16.516
12.5644 16.408
12.5796 16.443
12.5948 16.349
12.6100 16.246
12.6251 16.128
12.6403 16.013
12.6555 15.944
12.6707 15.991
12.6858 15.872
12.7010 15.783
12.7162 15.728
12.7314 15.754
12.7465 15.699
12.7617 15.598
12.7769 15.371
12.7921 15.223
12.8072 15.171
12.8224 15.231
12.8376 14.924
12.8528 14.778
12.8679 14.861
12.8831 14.855
12.8983 14.702
12.9135 14.526
12.9286 14.477
12.9438 14.503
12.9590 14.647
12.9742 14.764
12.9893 14.508
13.0045 14.257
13.0197 14.361
13.0349 14.326
13.0500 14.116
13.0652 14.026
13.0804 14.078
13.0956 14.040
13.1107 13.885
13.1259 13.841
13.1411 13.643
13.1563 13.575
13.1714 13.733
13.1866 13.779
13.2018 13.609
13.2170 13.606
13.2321 13.752
13.2473 13.616
13.2625 13.543
13.2777 13.572
13.2928 13.717
13.3080 13.686
13.3232 13.469
13.3384 13.226
13.3535 13.121
13.3687 13.078
13.3839 12.809
13.3991 12.891
13.4142 13.108
13.4294 13.045
13.4446 12.987
13.4598 12.877
13.4749 12.896
13.4901 12.853
13.5053 12.539
13.5205 12.721
13.5356 12.749
13.5508 12.341
13.5660 12.394
13.5812 12.508
13.5963 12.510
13.6115 12.306
13.6267 12.291
13.6419 12.203
13.6570 12.262
13.6722 12.275
13.6874 12.057
13.7026 12.154
13.7177 12.373
13.7329 12.256
13.7481 12.145
13.7633 12.022
13.7784 12.326
13.7936 11.862
13.8088 11.897
13.8239 12.211
13.8391 12.179
13.8543 12.203
13.8695 12.177
13.8846 12.386
13.8998 12.490
13.9150 11.941
13.9302 11.654
13.9453 12.089
13.9605 11.982
13.9757 11.713
13.9909 11.623
14.0060 11.662
14.0212 11.632
14.0364 11.583
14.0516 11.562
14.0667 11.530
14.0819 11.512
14.0971 11.491
14.1123 11.156
14.1274 11.221
14.1426 11.623
14.1578 11.439
14.1730 11.316
14.1881 11.259
14.2033 11.506
14.2185 11.505
14.2337 11.373
14.2488 11.310
14.2640 11.481
14.2792 11.773
14.2944 11.628
14.3095 11.759
14.3247 12.075
14.3399 11.817
14.3551 12.155
14.3702 12.696
14.3854 12.909
14.4006 13.112
14.4158 13.154
14.4309 13.086
14.4461 13.084
14.4613 12.669
14.4765 12.368
14.4916 12.322
14.5068 12.228
14.5220 11.947
14.5372 11.701
14.5523 11.507
14.5675 11.595
14.5827 11.171
14.5979 11.344
14.6130 11.381
14.6282 11.386
14.6434 11.235
14.6586 10.977
14.6737 10.617
14.6889 10.772
14.7041 10.921
14.7193 11.011
14.7344 11.211
14.7496 10.983
14.7648 10.647
14.7800 10.973
14.7951 10.989
14.8103 10.636
14.8255 10.863
14.8407 10.772
14.8558 10.883
14.8710 10.908
14.8862 10.745
14.9014 10.944
14.9165 11.169
14.9317 10.807
14.9469 10.450
14.9621 10.617
14.9772 10.618
14.9924 10.815
15.0076 10.253
15.0228 10.400
15.0379 10.403
15.0531 10.781
15.0683 10.475
15.0835 10.247
15.0986 10.553
15.1138 10.460
15.1290 10.233
15.1442 10.331
15.1593 10.462
15.1745 10.180
15.1897 10.074
15.2049 10.382
15.2200 10.367
15.2352 10.535
15.2504 10.175
15.2656 10.158
15.2807 10.228
15.2959 10.221
15.3111 10.006
15.3263 9.913
15.3414 10.189
15.3566 10.338
15.3718 10.402
15.3870 10.239
15.4021 10.385
15.4173 10.185
15.4325 10.289
15.4477 10.123
15.4628 10.046
15.4780 10.231
15.4932 10.156
15.5084 10.232
15.5235 10.332
15.5387 10.136
15.5539 10.154
15.5691 10.095
15.5842 10.258
15.5994 10.146
15.6146 10.044
15.6298 10.202
15.6449 10.093
15.6601 10.013
15.6753 9.864
15.6905 9.816
15.7056 9.734
15.7208 9.987
15.7360 9.518
15.7512 9.612
15.7663 9.724
15.7815 9.565
15.7967 10.072
15.8119 9.956
15.8270 9.774
15.8422 9.659
15.8574 9.675
15.8726 9.743
15.8877 9.806
15.9029 9.769
15.9181 9.811
15.9333 9.801
15.9484 9.664
15.9636 9.622
15.9788 9.543
15.9940 9.666
16.0091 9.740
16.0243 9.496
16.0395 9.946
16.0547 9.712
16.0698 9.713
16.0850 9.725
16.1002 9.708
16.1154 9.761
16.1305 9.601
16.1457 9.778
16.1609 9.791
16.1761 9.544
16.1912 9.443
16.2064 9.724
16.2216 9.676
16.2368 9.931
16.2519 10.028
16.2671 9.867
16.2823 9.966
16.2975 9.570
16.3126 9.839
16.3278 9.731
16.3430 10.000
16.3582 10.032
16.3733 10.314
16.3885 10.137
16.4037 10.027
16.4189 10.097
16.4340 9.965
16.4492 9.920
16.4644 9.929
16.4796 9.673
16.4947 9.738
16.5099 9.733
16.5251 9.793
16.5403 9.883
16.5554 9.907
16.5706 9.571
16.5858 9.393
16.6010 9.542
16.6161 9.584
16.6313 9.870
16.6465 9.989
16.6617 9.833
16.6768 9.705
16.6920 9.870
16.7072 9.951
16.7224 10.008
16.7375 9.957
16.7527 10.043
16.7679 10.218
16.7831 10.067
16.7982 10.137
16.8134 10.274
16.8286 10.184
16.8438 10.175
16.8589 9.902
16.8741 9.860
16.8893 10.239
16.9045 10.211
16.9196 10.088
16.9348 10.035
16.9500 9.905
16.9652 9.899
16.9803 10.089
16.9955 10.151
17.0107 10.112
17.0259 10.062
17.0410 10.312
17.0562 10.501
17.0714 10.458
17.0866 10.583
17.1017 10.840
17.1169 10.991
17.1321 11.206
17.1473 11.412
17.1624 11.895
17.1776 12.492
17.1928 13.139
17.2080 14.115
17.2231 15.130
17.2383 16.499
17.2535 17.781
17.2687 18.567
17.2838 18.742
17.2990 18.296
17.3142 17.317
17.3294 16.476
17.3445 16.362
17.3597 16.096
17.3749 15.737
17.3901 15.214
17.4052 14.013
17.4204 12.897
17.4356 12.483
17.4508 11.939
17.4659 11.434
17.4811 11.094
17.4963 10.818
17.5115 10.942
17.5266 10.767
17.5418 10.603
17.5570 10.756
17.5722 10.903
17.5873 10.612
17.6025 10.350
17.6177 10.376
17.6329 10.470
17.6480 10.593
17.6632 10.607
17.6784 10.656
17.6936 10.716
17.7087 10.924
17.7239 10.955
17.7391 10.633
17.7543 10.409
17.7694 10.612
17.7846 10.783
17.7998 11.121
17.8150 11.060
17.8301 10.764
17.8453 10.836
17.8605 10.868
17.8757 10.877
17.8908 10.730
17.9060 10.642
17.9212 10.297
17.9364 10.445
17.9515 10.752
17.9667 10.558
17.9819 10.444
17.9971 10.433
18.0122 10.417
18.0274 10.251
18.0426 10.090
18.0578 10.231
18.0729 10.259
18.0881 10.302
18.1033 10.213
18.1185 10.081
18.1336 9.877
18.1488 9.697
18.1640 9.802
18.1792 9.793
18.1943 9.826
18.2095 9.975
18.2247 9.881
18.2399 9.990
18.2550 10.003
18.2702 9.832
18.2854 9.763
18.3006 10.098
18.3157 10.041
18.3309 10.012
18.3461 10.177
18.3613 9.824
18.3764 9.740
18.3916 9.878
18.4068 9.761
18.4220 9.596
18.4371 9.660
18.4523 9.724
18.4675 9.851
18.4827 9.869
18.4978 10.017
18.5130 9.948
18.5282 9.942
18.5434 9.872
18.5585 9.869
18.5737 9.810
18.5889 9.638
18.6041 9.736
18.6192 10.045
18.6344 9.964
18.6496 9.787
18.6648 9.711
18.6799 9.804
18.6951 9.909
18.7103 9.841
18.7255 9.830
18.7406 9.705
18.7558 9.858
18.7710 10.180
18.7862 9.944
18.8013 9.580
18.8165 9.858
18.8317 10.050
18.8469 9.899
18.8620 10.037
18.8772 10.055
18.8924 9.948
18.9076 9.872
18.9227 10.024
18.9379 10.151
18.9531 10.167
18.9683 10.125
18.9834 10.158
18.9986 10.184
19.0138 10.163
19.0290 10.424
19.0441 10.226
19.0593 10.104
19.0745 10.362
19.0897 10.269
19.1048 10.304
19.1200 10.512
19.1352 10.306
19.1504 10.454
19.1655 10.398
19.1807 10.573
19.1959 10.830
19.2111 10.733
19.2262 10.545
19.2414 10.575
19.2566 10.821
19.2718 10.953
19.2869 10.987
19.3021 10.825
19.3173 10.906
19.3325 11.059
19.3476 11.026
19.3628 11.058
19.3780 11.161
19.3932 11.139
19.4083 11.183
19.4235 11.156
19.4387 11.240
19.4539 11.363
19.4690 11.294
19.4842 11.125
19.4994 11.248
19.5146 11.570
19.5297 11.693
19.5449 11.427
19.5601 11.286
19.5753 11.826
19.5904 11.905
19.6056 11.621
19.6208 11.582
19.6360 11.501
19.6511 11.441
19.6663 11.464
19.6815 11.648
19.6967 11.764
19.7118 11.796
19.7270 11.626
19.7422 11.527
19.7574 11.750
19.7725 11.733
19.7877 11.674
19.8029 11.841
19.8180 12.049
19.8332 12.127
19.8484 12.205
19.8636 12.401
19.8787 12.705
19.8939 12.819
19.9091 12.858
19.9243 13.496
19.9394 14.192
19.9546 14.385
19.9698 14.603
19.9850 14.503
20.0001 14.275
20.0153 14.323
20.0305 14.324
20.0457 14.144
20.0608 14.087
20.0760 13.908
20.0912 13.745
20.1064 13.569
20.1215 13.377
20.1367 13.237
20.1519 13.066
20.1671 12.900
20.1822 12.609
20.1974 12.725
20.2126 12.964
20.2278 12.739
20.2429 12.738
20.2581 12.405
20.2733 11.893
20.2885 11.498
20.3036 11.721
20.3188 11.847
20.3340 11.854
20.3492 12.048
20.3643 11.972
20.3795 11.309
20.3947 11.261
20.4099 11.148
20.4250 11.202
20.4402 11.170
20.4554 10.844
20.4706 10.770
20.4857 10.967
20.5009 10.928
20.5161 10.841
20.5313 10.959
20.5464 10.897
20.5616 10.565
20.5768 10.637
20.5920 10.818
20.6071 10.869
20.6223 10.611
20.6375 10.689
20.6527 10.730
20.6678 10.658
20.6830 10.669
20.6982 10.791
20.7134 10.349
20.7285 10.243
20.7437 10.473
20.7589 10.705
20.7741 10.532
20.7892 10.484
20.8044 10.364
20.8196 10.426
20.8348 10.415
20.8499 10.474
20.8651 10.456
20.8803 10.191
20.8955 10.184
20.9106 10.288
20.9258 10.294
20.9410 10.475
20.9562 10.173
20.9713 10.301
20.9865 10.491
21.0017 10.369
21.0169 10.657
21.0320 10.386
21.0472 10.038
21.0624 10.353
21.0776 10.202
21.0927 10.096
21.1079 9.931
21.1231 10.312
21.1383 9.866
21.1534 9.858
21.1686 9.957
21.1838 9.663
21.1990 9.857
21.2141 9.822
21.2293 9.714
21.2445 9.759
21.2597 9.564
21.2748 9.536
21.2900 9.771
21.3052 9.446
21.3204 9.611
21.3355 9.605
21.3507 9.673
21.3659 9.450
21.3811 9.199
21.3962 9.481
21.4114 9.477
21.4266 9.273
21.4418 9.489
21.4569 9.524
21.4721 9.342
21.4873 9.328
21.5025 9.561
21.5176 9.638
21.5328 9.415
21.5480 9.599
21.5632 9.383
21.5783 9.385
21.5935 9.290
21.6087 9.227
21.6239 9.239
21.6390 9.035
21.6542 9.244
21.6694 8.939
21.6846 9.091
21.6997 9.240
21.7149 9.291
21.7301 9.024
21.7453 8.964
21.7604 9.300
21.7756 9.261
21.7908 9.072
21.8060 8.776
21.8211 9.083
21.8363 9.374
21.8515 9.052
21.8667 9.009
21.8818 9.072
21.8970 9.138
21.9122 8.933
21.9274 8.867
21.9425 8.972
21.9577 8.949
21.9729 8.894
21.9881 9.046
22.0032 8.986
22.0184 8.961
22.0336 8.884
22.0488 8.820
22.0639 8.925
22.0791 8.901
22.0943 8.924
22.1095 8.940
22.1246 8.741
22.1398 8.510
22.1550 8.649
22.1702 8.864
22.1853 8.762
22.2005 8.561
22.2157 8.555
22.2309 8.743
22.2460 8.703
22.2612 8.637
22.2764 8.514
22.2916 8.663
22.3067 8.589
22.3219 8.536
22.3371 8.477
22.3523 8.457
22.3674 8.590
22.3826 8.384
22.3978 8.697
22.4130 8.729
22.4281 8.560
22.4433 8.309
22.4585 8.390
22.4737 8.650
22.4888 8.335
22.5040 8.480
22.5192 8.130
22.5344 8.508
22.5495 8.264
22.5647 8.519
22.5799 8.592
22.5951 8.464
22.6102 8.702
22.6254 8.336
22.6406 8.178
22.6558 8.526
22.6709 8.512
22.6861 8.499
22.7013 8.047
22.7165 8.104
22.7316 6.728
