'Id: "" Comment: "" Operator: "Lab Manager" Anode: "Mo" Scantype: "Still (Eiger2R_500K (1D mode))" TimePerStep: "300" X: "11.8" Y: "9.4" Z: "11.284" 
7.2532 19.169
7.2684 19.146
7.2836 18.976
7.2987 19.339
7.3139 18.806
7.3291 18.947
7.3443 19.313
7.3594 19.338
7.3746 18.948
7.3898 19.422
7.4050 19.472
7.4201 19.437
7.4353 19.140
7.4505 19.542
7.4657 19.660
7.4808 19.928
7.4960 19.707
7.5112 19.624
7.5264 19.544
7.5415 19.855
7.5567 19.622
7.5719 19.647
7.5871 19.873
7.6022 19.976
7.6174 19.987
7.6326 20.356
7.6478 20.343
7.6629 20.102
7.6781 20.125
7.6933 20.378
7.7085 20.456
7.7236 20.339
7.7388 20.325
7.7540 20.729
7.7692 20.689
7.7843 20.443
7.7995 20.471
7.8147 20.562
7.8299 20.454
7.8450 20.571
7.8602 20.801
7.8754 20.905
7.8905 20.767
7.9057 20.788
7.9209 21.032
7.9361 20.809
7.9512 20.903
7.9664 21.087
7.9816 21.072
7.9968 20.963
8.0119 21.093
8.0271 21.620
8.0423 21.664
8.0575 21.268
8.0726 20.943
8.0878 21.419
8.1030 21.883
8.1182 21.624
8.1333 21.382
8.1485 21.446
8.1637 21.635
8.1789 21.348
8.1940 21.533
8.2092 22.098
8.2244 21.971
8.2396 21.553
8.2547 21.746
8.2699 21.876
8.2851 21.959
8.3003 21.888
8.3154 21.788
8.3306 21.597
8.3458 21.810
8.3610 21.769
8.3761 21.781
8.3913 21.941
8.4065 22.145
8.4217 21.874
8.4368 22.091
8.4520 22.220
8.4672 22.346
8.4824 21.905
8.4975 22.048
8.5127 22.310
8.5279 22.188
8.5431 22.387
8.5582 21.966
8.5734 22.133
8.5886 22.162
8.6038 22.437
8.6189 22.272
8.6341 22.188
8.6493 22.527
8.6645 22.431
8.6796 22.855
8.6948 21.969
8.7100 22.251
8.7252 22.432
8.7403 22.404
8.7555 22.545
8.7707 22.408
8.7859 22.874
8.8010 22.818
8.8162 22.570
8.8314 22.906
8.8466 22.538
8.8617 22.497
8.8769 22.734
8.8921 22.816
8.9073 22.470
8.9224 22.352
8.9376 22.478
8.9528 23.287
8.9680 23.345
8.9831 22.495
8.9983 22.686
9.0135 22.872
9.0287 22.814
9.0438 22.433
9.0590 22.687
9.0742 22.675
9.0894 22.188
9.1045 23.032
9.1197 23.113
9.1349 22.933
9.1501 22.793
9.1652 22.968
9.1804 22.805
9.1956 22.862
9.2108 23.047
9.2259 22.686
9.2411 23.062
9.2563 23.242
9.2715 22.831
9.2866 22.788
9.3018 23.067
9.3170 22.940
9.3322 23.294
9.3473 23.166
9.3625 22.759
9.3777 23.272
9.3929 23.229
9.4080 22.585
9.4232 22.820
9.4384 23.438
9.4536 23.213
9.4687 22.733
9.4839 22.747
9.4991 22.793
9.5143 22.670
9.5294 22.747
9.5446 22.985
9.5598 23.353
9.5750 23.186
9.5901 23.224
9.6053 23.513
9.6205 23.348
9.6357 23.188
9.6508 23.441
9.6660 23.638
9.6812 23.585
9.6964 23.735
9.7115 23.865
9.7267 24.032
9.7419 23.928
9.7571 24.111
9.7722 24.619
9.7874 24.171
9.8026 23.605
9.8178 23.796
9.8329 23.624
9.8481 23.498
9.8633 23.598
9.8785 23.678
9.8936 23.741
9.9088 23.905
9.9240 23.981
9.9392 23.875
9.9543 23.562
9.9695 23.626
9.9847 23.475
9.9999 23.359
10.0150 23.426
10.0302 23.307
10.0454 23.095
10.0606 23.160
10.0757 23.169
10.0909 23.097
10.1061 22.968
10.1213 23.131
10.1364 23.128
10.1516 23.159
10.1668 23.078
10.1820 23.158
10.1971 23.525
10.2123 23.544
10.2275 23.160
10.2427 23.179
10.2578 22.932
10.2730 22.865
10.2882 23.068
10.3034 23.081
10.3185 23.017
10.3337 23.072
10.3489 22.967
10.3641 23.401
10.3792 23.453
10.3944 23.073
10.4096 22.812
10.4248 22.732
10.4399 22.980
10.4551 23.003
10.4703 22.871
10.4855 22.628
10.5006 22.829
10.5158 22.532
10.5310 22.339
10.5462 22.760
10.5613 22.675
10.5765 23.050
10.5917 22.791
10.6069 22.453
10.6220 22.887
10.6372 22.854
10.6524 22.866
10.6676 22.650
10.6827 22.709
10.6979 22.872
10.7131 22.904
10.7283 22.580
10.7434 22.030
10.7586 22.338
10.7738 22.498
10.7890 22.334
10.8041 22.196
10.8193 22.183
10.8345 22.181
10.8497 22.191
10.8648 22.442
10.8800 22.387
10.8952 22.056
10.9104 22.195
10.9255 22.395
10.9407 22.413
10.9559 22.192
10.9711 22.182
10.9862 22.357
11.0014 21.923
11.0166 22.025
11.0318 22.275
11.0469 22.132
11.0621 21.741
11.0773 21.830
11.0925 22.024
11.1076 22.407
11.1228 22.197
11.1380 21.882
11.1532 21.564
11.1683 21.613
11.1835 21.645
11.1987 21.593
11.2139 21.862
11.2290 21.326
11.2442 21.142
11.2594 21.466
11.2746 21.664
11.2897 21.425
11.3049 21.709
11.3201 21.957
11.3353 21.632
11.3504 21.655
11.3656 21.753
11.3808 21.602
11.3960 21.531
11.4111 21.538
11.4263 21.305
11.4415 21.318
11.4567 21.755
11.4718 21.154
11.4870 21.135
11.5022 21.331
11.5174 21.260
11.5325 21.201
11.5477 21.220
11.5629 20.970
11.5781 21.103
11.5932 21.305
11.6084 20.819
11.6236 20.677
11.6388 20.952
11.6539 20.720
11.6691 20.836
11.6843 20.651
11.6995 20.607
11.7146 20.639
11.7298 20.226
11.7450 20.368
11.7602 20.633
11.7753 20.023
11.7905 19.907
11.8057 19.872
11.8209 19.917
11.8360 20.285
11.8512 19.786
11.8664 19.968
11.8816 19.627
11.8967 19.614
11.9119 19.927
11.9271 20.069
11.9423 19.787
11.9574 19.450
11.9726 19.427
11.9878 19.566
12.0030 19.016
12.0181 18.862
12.0333 19.202
12.0485 18.895
12.0637 18.938
12.0788 19.135
12.0940 18.729
12.1092 18.612
12.1244 18.793
12.1395 18.853
12.1547 18.836
12.1699 18.621
12.1851 18.346
12.2002 18.335
12.2154 18.069
12.2306 17.946
12.2458 18.328
12.2609 18.301
12.2761 17.852
12.2913 17.779
12.3065 17.883
12.3216 17.807
12.3368 17.601
12.3520 17.427
12.3672 17.426
12.3823 17.397
12.3975 17.207
12.4127 17.136
12.4279 17.188
12.4430 17.101
12.4582 16.868
12.4734 17.071
12.4886 17.169
12.5037 17.096
12.5189 16.591
12.5341 16.424
12.5493 16.450
12.5644 16.366
12.5796 16.332
12.5948 16.012
12.6100 15.805
12.6251 16.222
12.6403 16.217
12.6555 15.877
12.6707 15.768
12.6858 15.770
12.7010 15.772
12.7162 15.550
12.7314 15.351
12.7465 15.300
12.7617 15.635
12.7769 15.525
12.7921 14.970
12.8072 15.134
12.8224 15.263
12.8376 15.228
12.8528 15.023
12.8679 14.771
12.8831 14.735
12.8983 14.645
12.9135 14.777
12.9286 14.648
12.9438 14.556
12.9590 14.637
12.9742 14.650
12.9893 14.655
13.0045 14.481
13.0197 14.137
13.0349 14.099
13.0500 14.149
13.0652 14.194
13.0804 14.131
13.0956 13.794
13.1107 13.699
13.1259 13.924
13.1411 13.823
13.1563 13.850
13.1714 13.823
13.1866 13.491
13.2018 13.587
13.2170 13.587
13.2321 13.453
13.2473 13.636
13.2625 13.641
13.2777 13.395
13.2928 13.478
13.3080 13.345
13.3232 13.339
13.3384 13.351
13.3535 13.324
13.3687 13.574
13.3839 13.357
13.3991 13.116
13.4142 13.068
13.4294 13.170
13.4446 13.133
13.4598 12.995
13.4749 12.775
13.4901 12.682
13.5053 12.693
13.5205 12.473
13.5356 12.415
13.5508 12.482
13.5660 12.638
13.5812 12.513
13.5963 12.264
13.6115 12.301
13.6267 12.315
13.6419 12.261
13.6570 12.162
13.6722 12.112
13.6874 12.055
13.7026 12.188
13.7177 12.072
13.7329 11.956
13.7481 12.036
13.7633 12.071
13.7784 12.035
13.7936 12.309
13.8088 12.403
13.8239 12.426
13.8391 12.424
13.8543 12.431
13.8695 12.394
13.8846 12.222
13.8998 12.134
13.9150 12.411
13.9302 12.430
13.9453 12.329
13.9605 11.722
13.9757 11.457
13.9909 11.603
14.0060 11.687
14.0212 11.602
14.0364 11.703
14.0516 11.425
14.0667 11.316
14.0819 11.494
14.0971 11.284
14.1123 11.283
14.1274 11.265
14.1426 11.294
14.1578 11.370
14.1730 11.444
14.1881 11.225
14.2033 11.405
14.2185 11.246
14.2337 11.127
14.2488 11.217
14.2640 11.617
14.2792 11.654
14.2944 11.693
14.3095 11.970
14.3247 12.251
14.3399 11.934
14.3551 12.141
14.3702 12.129
14.3854 12.653
14.4006 12.440
14.4158 12.978
14.4309 12.958
14.4461 12.932
14.4613 12.483
14.4765 12.697
14.4916 12.378
14.5068 12.210
14.5220 12.142
14.5372 11.983
14.5523 11.409
14.5675 11.639
14.5827 10.890
14.5979 11.366
14.6130 11.033
14.6282 11.057
14.6434 11.269
14.6586 11.087
14.6737 11.066
14.6889 10.987
14.7041 11.199
14.7193 10.896
14.7344 10.822
14.7496 10.958
14.7648 11.081
14.7800 11.005
14.7951 11.250
14.8103 10.964
14.8255 10.984
14.8407 11.052
14.8558 11.097
14.8710 10.784
14.8862 10.869
14.9014 11.077
14.9165 10.845
14.9317 11.030
14.9469 10.806
14.9621 10.558
14.9772 10.861
14.9924 10.725
15.0076 10.510
15.0228 10.574
15.0379 10.687
15.0531 10.230
15.0683 10.538
15.0835 10.502
15.0986 10.629
15.1138 10.194
15.1290 10.426
15.1442 10.454
15.1593 10.387
15.1745 10.322
15.1897 10.322
15.2049 10.277
15.2200 10.404
15.2352 10.321
15.2504 10.205
15.2656 10.309
15.2807 10.378
15.2959 10.321
15.3111 10.258
15.3263 10.524
15.3414 10.150
15.3566 10.369
15.3718 10.310
15.3870 10.662
15.4021 10.144
15.4173 10.247
15.4325 10.431
15.4477 10.377
15.4628 10.324
15.4780 10.358
15.4932 10.529
15.5084 10.233
15.5235 10.314
15.5387 10.233
15.5539 10.295
15.5691 10.485
15.5842 10.389
15.5994 10.131
15.6146 10.396
15.6298 10.428
15.6449 10.127
15.6601 10.302
15.6753 10.050
15.6905 9.825
15.7056 9.969
15.7208 9.901
15.7360 9.704
15.7512 9.677
15.7663 9.759
15.7815 9.740
15.7967 9.742
15.8119 10.005
15.8270 9.994
15.8422 9.579
15.8574 9.731
15.8726 9.570
15.8877 9.729
15.9029 9.920
15.9181 9.880
15.9333 9.648
15.9484 9.895
15.9636 9.738
15.9788 9.752
15.9940 9.716
16.0091 9.775
16.0243 9.729
16.0395 9.831
16.0547 9.713
16.0698 9.471
16.0850 9.682
16.1002 9.657
16.1154 9.656
16.1305 9.691
16.1457 9.566
16.1609 9.553
16.1761 9.708
16.1912 9.792
16.2064 9.989
16.2216 9.523
16.2368 9.577
16.2519 9.865
16.2671 9.865
16.2823 9.962
16.2975 10.138
16.3126 10.002
16.3278 9.791
16.3430 9.760
16.3582 10.089
16.3733 10.118
16.3885 10.206
16.4037 9.863
16.4189 9.934
16.4340 9.812
16.4492 9.824
16.4644 10.071
16.4796 10.250
16.4947 10.146
16.5099 9.721
16.5251 9.657
16.5403 9.768
16.5554 9.909
16.5706 9.782
16.5858 9.689
16.6010 9.682
16.6161 10.037
16.6313 9.816
16.6465 9.618
16.6617 9.794
16.6768 10.020
16.6920 10.032
16.7072 10.099
16.7224 10.324
16.7375 10.139
16.7527 9.920
16.7679 9.771
16.7831 9.958
16.7982 10.170
16.8134 10.032
16.8286 9.932
16.8438 9.777
16.8589 9.739
16.8741 9.849
16.8893 10.087
16.9045 9.960
16.9196 9.872
16.9348 9.836
16.9500 9.767
16.9652 9.995
16.9803 10.307
16.9955 10.258
17.0107 9.940
17.0259 9.968
17.0410 10.191
17.0562 10.319
17.0714 10.495
17.0866 10.813
17.1017 10.895
17.1169 10.897
17.1321 11.008
17.1473 11.360
17.1624 11.789
17.1776 12.267
17.1928 13.082
17.2080 14.122
17.2231 15.312
17.2383 16.465
17.2535 17.902
17.2687 18.668
17.2838 18.662
17.2990 18.210
17.3142 17.144
17.3294 16.429
17.3445 15.907
17.3597 15.824
17.3749 15.790
17.3901 15.006
17.4052 14.157
17.4204 13.293
17.4356 12.480
17.4508 11.880
17.4659 11.348
17.4811 11.114
17.4963 11.130
17.5115 11.160
17.5266 10.930
17.5418 10.580
17.5570 10.439
17.5722 10.459
17.5873 10.536
17.6025 10.531
17.6177 10.397
17.6329 10.235
17.6480 10.441
17.6632 10.371
17.6784 10.248
17.6936 10.520
17.7087 10.468
17.7239 10.566
17.7391 10.607
17.7543 10.514
17.7694 10.792
17.7846 10.937
17.7998 10.781
17.8150 10.685
17.8301 10.522
17.8453 10.593
17.8605 10.884
17.8757 11.108
17.8908 11.066
17.9060 10.907
17.9212 10.721
17.9364 10.701
17.9515 10.633
17.9667 10.599
17.9819 10.586
17.9971 10.451
18.0122 10.465
18.0274 10.429
18.0426 10.449
18.0578 10.250
18.0729 10.151
18.0881 10.189
18.1033 10.303
18.1185 10.338
18.1336 10.023
18.1488 9.868
18.1640 9.949
18.1792 10.017
18.1943 10.003
18.2095 9.900
18.2247 10.115
18.2399 10.037
18.2550 9.971
18.2702 9.847
18.2854 9.960
18.3006 10.036
18.3157 9.830
18.3309 9.825
18.3461 10.082
18.3613 9.956
18.3764 9.914
18.3916 9.885
18.4068 9.855
18.4220 9.809
18.4371 9.801
18.4523 9.731
18.4675 9.746
18.4827 9.779
18.4978 9.961
18.5130 10.022
18.5282 9.849
18.5434 9.924
18.5585 9.611
18.5737 9.602
18.5889 9.809
18.6041 9.978
18.6192 10.022
18.6344 9.911
18.6496 10.028
18.6648 9.796
18.6799 9.783
18.6951 9.909
18.7103 9.997
18.7255 9.972
18.7406 9.716
18.7558 9.829
18.7710 9.889
18.7862 9.827
18.8013 9.705
18.8165 9.609
18.8317 9.792
18.8469 9.925
18.8620 9.942
18.8772 10.094
18.8924 10.102
18.9076 10.022
18.9227 10.108
18.9379 9.983
18.9531 9.939
18.9683 9.893
18.9834 10.044
18.9986 10.252
19.0138 10.149
19.0290 10.080
19.0441 10.180
19.0593 10.376
19.0745 10.180
19.0897 10.238
19.1048 10.211
19.1200 10.122
19.1352 10.282
19.1504 10.628
19.1655 10.759
19.1807 10.523
19.1959 10.538
19.2111 10.606
19.2262 10.942
19.2414 11.066
19.2566 10.728
19.2718 10.971
19.2869 10.935
19.3021 10.819
19.3173 11.035
19.3325 11.059
19.3476 10.926
19.3628 11.060
19.3780 11.361
19.3932 11.301
19.4083 11.291
19.4235 11.443
19.4387 11.524
19.4539 11.429
19.4690 11.243
19.4842 11.255
19.4994 11.500
19.5146 11.618
19.5297 11.587
19.5449 11.395
19.5601 11.415
19.5753 11.563
19.5904 11.654
19.6056 11.763
19.6208 11.785
19.6360 11.551
19.6511 11.489
19.6663 11.503
19.6815 11.537
19.6967 11.509
19.7118 11.678
19.7270 11.888
19.7422 11.671
19.7574 11.858
19.7725 12.033
19.7877 11.823
19.8029 11.847
19.8180 11.860
19.8332 11.917
19.8484 12.133
19.8636 12.527
19.8787 12.836
19.8939 13.123
19.9091 13.339
19.9243 13.629
19.9394 14.124
19.9546 14.323
19.9698 14.564
19.9850 14.692
20.0001 14.515
20.0153 14.357
20.0305 14.006
20.0457 13.597
20.0608 13.599
20.0760 13.747
20.0912 13.698
20.1064 13.523
20.1215 13.297
20.1367 13.369
20.1519 13.067
20.1671 12.835
20.1822 12.725
20.1974 12.672
20.2126 12.673
20.2278 12.455
20.2429 12.256
20.2581 12.146
20.2733 11.847
20.2885 11.698
20.3036 11.699
20.3188 11.736
20.3340 11.703
20.3492 11.683
20.3643 11.539
20.3795 11.112
20.3947 11.020
20.4099 10.815
20.4250 10.804
20.4402 11.011
20.4554 11.000
20.4706 10.754
20.4857 10.807
20.5009 10.713
20.5161 10.954
20.5313 10.846
20.5464 10.840
20.5616 10.762
20.5768 10.860
20.5920 10.732
20.6071 10.703
20.6223 10.365
20.6375 10.605
20.6527 10.709
20.6678 10.912
20.6830 10.540
20.6982 10.607
20.7134 10.411
20.7285 10.400
20.7437 10.286
20.7589 10.254
20.7741 10.403
20.7892 10.548
20.8044 10.400
20.8196 10.096
20.8348 10.099
20.8499 10.460
20.8651 10.234
20.8803 10.434
20.8955 10.398
20.9106 10.399
20.9258 10.239
20.9410 10.331
20.9562 10.214
20.9713 10.391
20.9865 10.269
21.0017 10.691
21.0169 10.396
21.0320 10.429
21.0472 10.175
21.0624 10.309
21.0776 10.432
21.0927 10.362
21.1079 10.056
21.1231 9.849
21.1383 9.706
21.1534 9.908
21.1686 9.771
21.1838 9.627
21.1990 9.881
21.2141 9.938
21.2293 9.621
21.2445 9.628
21.2597 9.708
21.2748 10.070
21.2900 9.532
21.3052 9.726
21.3204 9.519
21.3355 9.698
21.3507 9.386
21.3659 9.461
21.3811 9.461
21.3962 9.403
21.4114 9.275
21.4266 9.526
21.4418 9.511
21.4569 9.463
21.4721 9.377
21.4873 9.348
21.5025 9.412
21.5176 9.420
21.5328 9.491
21.5480 9.353
21.5632 9.189
21.5783 9.232
21.5935 9.144
21.6087 9.049
21.6239 9.350
21.6390 9.156
21.6542 9.440
21.6694 8.967
21.6846 8.764
21.6997 8.993
21.7149 8.834
21.7301 9.213
21.7453 8.924
21.7604 9.140
21.7756 9.189
21.7908 8.896
21.8060 9.062
21.8211 8.960
21.8363 9.130
21.8515 9.249
21.8667 9.121
21.8818 9.165
21.8970 8.904
21.9122 8.877
21.9274 9.039
21.9425 8.912
21.9577 9.013
21.9729 9.117
21.9881 8.930
22.0032 8.927
22.0184 8.904
22.0336 8.687
22.0488 8.777
22.0639 8.784
22.0791 8.677
22.0943 8.635
22.1095 8.849
22.1246 8.790
22.1398 8.661
22.1550 8.667
22.1702 8.687
22.1853 8.637
22.2005 8.784
22.2157 8.787
22.2309 8.631
22.2460 8.573
22.2612 8.592
22.2764 8.606
22.2916 8.485
22.3067 8.557
22.3219 8.643
22.3371 8.508
22.3523 8.466
22.3674 8.432
22.3826 8.623
22.3978 8.494
22.4130 8.545
22.4281 8.455
22.4433 8.437
22.4585 8.684
22.4737 8.463
22.4888 8.734
22.5040 8.542
22.5192 8.392
22.5344 8.513
22.5495 8.363
22.5647 8.353
22.5799 8.362
22.5951 8.512
22.6102 8.428
22.6254 8.647
22.6406 8.271
22.6558 8.521
22.6709 8.306
22.6861 8.405
22.7013 8.223
22.7165 7.777
22.7316 6.461
