'Id: "" Comment: "" Operator: "Lab Manager" Anode: "Mo" Scantype: "Still (Eiger2R_500K (1D mode))" TimePerStep: "300" X: "11.8" Y: "9.4" Z: "11.284" 
7.2532 19.167
7.2684 19.199
7.2836 18.454
7.2987 18.904
7.3139 19.006
7.3291 19.098
7.3443 19.432
7.3594 19.625
7.3746 19.590
7.3898 19.306
7.4050 19.398
7.4201 19.743
7.4353 19.709
7.4505 19.709
7.4657 19.749
7.4808 19.567
7.4960 19.778
7.5112 19.611
7.5264 19.941
7.5415 19.711
7.5567 19.725
7.5719 20.059
7.5871 20.148
7.6022 19.792
7.6174 19.988
7.6326 20.014
7.6478 20.064
7.6629 20.057
7.6781 20.151
7.6933 20.561
7.7085 20.698
7.7236 20.463
7.7388 20.774
7.7540 20.812
7.7692 20.646
7.7843 20.624
7.7995 20.640
7.8147 20.713
7.8299 20.760
7.8450 20.864
7.8602 20.812
7.8754 20.428
7.8905 20.522
7.9057 20.784
7.9209 20.735
7.9361 20.945
7.9512 21.038
7.9664 20.857
7.9816 20.786
7.9968 21.029
8.0119 21.056
8.0271 21.016
8.0423 20.855
8.0575 20.796
8.0726 21.286
8.0878 21.365
8.1030 21.068
8.1182 21.333
8.1333 21.429
8.1485 21.614
8.1637 21.682
8.1789 21.764
8.1940 21.857
8.2092 21.758
8.2244 21.692
8.2396 21.651
8.2547 21.686
8.2699 21.744
8.2851 21.936
8.3003 21.598
8.3154 21.988
8.3306 21.971
8.3458 21.880
8.3610 22.108
8.3761 22.253
8.3913 22.150
8.4065 22.020
8.4217 21.739
8.4368 22.110
8.4520 22.323
8.4672 22.067
8.4824 22.120
8.4975 22.190
8.5127 21.391
8.5279 21.982
8.5431 21.913
8.5582 22.243
8.5734 22.211
8.5886 22.136
8.6038 21.879
8.6189 22.289
8.6341 22.385
8.6493 22.767
8.6645 22.709
8.6796 22.698
8.6948 22.306
8.7100 21.902
8.7252 22.387
8.7403 22.337
8.7555 22.435
8.7707 22.045
8.7859 22.597
8.8010 22.896
8.8162 22.661
8.8314 22.810
8.8466 22.623
8.8617 22.494
8.8769 23.066
8.8921 22.622
8.9073 22.837
8.9224 22.918
8.9376 22.622
8.9528 22.667
8.9680 22.865
8.9831 22.916
8.9983 22.517
9.0135 22.969
9.0287 22.880
9.0438 22.682
9.0590 22.527
9.0742 23.241
9.0894 22.791
9.1045 22.565
9.1197 22.683
9.1349 22.840
9.1501 22.993
9.1652 23.058
9.1804 22.691
9.1956 22.473
9.2108 22.868
9.2259 23.363
9.2411 23.124
9.2563 23.092
9.2715 22.983
9.2866 22.760
9.3018 22.631
9.3170 22.805
9.3322 23.140
9.3473 23.004
9.3625 22.904
9.3777 23.057
9.3929 23.319
9.4080 23.137
9.4232 23.328
9.4384 23.446
9.4536 23.173
9.4687 23.205
9.4839 23.244
9.4991 23.096
9.5143 23.353
9.5294 23.178
9.5446 23.206
9.5598 23.635
9.5750 23.749
9.5901 23.596
9.6053 23.730
9.6205 23.671
9.6357 23.717
9.6508 23.610
9.6660 23.517
9.6812 23.887
9.6964 24.001
9.7115 23.875
9.7267 24.127
9.7419 24.271
9.7571 24.086
9.7722 24.136
9.7874 24.497
9.8026 24.372
9.8178 23.723
9.8329 23.683
9.8481 23.628
9.8633 23.582
9.8785 23.995
9.8936 23.915
9.9088 23.765
9.9240 24.057
9.9392 24.042
9.9543 24.060
9.9695 24.050
9.9847 23.691
9.9999 23.393
10.0150 23.386
10.0302 23.200
10.0454 23.097
10.0606 23.332
10.0757 23.408
10.0909 23.397
10.1061 23.307
10.1213 23.011
10.1364 22.921
10.1516 23.071
10.1668 23.324
10.1820 23.131
10.1971 22.946
10.2123 22.738
10.2275 23.172
10.2427 23.270
10.2578 23.042
10.2730 23.125
10.2882 23.209
10.3034 23.257
10.3185 23.012
10.3337 23.205
10.3489 23.435
10.3641 23.292
10.3792 23.004
10.3944 23.074
10.4096 23.039
10.4248 22.924
10.4399 22.929
10.4551 22.832
10.4703 22.783
10.4855 22.679
10.5006 22.382
10.5158 22.595
10.5310 22.718
10.5462 22.515
10.5613 22.291
10.5765 22.174
10.5917 22.344
10.6069 22.599
10.6220 22.243
10.6372 22.587
10.6524 22.831
10.6676 22.620
10.6827 22.758
10.6979 22.545
10.7131 22.533
10.7283 22.441
10.7434 22.225
10.7586 22.530
10.7738 22.432
10.7890 22.100
10.8041 22.458
10.8193 22.647
10.8345 22.060
10.8497 22.140
10.8648 21.957
10.8800 21.932
10.8952 21.911
10.9104 22.442
10.9255 22.086
10.9407 22.126
10.9559 22.353
10.9711 22.481
10.9862 22.342
11.0014 22.372
11.0166 22.603
11.0318 22.514
11.0469 21.628
11.0621 21.887
11.0773 22.240
11.0925 22.048
11.1076 21.872
11.1228 21.991
11.1380 21.750
11.1532 22.050
11.1683 21.848
11.1835 21.554
11.1987 21.873
11.2139 21.792
11.2290 21.803
11.2442 21.885
11.2594 21.652
11.2746 21.605
11.2897 21.580
11.3049 21.778
11.3201 21.701
11.3353 21.098
11.3504 21.296
11.3656 21.327
11.3808 21.505
11.3960 21.258
11.4111 21.300
11.4263 21.379
11.4415 20.997
11.4567 21.048
11.4718 21.555
11.4870 21.739
11.5022 21.286
11.5174 21.236
11.5325 21.260
11.5477 21.235
11.5629 21.059
11.5781 20.893
11.5932 20.763
11.6084 20.732
11.6236 21.077
11.6388 20.641
11.6539 20.675
11.6691 20.550
11.6843 20.248
11.6995 20.393
11.7146 20.627
11.7298 20.814
11.7450 20.319
11.7602 20.520
11.7753 20.433
11.7905 20.412
11.8057 20.482
11.8209 20.336
11.8360 20.091
11.8512 20.014
11.8664 19.938
11.8816 19.648
11.8967 19.650
11.9119 19.759
11.9271 19.458
11.9423 19.506
11.9574 19.478
11.9726 19.574
11.9878 19.651
12.0030 19.413
12.0181 19.122
12.0333 19.092
12.0485 19.105
12.0637 19.133
12.0788 18.906
12.0940 18.903
12.1092 18.798
12.1244 18.768
12.1395 18.428
12.1547 18.433
12.1699 18.377
12.1851 18.607
12.2002 18.744
12.2154 18.729
12.2306 18.238
12.2458 17.814
12.2609 17.874
12.2761 17.735
12.2913 17.944
12.3065 17.658
12.3216 17.832
12.3368 17.708
12.3520 17.364
12.3672 17.438
12.3823 17.595
12.3975 17.530
12.4127 17.326
12.4279 17.050
12.4430 17.213
12.4582 17.430
12.4734 17.323
12.4886 16.964
12.5037 16.749
12.5189 16.678
12.5341 16.876
12.5493 16.711
12.5644 16.507
12.5796 16.300
12.5948 16.064
12.6100 16.240
12.6251 16.113
12.6403 15.914
12.6555 15.927
12.6707 15.861
12.6858 15.740
12.7010 15.743
12.7162 15.747
12.7314 15.828
12.7465 15.686
12.7617 15.299
12.7769 15.357
12.7921 15.176
12.8072 14.755
12.8224 14.725
12.8376 14.842
12.8528 14.809
12.8679 14.599
12.8831 14.503
12.8983 14.685
12.9135 14.732
12.9286 14.491
12.9438 14.307
12.9590 14.562
12.9742 14.489
12.9893 14.326
13.0045 14.377
13.0197 14.328
13.0349 14.307
13.0500 14.144
13.0652 14.052
13.0804 14.163
13.0956 14.037
13.1107 13.778
13.1259 13.901
13.1411 13.862
13.1563 13.611
13.1714 13.518
13.1866 13.643
13.2018 13.792
13.2170 13.571
13.2321 13.380
13.2473 13.267
13.2625 13.313
13.2777 13.345
13.2928 13.408
13.3080 13.270
13.3232 13.087
13.3384 13.355
13.3535 13.355
13.3687 13.209
13.3839 13.039
13.3991 13.117
13.4142 12.944
13.4294 12.842
13.4446 12.866
13.4598 12.679
13.4749 12.740
13.4901 12.753
13.5053 12.575
13.5205 12.642
13.5356 12.829
13.5508 12.576
13.5660 12.526
13.5812 12.527
13.5963 12.488
13.6115 12.213
13.6267 12.171
13.6419 12.272
13.6570 12.503
13.6722 12.330
13.6874 12.094
13.7026 12.167
13.7177 12.325
13.7329 12.232
13.7481 12.066
13.7633 12.366
13.7784 12.472
13.7936 12.269
13.8088 12.298
13.8239 12.525
13.8391 12.283
13.8543 12.180
13.8695 12.163
13.8846 12.400
13.8998 12.460
13.9150 12.254
13.9302 12.516
13.9453 12.436
13.9605 12.043
13.9757 11.863
13.9909 12.014
14.0060 11.811
14.0212 11.531
14.0364 11.605
14.0516 11.399
14.0667 11.536
14.0819 11.541
14.0971 11.549
14.1123 11.473
14.1274 11.413
14.1426 11.445
14.1578 11.457
14.1730 11.588
14.1881 11.626
14.2033 11.727
14.2185 11.527
14.2337 11.475
14.2488 11.698
14.2640 11.662
14.2792 11.447
14.2944 11.682
14.3095 11.496
14.3247 11.676
14.3399 11.668
14.3551 11.878
14.3702 12.093
14.3854 12.016
14.4006 12.644
14.4158 12.363
14.4309 12.797
14.4461 12.510
14.4613 12.408
14.4765 12.414
14.4916 12.338
14.5068 12.300
14.5220 11.822
14.5372 11.489
14.5523 11.767
14.5675 11.591
14.5827 11.508
14.5979 11.322
14.6130 11.317
14.6282 11.223
14.6434 11.204
14.6586 10.966
14.6737 10.971
14.6889 10.963
14.7041 10.821
14.7193 10.945
14.7344 11.177
14.7496 11.206
14.7648 10.923
14.7800 11.051
14.7951 11.185
14.8103 11.119
14.8255 11.004
14.8407 11.096
14.8558 11.123
14.8710 10.731
14.8862 10.694
14.9014 11.048
14.9165 10.832
14.9317 10.982
14.9469 10.630
14.9621 10.791
14.9772 10.541
14.9924 10.557
15.0076 10.590
15.0228 10.566
15.0379 10.578
15.0531 10.614
15.0683 10.492
15.0835 10.631
15.0986 10.730
15.1138 10.619
15.1290 10.413
15.1442 10.318
15.1593 10.514
15.1745 10.533
15.1897 10.308
15.2049 10.165
15.2200 10.163
15.2352 10.326
15.2504 10.196
15.2656 10.670
15.2807 10.271
15.2959 10.278
15.3111 10.440
15.3263 10.133
15.3414 10.596
15.3566 10.272
15.3718 10.213
15.3870 10.108
15.4021 10.365
15.4173 10.207
15.4325 10.546
15.4477 10.296
15.4628 10.506
15.4780 10.416
15.4932 10.409
15.5084 10.148
15.5235 10.493
15.5387 10.400
15.5539 10.486
15.5691 10.401
15.5842 9.763
15.5994 9.843
15.6146 10.000
15.6298 10.109
15.6449 10.034
15.6601 9.983
15.6753 10.005
15.6905 9.776
15.7056 9.937
15.7208 10.077
15.7360 9.991
15.7512 10.228
15.7663 10.325
15.7815 10.208
15.7967 9.940
15.8119 9.882
15.8270 9.901
15.8422 9.985
15.8574 9.813
15.8726 9.782
15.8877 9.974
15.9029 9.719
15.9181 9.565
15.9333 9.601
15.9484 9.858
15.9636 9.904
15.9788 9.658
15.9940 9.663
16.0091 9.895
16.0243 10.113
16.0395 9.857
16.0547 9.762
16.0698 9.636
16.0850 9.515
16.1002 9.553
16.1154 9.825
16.1305 9.751
16.1457 9.666
16.1609 9.863
16.1761 9.756
16.1912 9.572
16.2064 9.949
16.2216 9.978
16.2368 9.990
16.2519 9.796
16.2671 9.717
16.2823 9.869
16.2975 10.138
16.3126 9.849
16.3278 9.742
16.3430 9.773
16.3582 9.918
16.3733 9.982
16.3885 10.019
16.4037 10.040
16.4189 10.071
16.4340 9.815
16.4492 9.856
16.4644 9.847
16.4796 9.877
16.4947 9.982
16.5099 9.762
16.5251 9.672
16.5403 9.807
16.5554 9.905
16.5706 9.737
16.5858 9.883
16.6010 9.792
16.6161 9.669
16.6313 9.814
16.6465 10.022
16.6617 9.830
16.6768 9.836
16.6920 10.209
16.7072 10.111
16.7224 10.142
16.7375 10.132
16.7527 10.113
16.7679 10.141
16.7831 10.038
16.7982 10.010
16.8134 9.994
16.8286 9.929
16.8438 9.980
16.8589 10.015
16.8741 9.943
16.8893 10.133
16.9045 10.078
16.9196 10.106
16.9348 10.087
16.9500 9.900
16.9652 9.859
16.9803 10.066
16.9955 10.277
17.0107 10.211
17.0259 10.238
17.0410 10.409
17.0562 10.254
17.0714 10.325
17.0866 10.475
17.1017 10.634
17.1169 10.831
17.1321 10.984
17.1473 11.335
17.1624 11.961
17.1776 12.500
17.1928 13.065
17.2080 14.017
17.2231 15.260
17.2383 16.441
17.2535 17.585
17.2687 18.628
17.2838 18.827
17.2990 18.171
17.3142 17.377
17.3294 16.717
17.3445 16.323
17.3597 16.091
17.3749 15.728
17.3901 14.938
17.4052 13.984
17.4204 13.288
17.4356 12.574
17.4508 12.178
17.4659 11.909
17.4811 11.405
17.4963 11.089
17.5115 10.921
17.5266 10.800
17.5418 10.660
17.5570 10.512
17.5722 10.315
17.5873 10.238
17.6025 10.121
17.6177 9.978
17.6329 10.118
17.6480 10.251
17.6632 10.335
17.6784 10.288
17.6936 10.331
17.7087 10.331
17.7239 10.220
17.7391 10.384
17.7543 10.408
17.7694 10.349
17.7846 10.532
17.7998 10.684
17.8150 10.871
17.8301 10.960
17.8453 10.878
17.8605 10.799
17.8757 11.293
17.8908 11.439
17.9060 11.328
17.9212 11.135
17.9364 10.862
17.9515 10.733
17.9667 10.617
17.9819 10.690
17.9971 10.855
18.0122 10.624
18.0274 10.585
18.0426 10.553
18.0578 10.276
18.0729 10.206
18.0881 10.130
18.1033 9.929
18.1185 10.089
18.1336 10.269
18.1488 10.251
18.1640 10.086
18.1792 10.042
18.1943 9.808
18.2095 9.818
18.2247 9.942
18.2399 9.825
18.2550 10.050
18.2702 10.080
18.2854 9.931
18.3006 9.860
18.3157 9.741
18.3309 9.785
18.3461 9.795
18.3613 9.852
18.3764 9.951
18.3916 9.915
18.4068 9.623
18.4220 9.754
18.4371 9.600
18.4523 9.684
18.4675 9.894
18.4827 9.917
18.4978 9.688
18.5130 9.859
18.5282 9.979
18.5434 9.718
18.5585 9.694
18.5737 9.675
18.5889 9.742
18.6041 9.708
18.6192 9.836
18.6344 10.044
18.6496 9.965
18.6648 9.738
18.6799 9.599
18.6951 9.772
18.7103 9.804
18.7255 9.725
18.7406 9.878
18.7558 10.022
18.7710 9.729
18.7862 9.760
18.8013 9.805
18.8165 9.797
18.8317 9.861
18.8469 10.006
18.8620 10.174
18.8772 10.254
18.8924 10.171
18.9076 10.055
18.9227 9.944
18.9379 9.985
18.9531 10.032
18.9683 9.966
18.9834 10.068
18.9986 10.343
19.0138 10.531
19.0290 10.320
19.0441 10.290
19.0593 10.406
19.0745 10.271
19.0897 10.350
19.1048 10.367
19.1200 10.452
19.1352 10.630
19.1504 10.624
19.1655 10.638
19.1807 10.800
19.1959 10.667
19.2111 10.598
19.2262 10.776
19.2414 11.161
19.2566 10.871
19.2718 10.727
19.2869 11.138
19.3021 10.896
19.3173 10.871
19.3325 11.046
19.3476 11.097
19.3628 11.195
19.3780 10.917
19.3932 10.868
19.4083 11.151
19.4235 11.316
19.4387 11.302
19.4539 11.338
19.4690 11.452
19.4842 11.330
19.4994 11.433
19.5146 11.479
19.5297 11.634
19.5449 11.844
19.5601 11.651
19.5753 11.533
19.5904 11.616
19.6056 11.655
19.6208 11.725
19.6360 11.700
19.6511 11.705
19.6663 11.529
19.6815 11.528
19.6967 11.702
19.7118 11.635
19.7270 11.652
19.7422 11.717
19.7574 11.532
19.7725 11.734
19.7877 11.775
19.8029 11.935
19.8180 12.182
19.8332 12.091
19.8484 12.413
19.8636 12.442
19.8787 12.528
19.8939 12.795
19.9091 13.248
19.9243 13.704
19.9394 13.720
19.9546 14.110
19.9698 14.564
19.9850 14.772
20.0001 14.479
20.0153 14.268
20.0305 14.019
20.0457 13.694
20.0608 13.609
20.0760 13.707
20.0912 13.773
20.1064 13.563
20.1215 13.621
20.1367 13.188
20.1519 12.990
20.1671 12.951
20.1822 12.736
20.1974 12.789
20.2126 12.725
20.2278 12.500
20.2429 12.277
20.2581 12.081
20.2733 11.916
20.2885 11.898
20.3036 11.733
20.3188 11.506
20.3340 11.400
20.3492 11.545
20.3643 11.282
20.3795 11.103
20.3947 11.214
20.4099 10.998
20.4250 10.644
20.4402 10.664
20.4554 10.773
20.4706 10.650
20.4857 10.579
20.5009 10.811
20.5161 10.806
20.5313 10.673
20.5464 10.729
20.5616 10.705
20.5768 10.619
20.5920 10.497
20.6071 10.535
20.6223 10.596
20.6375 10.389
20.6527 10.263
20.6678 10.246
20.6830 10.564
20.6982 10.474
20.7134 10.481
20.7285 10.505
20.7437 10.275
20.7589 10.233
20.7741 10.296
20.7892 10.168
20.8044 10.334
20.8196 10.422
20.8348 10.205
20.8499 10.263
20.8651 10.378
20.8803 10.527
20.8955 10.482
20.9106 10.477
20.9258 10.644
20.9410 10.463
20.9562 10.704
20.9713 10.318
20.9865 10.347
21.0017 10.553
21.0169 10.452
21.0320 10.434
21.0472 10.376
21.0624 10.295
21.0776 9.710
21.0927 10.134
21.1079 10.150
21.1231 9.940
21.1383 10.194
21.1534 10.072
21.1686 9.931
21.1838 10.042
21.1990 9.930
21.2141 9.512
21.2293 9.819
21.2445 9.940
21.2597 9.493
21.2748 9.693
21.2900 9.665
21.3052 9.649
21.3204 9.810
21.3355 9.825
21.3507 9.412
21.3659 9.521
21.3811 9.715
21.3962 9.494
21.4114 9.378
21.4266 9.528
21.4418 9.703
21.4569 9.317
21.4721 9.424
21.4873 9.447
21.5025 9.418
21.5176 9.363
21.5328 9.469
21.5480 9.301
21.5632 9.069
21.5783 9.178
21.5935 9.098
21.6087 9.341
21.6239 9.169
21.6390 9.294
21.6542 9.060
21.6694 9.196
21.6846 9.230
21.6997 9.151
21.7149 9.231
21.7301 9.151
21.7453 9.047
21.7604 9.156
21.7756 8.866
21.7908 9.218
21.8060 9.091
21.8211 9.149
21.8363 9.002
21.8515 8.911
21.8667 8.781
21.8818 8.993
21.8970 8.934
21.9122 8.783
21.9274 8.739
21.9425 8.912
21.9577 8.850
21.9729 8.843
21.9881 8.812
22.0032 8.676
22.0184 8.880
22.0336 8.948
22.0488 8.754
22.0639 8.675
22.0791 8.641
22.0943 8.527
22.1095 8.610
22.1246 8.778
22.1398 8.689
22.1550 8.534
22.1702 8.464
22.1853 8.395
22.2005 8.540
22.2157 8.666
22.2309 8.453
22.2460 8.472
22.2612 8.530
22.2764 8.717
22.2916 8.786
22.3067 8.394
22.3219 8.290
22.3371 8.484
22.3523 8.709
22.3674 8.523
22.3826 8.403
22.3978 8.402
22.4130 8.447
22.4281 8.629
22.4433 8.387
22.4585 8.404
22.4737 8.663
22.4888 8.551
22.5040 8.325
22.5192 8.593
22.5344 8.496
22.5495 8.263
22.5647 8.380
22.5799 8.505
22.5951 8.446
22.6102 8.567
22.6254 8.360
22.6406 8.152
22.6558 8.343
22.6709 8.442
22.6861 8.452
22.7013 8.269
22.7165 8.106
22.7316 6.404
