'Id: "" Comment: "" Operator: "Lab Manager" Anode: "Mo" Scantype: "Still (Eiger2R_500K (1D mode))" TimePerStep: "300" X: "11.8" Y: "9.4" Z: "11.284" 
7.2532 18.549
7.2684 18.853
7.2836 18.809
7.2987 18.582
7.3139 19.046
7.3291 18.813
7.3443 18.716
7.3594 19.064
7.3746 19.352
7.3898 18.892
7.4050 19.339
7.4201 19.468
7.4353 19.370
7.4505 19.223
7.4657 19.399
7.4808 19.493
7.4960 20.209
7.5112 19.860
7.5264 19.542
7.5415 19.519
7.5567 19.701
7.5719 19.717
7.5871 19.909
7.6022 20.187
7.6174 19.950
7.6326 20.046
7.6478 20.222
7.6629 20.435
7.6781 20.145
7.6933 20.026
7.7085 20.175
7.7236 20.217
7.7388 20.131
7.7540 20.119
7.7692 20.149
7.7843 20.279
7.7995 20.469
7.8147 20.566
7.8299 20.353
7.8450 20.380
7.8602 20.623
7.8754 20.796
7.8905 20.783
7.9057 20.879
7.9209 20.914
7.9361 20.725
7.9512 20.852
7.9664 21.135
7.9816 21.146
7.9968 20.942
8.0119 20.800
8.0271 20.805
8.0423 21.178
8.0575 21.219
8.0726 21.135
8.0878 21.083
8.1030 21.280
8.1182 21.311
8.1333 21.375
8.1485 21.148
8.1637 21.189
8.1789 21.128
8.1940 21.231
8.2092 21.194
8.2244 21.279
8.2396 21.479
8.2547 21.337
8.2699 21.351
8.2851 21.717
8.3003 21.489
8.3154 21.758
8.3306 21.618
8.3458 21.655
8.3610 21.333
8.3761 21.809
8.3913 21.876
8.4065 21.609
8.4217 21.553
8.4368 21.477
8.4520 21.673
8.4672 21.935
8.4824 22.020
8.4975 22.400
8.5127 21.795
8.5279 22.129
8.5431 22.085
8.5582 22.170
8.5734 21.718
8.5886 22.482
8.6038 21.885
8.6189 22.482
8.6341 22.399
8.6493 22.225
8.6645 22.078
8.6796 22.428
8.6948 22.469
8.7100 22.169
8.7252 22.366
8.7403 22.336
8.7555 22.238
8.7707 22.307
8.7859 22.304
8.8010 22.225
8.8162 22.191
8.8314 22.616
8.8466 22.064
8.8617 22.261
8.8769 22.831
8.8921 22.756
8.9073 22.508
8.9224 22.525
8.9376 22.582
8.9528 22.466
8.9680 22.369
8.9831 22.481
8.9983 22.908
9.0135 22.682
9.0287 22.741
9.0438 22.351
9.0590 22.625
9.0742 22.971
9.0894 22.828
9.1045 22.901
9.1197 22.681
9.1349 22.665
9.1501 22.503
9.1652 22.516
9.1804 22.780
9.1956 22.554
9.2108 22.381
9.2259 22.894
9.2411 22.758
9.2563 22.810
9.2715 22.919
9.2866 23.030
9.3018 22.919
9.3170 23.023
9.3322 23.074
9.3473 22.900
9.3625 22.938
9.3777 23.063
9.3929 23.214
9.4080 23.105
9.4232 23.060
9.4384 23.408
9.4536 23.074
9.4687 22.462
9.4839 22.686
9.4991 23.251
9.5143 23.100
9.5294 23.167
9.5446 23.460
9.5598 23.424
9.5750 23.361
9.5901 23.287
9.6053 23.112
9.6205 23.150
9.6357 23.201
9.6508 23.407
9.6660 23.350
9.6812 23.559
9.6964 23.398
9.7115 23.223
9.7267 23.748
9.7419 23.980
9.7571 24.032
9.7722 23.706
9.7874 23.369
9.8026 23.385
9.8178 23.353
9.8329 23.264
9.8481 23.300
9.8633 23.218
9.8785 23.504
9.8936 23.550
9.9088 23.267
9.9240 23.046
9.9392 22.777
9.9543 22.870
9.9695 23.046
9.9847 23.067
9.9999 23.066
10.0150 23.103
10.0302 23.234
10.0454 23.393
10.0606 23.139
10.0757 23.077
10.0909 23.100
10.1061 23.073
10.1213 23.390
10.1364 23.552
10.1516 23.349
10.1668 23.402
10.1820 23.653
10.1971 23.585
10.2123 23.213
10.2275 23.429
10.2427 23.337
10.2578 22.854
10.2730 22.903
10.2882 22.953
10.3034 22.935
10.3185 22.937
10.3337 22.687
10.3489 22.593
10.3641 22.608
10.3792 22.755
10.3944 22.564
10.4096 22.465
10.4248 22.570
10.4399 22.502
10.4551 22.448
10.4703 22.781
10.4855 22.658
10.5006 22.496
10.5158 22.560
10.5310 22.257
10.5462 22.366
10.5613 22.408
10.5765 22.467
10.5917 22.635
10.6069 22.341
10.6220 22.399
10.6372 22.280
10.6524 22.325
10.6676 22.602
10.6827 22.556
10.6979 22.405
10.7131 22.561
10.7283 22.700
10.7434 22.312
10.7586 22.199
10.7738 22.177
10.7890 22.074
10.8041 21.939
10.8193 22.349
10.8345 22.596
10.8497 22.367
10.8648 22.396
10.8800 22.305
10.8952 21.965
10.9104 22.217
10.9255 21.862
10.9407 21.888
10.9559 21.966
10.9711 21.988
10.9862 22.145
11.0014 21.961
11.0166 21.665
11.0318 22.016
11.0469 21.775
11.0621 21.691
11.0773 21.698
11.0925 21.681
11.1076 21.902
11.1228 21.768
11.1380 21.619
11.1532 21.841
11.1683 21.852
11.1835 22.032
11.1987 21.918
11.2139 21.827
11.2290 22.052
11.2442 21.977
11.2594 21.679
11.2746 21.715
11.2897 21.339
11.3049 21.267
11.3201 21.552
11.3353 21.497
11.3504 21.324
11.3656 21.338
11.3808 21.559
11.3960 21.569
11.4111 21.328
11.4263 21.237
11.4415 21.038
11.4567 21.086
11.4718 21.119
11.4870 21.202
11.5022 21.142
11.5174 21.167
11.5325 21.204
11.5477 21.088
11.5629 21.114
11.5781 20.992
11.5932 20.728
11.6084 20.764
11.6236 20.667
11.6388 20.639
11.6539 20.798
11.6691 20.687
11.6843 20.412
11.6995 20.591
11.7146 20.363
11.7298 20.462
11.7450 20.442
11.7602 20.491
11.7753 20.528
11.7905 20.009
11.8057 19.850
11.8209 19.946
11.8360 19.739
11.8512 19.624
11.8664 20.088
11.8816 19.989
11.8967 19.628
11.9119 19.818
11.9271 19.733
11.9423 19.628
11.9574 19.385
11.9726 19.130
11.9878 19.415
12.0030 19.287
12.0181 18.827
12.0333 18.847
12.0485 18.794
12.0637 19.010
12.0788 18.850
12.0940 18.597
12.1092 18.648
12.1244 18.577
12.1395 18.481
12.1547 18.326
12.1699 18.193
12.1851 18.260
12.2002 18.131
12.2154 18.199
12.2306 18.221
12.2458 17.966
12.2609 17.963
12.2761 18.015
12.2913 17.612
12.3065 17.731
12.3216 17.517
12.3368 17.246
12.3520 17.263
12.3672 17.268
12.3823 17.057
12.3975 16.996
12.4127 17.269
12.4279 16.962
12.4430 16.962
12.4582 16.986
12.4734 16.572
12.4886 16.624
12.5037 16.584
12.5189 16.302
12.5341 16.620
12.5493 16.710
12.5644 16.243
12.5796 16.121
12.5948 16.131
12.6100 15.667
12.6251 15.829
12.6403 15.942
12.6555 15.792
12.6707 15.617
12.6858 15.620
12.7010 15.741
12.7162 15.706
12.7314 15.464
12.7465 15.464
12.7617 15.316
12.7769 15.337
12.7921 15.039
12.8072 14.835
12.8224 14.969
12.8376 14.880
12.8528 14.905
12.8679 14.836
12.8831 14.601
12.8983 14.377
12.9135 14.443
12.9286 14.504
12.9438 14.204
12.9590 13.921
12.9742 14.161
12.9893 14.426
13.0045 14.156
13.0197 14.144
13.0349 14.167
13.0500 14.196
13.0652 14.395
13.0804 14.075
13.0956 13.814
13.1107 13.734
13.1259 13.838
13.1411 13.915
13.1563 13.578
13.1714 13.362
13.1866 13.710
13.2018 13.893
13.2170 13.341
13.2321 13.177
13.2473 13.356
13.2625 13.183
13.2777 13.311
13.2928 13.299
13.3080 13.033
13.3232 13.072
13.3384 12.992
13.3535 12.997
13.3687 12.827
13.3839 12.916
13.3991 13.250
13.4142 13.118
13.4294 13.015
13.4446 12.997
13.4598 12.892
13.4749 12.906
13.4901 12.694
13.5053 12.730
13.5205 12.587
13.5356 12.375
13.5508 12.295
13.5660 12.234
13.5812 12.156
13.5963 12.105
13.6115 12.210
13.6267 12.188
13.6419 12.097
13.6570 11.984
13.6722 11.992
13.6874 12.049
13.7026 12.124
13.7177 12.133
13.7329 12.075
13.7481 11.888
13.7633 11.918
13.7784 12.165
13.7936 11.957
13.8088 12.096
13.8239 12.280
13.8391 12.355
13.8543 12.668
13.8695 12.322
13.8846 12.183
13.8998 12.149
13.9150 11.959
13.9302 11.920
13.9453 11.994
13.9605 11.915
13.9757 11.679
13.9909 11.686
14.0060 11.625
14.0212 11.557
14.0364 11.600
14.0516 11.501
14.0667 11.428
14.0819 11.581
14.0971 11.501
14.1123 11.592
14.1274 11.331
14.1426 11.384
14.1578 11.199
14.1730 11.300
14.1881 11.524
14.2033 11.546
14.2185 11.780
14.2337 11.892
14.2488 11.830
14.2640 11.841
14.2792 11.629
14.2944 11.574
14.3095 11.755
14.3247 11.980
14.3399 12.579
14.3551 12.635
14.3702 12.693
14.3854 13.143
14.4006 13.211
14.4158 13.434
14.4309 13.511
14.4461 13.323
14.4613 13.264
14.4765 12.906
14.4916 12.452
14.5068 12.392
14.5220 11.879
14.5372 11.692
14.5523 11.488
14.5675 11.193
14.5827 11.187
14.5979 11.151
14.6130 11.256
14.6282 11.010
14.6434 11.007
14.6586 10.880
14.6737 10.635
14.6889 10.948
14.7041 10.595
14.7193 10.967
14.7344 10.493
14.7496 10.720
14.7648 10.635
14.7800 10.793
14.7951 10.463
14.8103 10.551
14.8255 10.649
14.8407 10.435
14.8558 10.696
14.8710 10.509
14.8862 10.312
14.9014 10.410
14.9165 10.598
14.9317 10.783
14.9469 10.572
14.9621 10.495
14.9772 10.294
14.9924 10.390
15.0076 10.295
15.0228 10.484
15.0379 10.338
15.0531 10.098
15.0683 10.365
15.0835 10.221
15.0986 10.049
15.1138 10.179
15.1290 10.253
15.1442 10.571
15.1593 10.027
15.1745 10.345
15.1897 9.957
15.2049 9.862
15.2200 10.201
15.2352 10.426
15.2504 10.181
15.2656 10.554
15.2807 10.295
15.2959 10.206
15.3111 10.159
15.3263 10.149
15.3414 10.042
15.3566 10.096
15.3718 9.966
15.3870 10.002
15.4021 10.086
15.4173 10.122
15.4325 10.224
15.4477 10.198
15.4628 10.033
15.4780 10.244
15.4932 10.063
15.5084 10.207
15.5235 10.172
15.5387 9.831
15.5539 9.965
15.5691 9.693
15.5842 9.951
15.5994 9.998
15.6146 10.211
15.6298 9.947
15.6449 9.921
15.6601 9.938
15.6753 9.627
15.6905 9.626
15.7056 9.927
15.7208 9.996
15.7360 9.678
15.7512 9.853
15.7663 9.317
15.7815 9.545
15.7967 9.829
15.8119 9.844
15.8270 9.748
15.8422 9.553
15.8574 9.522
15.8726 9.583
15.8877 9.630
15.9029 9.448
15.9181 9.509
15.9333 9.495
15.9484 9.430
15.9636 9.641
15.9788 9.836
15.9940 9.781
16.0091 9.701
16.0243 9.889
16.0395 9.706
16.0547 9.880
16.0698 9.484
16.0850 9.535
16.1002 9.618
16.1154 9.727
16.1305 9.738
16.1457 9.711
16.1609 9.367
16.1761 9.415
16.1912 9.582
16.2064 9.450
16.2216 9.601
16.2368 9.615
16.2519 9.641
16.2671 9.502
16.2823 9.611
16.2975 9.639
16.3126 9.494
16.3278 9.751
16.3430 9.814
16.3582 9.802
16.3733 9.772
16.3885 9.897
16.4037 9.898
16.4189 9.628
16.4340 9.659
16.4492 9.723
16.4644 9.844
16.4796 9.703
16.4947 9.670
16.5099 9.489
16.5251 9.688
16.5403 9.621
16.5554 9.624
16.5706 9.575
16.5858 9.350
16.6010 9.362
16.6161 9.410
16.6313 9.528
16.6465 9.603
16.6617 9.669
16.6768 9.657
16.6920 9.647
16.7072 9.954
16.7224 10.202
16.7375 9.781
16.7527 9.689
16.7679 9.882
16.7831 9.746
16.7982 9.730
16.8134 9.812
16.8286 9.895
16.8438 9.848
16.8589 9.825
16.8741 9.897
16.8893 9.832
16.9045 9.659
16.9196 9.668
16.9348 9.779
16.9500 9.803
16.9652 9.773
16.9803 9.797
16.9955 9.853
17.0107 9.733
17.0259 10.012
17.0410 10.056
17.0562 10.083
17.0714 10.279
17.0866 10.324
17.1017 10.639
17.1169 10.836
17.1321 10.985
17.1473 11.157
17.1624 11.428
17.1776 12.067
17.1928 12.888
17.2080 13.663
17.2231 14.856
17.2383 16.024
17.2535 17.312
17.2687 18.249
17.2838 18.548
17.2990 17.863
17.3142 16.559
17.3294 16.165
17.3445 15.927
17.3597 15.969
17.3749 15.675
17.3901 14.820
17.4052 14.092
17.4204 13.382
17.4356 12.508
17.4508 11.693
17.4659 11.531
17.4811 11.281
17.4963 11.211
17.5115 11.280
17.5266 10.989
17.5418 10.837
17.5570 10.960
17.5722 11.053
17.5873 10.988
17.6025 11.031
17.6177 11.036
17.6329 10.974
17.6480 11.150
17.6632 11.443
17.6784 11.842
17.6936 12.101
17.7087 12.079
17.7239 11.978
17.7391 11.657
17.7543 11.423
17.7694 11.336
17.7846 11.353
17.7998 11.308
17.8150 11.289
17.8301 11.053
17.8453 10.774
17.8605 10.812
17.8757 10.740
17.8908 10.513
17.9060 10.385
17.9212 10.351
17.9364 10.213
17.9515 9.994
17.9667 10.026
17.9819 10.254
17.9971 10.362
18.0122 10.329
18.0274 10.240
18.0426 10.190
18.0578 10.274
18.0729 10.238
18.0881 9.913
18.1033 9.922
18.1185 10.079
18.1336 10.114
18.1488 10.075
18.1640 9.953
18.1792 10.165
18.1943 10.072
18.2095 9.902
18.2247 9.845
18.2399 9.909
18.2550 9.876
18.2702 9.896
18.2854 10.083
18.3006 9.867
18.3157 9.769
18.3309 9.698
18.3461 9.781
18.3613 9.741
18.3764 9.683
18.3916 9.840
18.4068 9.835
18.4220 9.618
18.4371 9.817
18.4523 10.099
18.4675 10.045
18.4827 9.879
18.4978 9.658
18.5130 9.754
18.5282 9.893
18.5434 9.805
18.5585 9.836
18.5737 10.022
18.5889 9.819
18.6041 9.895
18.6192 10.089
18.6344 9.829
18.6496 9.742
18.6648 9.751
18.6799 9.667
18.6951 9.720
18.7103 9.694
18.7255 9.687
18.7406 9.811
18.7558 9.825
18.7710 9.644
18.7862 9.671
18.8013 9.557
18.8165 9.625
18.8317 9.871
18.8469 10.064
18.8620 9.985
18.8772 10.035
18.8924 10.031
18.9076 10.106
18.9227 10.139
18.9379 10.053
18.9531 9.772
18.9683 9.828
18.9834 9.935
18.9986 9.994
19.0138 9.968
19.0290 10.015
19.0441 10.150
19.0593 10.127
19.0745 10.409
19.0897 10.289
19.1048 9.964
19.1200 10.220
19.1352 10.582
19.1504 10.594
19.1655 10.409
19.1807 10.386
19.1959 10.401
19.2111 10.617
19.2262 10.682
19.2414 10.822
19.2566 10.831
19.2718 10.860
19.2869 10.694
19.3021 10.697
19.3173 10.751
19.3325 10.812
19.3476 11.124
19.3628 11.216
19.3780 11.134
19.3932 11.105
19.4083 11.315
19.4235 11.201
19.4387 11.087
19.4539 11.235
19.4690 11.292
19.4842 11.554
19.4994 11.405
19.5146 11.358
19.5297 11.434
19.5449 11.500
19.5601 11.699
19.5753 11.584
19.5904 11.356
19.6056 11.359
19.6208 11.585
19.6360 11.675
19.6511 11.740
19.6663 11.781
19.6815 11.661
19.6967 11.851
19.7118 11.893
19.7270 11.660
19.7422 11.637
19.7574 11.734
19.7725 11.851
19.7877 11.869
19.8029 11.942
19.8180 12.036
19.8332 12.073
19.8484 12.199
19.8636 12.202
19.8787 12.561
19.8939 13.047
19.9091 13.021
19.9243 13.235
19.9394 13.584
19.9546 13.860
19.9698 14.227
19.9850 14.338
20.0001 14.264
20.0153 13.996
20.0305 13.804
20.0457 13.597
20.0608 13.616
20.0760 13.694
20.0912 13.680
20.1064 13.841
20.1215 13.513
20.1367 13.405
20.1519 13.103
20.1671 12.807
20.1822 12.697
20.1974 12.437
20.2126 12.450
20.2278 12.466
20.2429 12.523
20.2581 12.575
20.2733 12.079
20.2885 11.801
20.3036 11.965
20.3188 11.893
20.3340 11.728
20.3492 11.722
20.3643 12.030
20.3795 11.930
20.3947 11.903
20.4099 11.682
20.4250 11.672
20.4402 11.880
20.4554 12.037
20.4706 12.239
20.4857 12.180
20.5009 11.804
20.5161 11.581
20.5313 11.647
20.5464 11.696
20.5616 11.612
20.5768 11.661
20.5920 11.579
20.6071 11.587
20.6223 11.508
20.6375 11.185
20.6527 11.108
20.6678 10.803
20.6830 10.639
20.6982 10.482
20.7134 10.724
20.7285 10.524
20.7437 10.549
20.7589 10.431
20.7741 10.539
20.7892 10.526
20.8044 10.358
20.8196 10.465
20.8348 10.248
20.8499 10.270
20.8651 10.255
20.8803 10.330
20.8955 10.282
20.9106 10.451
20.9258 10.214
20.9410 10.269
20.9562 10.248
20.9713 10.311
20.9865 9.678
21.0017 9.908
21.0169 9.883
21.0320 9.888
21.0472 9.893
21.0624 9.588
21.0776 9.892
21.0927 9.830
21.1079 10.097
21.1231 9.865
21.1383 9.729
21.1534 10.258
21.1686 9.548
21.1838 9.727
21.1990 9.525
21.2141 9.442
21.2293 9.686
21.2445 9.826
21.2597 9.288
21.2748 9.575
21.2900 9.670
21.3052 9.643
21.3204 9.563
21.3355 9.374
21.3507 9.532
21.3659 9.462
21.3811 9.626
21.3962 9.341
21.4114 9.481
21.4266 9.360
21.4418 9.576
21.4569 9.222
21.4721 9.602
21.4873 9.136
21.5025 9.286
21.5176 9.368
21.5328 9.444
21.5480 9.347
21.5632 9.172
21.5783 9.181
21.5935 9.294
21.6087 9.137
21.6239 9.206
21.6390 9.312
21.6542 9.396
21.6694 8.960
21.6846 9.097
21.6997 9.105
21.7149 9.041
21.7301 8.700
21.7453 9.048
21.7604 9.189
21.7756 9.218
21.7908 9.408
21.8060 9.143
21.8211 8.860
21.8363 8.843
21.8515 8.991
21.8667 8.999
21.8818 9.204
21.8970 9.097
21.9122 9.028
21.9274 8.934
21.9425 8.843
21.9577 8.915
21.9729 8.887
21.9881 8.813
22.0032 8.812
22.0184 8.878
22.0336 9.024
22.0488 8.820
22.0639 8.675
22.0791 8.889
22.0943 8.844
22.1095 8.697
22.1246 8.773
22.1398 8.774
22.1550 8.693
22.1702 8.806
22.1853 8.744
22.2005 8.669
22.2157 8.551
22.2309 8.443
22.2460 8.414
22.2612 8.491
22.2764 8.373
22.2916 8.354
22.3067 8.273
22.3219 8.436
22.3371 8.645
22.3523 8.515
22.3674 8.592
22.3826 8.548
22.3978 8.676
22.4130 8.453
22.4281 8.409
22.4433 8.607
22.4585 8.423
22.4737 8.399
22.4888 8.739
22.5040 8.825
22.5192 8.581
22.5344 8.376
22.5495 8.705
22.5647 8.366
22.5799 8.574
22.5951 8.236
22.6102 8.398
22.6254 8.442
22.6406 8.191
22.6558 8.491
22.6709 8.453
22.6861 8.118
22.7013 8.178
22.7165 8.089
22.7316 6.506
