'Id: "" Comment: "" Operator: "Lab Manager" Anode: "Mo" Scantype: "Still (Eiger2R_500K (1D mode))" TimePerStep: "300" X: "11.8" Y: "9.4" Z: "11.284" 
7.2532 18.845
7.2684 18.696
7.2836 18.897
7.2987 19.311
7.3139 18.806
7.3291 19.103
7.3443 19.521
7.3594 19.213
7.3746 19.281
7.3898 19.349
7.4050 19.191
7.4201 19.428
7.4353 19.505
7.4505 19.231
7.4657 19.722
7.4808 19.763
7.4960 19.470
7.5112 19.978
7.5264 19.839
7.5415 19.757
7.5567 20.018
7.5719 19.805
7.5871 19.745
7.6022 20.094
7.6174 20.232
7.6326 20.209
7.6478 20.203
7.6629 20.544
7.6781 20.556
7.6933 20.169
7.7085 20.513
7.7236 20.594
7.7388 20.340
7.7540 20.260
7.7692 20.415
7.7843 20.577
7.7995 20.450
7.8147 20.743
7.8299 20.960
7.8450 20.774
7.8602 20.655
7.8754 20.521
7.8905 20.749
7.9057 21.063
7.9209 21.082
7.9361 21.175
7.9512 20.759
7.9664 20.770
7.9816 21.203
7.9968 21.321
8.0119 21.260
8.0271 21.150
8.0423 21.429
8.0575 21.476
8.0726 21.055
8.0878 21.258
8.1030 21.359
8.1182 21.063
8.1333 21.594
8.1485 21.478
8.1637 21.422
8.1789 21.392
8.1940 21.603
8.2092 21.933
8.2244 21.728
8.2396 21.528
8.2547 21.525
8.2699 21.716
8.2851 21.957
8.3003 21.715
8.3154 21.585
8.3306 21.728
8.3458 21.620
8.3610 22.359
8.3761 22.191
8.3913 21.975
8.4065 21.653
8.4217 21.988
8.4368 22.182
8.4520 21.995
8.4672 22.049
8.4824 21.870
8.4975 22.283
8.5127 22.120
8.5279 22.265
8.5431 21.936
8.5582 22.133
8.5734 22.464
8.5886 21.915
8.6038 22.395
8.6189 21.825
8.6341 22.189
8.6493 22.098
8.6645 22.240
8.6796 22.177
8.6948 22.854
8.7100 22.509
8.7252 22.035
8.7403 22.534
8.7555 22.488
8.7707 22.123
8.7859 22.608
8.8010 22.768
8.8162 22.390
8.8314 22.332
8.8466 22.614
8.8617 22.786
8.8769 22.639
8.8921 22.560
8.9073 23.021
8.9224 22.751
8.9376 22.735
8.9528 22.860
8.9680 22.618
8.9831 22.589
8.9983 22.704
9.0135 22.378
9.0287 22.715
9.0438 22.856
9.0590 22.855
9.0742 23.066
9.0894 22.894
9.1045 22.834
9.1197 23.081
9.1349 23.143
9.1501 22.817
9.1652 22.865
9.1804 22.901
9.1956 22.663
9.2108 22.742
9.2259 22.983
9.2411 22.839
9.2563 22.634
9.2715 22.765
9.2866 22.531
9.3018 22.468
9.3170 22.770
9.3322 23.058
9.3473 23.015
9.3625 22.845
9.3777 22.918
9.3929 23.177
9.4080 23.258
9.4232 23.385
9.4384 23.281
9.4536 23.247
9.4687 23.157
9.4839 23.342
9.4991 23.333
9.5143 23.142
9.5294 22.956
9.5446 23.040
9.5598 23.254
9.5750 22.967
9.5901 22.876
9.6053 23.381
9.6205 23.769
9.6357 23.775
9.6508 23.815
9.6660 23.845
9.6812 23.691
9.6964 23.866
9.7115 23.967
9.7267 24.035
9.7419 24.342
9.7571 24.069
9.7722 23.553
9.7874 23.584
9.8026 24.060
9.8178 23.918
9.8329 23.316
9.8481 23.572
9.8633 23.735
9.8785 23.476
9.8936 23.167
9.9088 23.282
9.9240 23.536
9.9392 23.410
9.9543 23.288
9.9695 23.309
9.9847 23.330
9.9999 23.334
10.0150 23.394
10.0302 23.293
10.0454 23.427
10.0606 23.577
10.0757 23.595
10.0909 23.631
10.1061 23.994
10.1213 23.840
10.1364 23.454
10.1516 23.645
10.1668 23.637
10.1820 23.428
10.1971 23.157
10.2123 23.311
10.2275 23.115
10.2427 23.031
10.2578 23.032
10.2730 23.274
10.2882 23.516
10.3034 23.282
10.3185 22.896
10.3337 22.997
10.3489 23.078
10.3641 23.224
10.3792 23.278
10.3944 22.858
10.4096 22.636
10.4248 22.822
10.4399 23.055
10.4551 23.026
10.4703 23.007
10.4855 23.195
10.5006 22.697
10.5158 22.949
10.5310 22.475
10.5462 22.447
10.5613 22.651
10.5765 22.796
10.5917 22.785
10.6069 22.763
10.6220 22.605
10.6372 22.577
10.6524 22.597
10.6676 22.734
10.6827 22.412
10.6979 22.385
10.7131 22.663
10.7283 22.371
10.7434 22.149
10.7586 22.368
10.7738 22.316
10.7890 22.103
10.8041 22.078
10.8193 21.983
10.8345 21.687
10.8497 21.926
10.8648 22.143
10.8800 21.860
10.8952 21.756
10.9104 22.196
10.9255 22.253
10.9407 21.941
10.9559 22.064
10.9711 22.014
10.9862 22.151
11.0014 21.848
11.0166 22.070
11.0318 22.116
11.0469 22.173
11.0621 21.563
11.0773 21.821
11.0925 21.648
11.1076 21.883
11.1228 21.739
11.1380 21.565
11.1532 21.915
11.1683 21.878
11.1835 21.885
11.1987 21.483
11.2139 21.163
11.2290 21.634
11.2442 21.886
11.2594 21.839
11.2746 21.447
11.2897 21.686
11.3049 21.808
11.3201 21.944
11.3353 21.536
11.3504 21.187
11.3656 21.162
11.3808 21.189
11.3960 21.265
11.4111 21.739
11.4263 21.429
11.4415 21.156
11.4567 21.430
11.4718 21.593
11.4870 21.234
11.5022 21.253
11.5174 21.371
11.5325 21.390
11.5477 21.191
11.5629 21.054
11.5781 20.818
11.5932 21.175
11.6084 20.995
11.6236 20.791
11.6388 20.825
11.6539 20.788
11.6691 20.827
11.6843 21.175
11.6995 20.843
11.7146 20.483
11.7298 20.326
11.7450 20.359
11.7602 20.363
11.7753 20.271
11.7905 20.258
11.8057 20.121
11.8209 20.325
11.8360 20.038
11.8512 20.017
11.8664 20.116
11.8816 20.129
11.8967 19.937
11.9119 19.873
11.9271 19.765
11.9423 19.494
11.9574 19.247
11.9726 19.348
11.9878 19.440
12.0030 19.288
12.0181 18.936
12.0333 18.911
12.0485 18.911
12.0637 18.827
12.0788 18.853
12.0940 18.905
12.1092 18.725
12.1244 18.573
12.1395 18.524
12.1547 18.309
12.1699 18.420
12.1851 18.597
12.2002 18.600
12.2154 18.589
12.2306 18.062
12.2458 17.891
12.2609 17.893
12.2761 18.012
12.2913 18.093
12.3065 17.971
12.3216 17.654
12.3368 17.606
12.3520 17.727
12.3672 17.521
12.3823 17.370
12.3975 17.305
12.4127 17.178
12.4279 17.139
12.4430 17.190
12.4582 17.167
12.4734 16.726
12.4886 16.844
12.5037 16.910
12.5189 16.858
12.5341 16.434
12.5493 16.611
12.5644 16.664
12.5796 16.452
12.5948 16.190
12.6100 16.243
12.6251 16.270
12.6403 15.899
12.6555 16.052
12.6707 16.105
12.6858 15.964
12.7010 16.100
12.7162 15.985
12.7314 15.759
12.7465 15.724
12.7617 15.618
12.7769 15.521
12.7921 15.250
12.8072 15.267
12.8224 15.270
12.8376 15.028
12.8528 15.083
12.8679 15.077
12.8831 15.228
12.8983 15.334
12.9135 14.942
12.9286 14.717
12.9438 14.607
12.9590 14.481
12.9742 14.572
12.9893 14.614
13.0045 14.519
13.0197 14.487
13.0349 14.342
13.0500 14.196
13.0652 14.207
13.0804 14.220
13.0956 14.178
13.1107 14.042
13.1259 13.932
13.1411 13.787
13.1563 13.649
13.1714 13.484
13.1866 13.277
13.2018 13.316
13.2170 13.517
13.2321 13.531
13.2473 13.418
13.2625 13.159
13.2777 13.051
13.2928 13.179
13.3080 13.063
13.3232 13.020
13.3384 13.027
13.3535 13.076
13.3687 13.224
13.3839 13.149
13.3991 12.983
13.4142 13.063
13.4294 13.015
13.4446 12.845
13.4598 12.656
13.4749 12.632
13.4901 12.731
13.5053 12.609
13.5205 12.553
13.5356 12.440
13.5508 12.328
13.5660 12.485
13.5812 12.284
13.5963 12.252
13.6115 12.279
13.6267 12.200
13.6419 12.281
13.6570 12.396
13.6722 12.129
13.6874 12.026
13.7026 12.222
13.7177 12.399
13.7329 12.108
13.7481 12.039
13.7633 11.929
13.7784 12.050
13.7936 11.952
13.8088 12.104
13.8239 12.196
13.8391 12.315
13.8543 12.208
13.8695 12.150
13.8846 12.148
13.8998 12.056
13.9150 12.157
13.9302 12.047
13.9453 11.952
13.9605 11.847
13.9757 11.958
13.9909 11.954
14.0060 11.790
14.0212 11.479
14.0364 11.570
14.0516 11.439
14.0667 11.404
14.0819 11.246
14.0971 11.421
14.1123 11.351
14.1274 11.441
14.1426 11.608
14.1578 11.283
14.1730 11.272
14.1881 11.313
14.2033 11.440
14.2185 11.547
14.2337 11.680
14.2488 11.798
14.2640 11.744
14.2792 11.559
14.2944 11.591
14.3095 11.988
14.3247 12.443
14.3399 12.544
14.3551 12.845
14.3702 13.244
14.3854 13.335
14.4006 13.604
14.4158 13.562
14.4309 13.588
14.4461 13.159
14.4613 12.767
14.4765 12.802
14.4916 12.331
14.5068 12.056
14.5220 12.117
14.5372 11.862
14.5523 11.606
14.5675 11.287
14.5827 11.555
14.5979 11.436
14.6130 10.917
14.6282 11.126
14.6434 10.710
14.6586 10.787
14.6737 10.973
14.6889 10.979
14.7041 10.637
14.7193 10.807
14.7344 10.648
14.7496 10.696
14.7648 10.672
14.7800 10.621
14.7951 10.895
14.8103 10.844
14.8255 10.765
14.8407 10.636
14.8558 10.407
14.8710 10.780
14.8862 10.470
14.9014 10.569
14.9165 10.897
14.9317 10.927
14.9469 10.607
14.9621 10.629
14.9772 10.473
14.9924 10.245
15.0076 10.392
15.0228 10.327
15.0379 10.522
15.0531 10.184
15.0683 10.524
15.0835 10.329
15.0986 10.354
15.1138 10.193
15.1290 10.848
15.1442 10.333
15.1593 10.488
15.1745 10.277
15.1897 10.157
15.2049 10.508
15.2200 10.479
15.2352 10.308
15.2504 10.470
15.2656 10.280
15.2807 10.183
15.2959 10.087
15.3111 10.133
15.3263 9.945
15.3414 10.410
15.3566 10.216
15.3718 10.002
15.3870 10.567
15.4021 10.131
15.4173 10.394
15.4325 10.238
15.4477 10.345
15.4628 10.321
15.4780 10.514
15.4932 10.396
15.5084 10.388
15.5235 10.217
15.5387 10.233
15.5539 10.325
15.5691 10.248
15.5842 9.973
15.5994 10.045
15.6146 9.909
15.6298 10.064
15.6449 9.924
15.6601 9.891
15.6753 9.913
15.6905 9.845
15.7056 9.700
15.7208 9.825
15.7360 9.844
15.7512 9.659
15.7663 10.031
15.7815 9.776
15.7967 9.952
15.8119 9.777
15.8270 9.993
15.8422 9.547
15.8574 9.762
15.8726 9.644
15.8877 9.717
15.9029 9.515
15.9181 9.594
15.9333 9.768
15.9484 9.866
15.9636 9.881
15.9788 9.914
15.9940 10.044
16.0091 9.767
16.0243 9.662
16.0395 9.783
16.0547 9.633
16.0698 9.610
16.0850 9.736
16.1002 9.717
16.1154 9.780
16.1305 9.871
16.1457 9.706
16.1609 9.858
16.1761 9.853
16.1912 9.599
16.2064 9.740
16.2216 9.837
16.2368 9.658
16.2519 9.635
16.2671 9.914
16.2823 10.034
16.2975 9.866
16.3126 9.828
16.3278 9.675
16.3430 9.814
16.3582 9.908
16.3733 10.149
16.3885 10.290
16.4037 10.129
16.4189 9.845
16.4340 10.049
16.4492 9.928
16.4644 9.843
16.4796 9.954
16.4947 10.047
16.5099 9.702
16.5251 9.648
16.5403 9.908
16.5554 9.850
16.5706 9.867
16.5858 9.818
16.6010 9.686
16.6161 9.805
16.6313 9.913
16.6465 9.805
16.6617 9.740
16.6768 9.900
16.6920 10.106
16.7072 10.135
16.7224 10.087
16.7375 10.103
16.7527 9.896
16.7679 9.859
16.7831 9.850
16.7982 10.008
16.8134 9.972
16.8286 9.748
16.8438 9.901
16.8589 9.934
16.8741 9.851
16.8893 9.848
16.9045 9.754
16.9196 9.892
16.9348 9.970
16.9500 10.046
16.9652 9.989
16.9803 9.823
16.9955 9.688
17.0107 9.819
17.0259 9.914
17.0410 9.997
17.0562 10.210
17.0714 10.262
17.0866 10.479
17.1017 10.765
17.1169 11.042
17.1321 11.205
17.1473 11.532
17.1624 12.017
17.1776 12.392
17.1928 12.958
17.2080 13.795
17.2231 15.003
17.2383 16.303
17.2535 17.625
17.2687 18.604
17.2838 18.674
17.2990 18.163
17.3142 17.076
17.3294 16.198
17.3445 16.108
17.3597 16.215
17.3749 16.120
17.3901 15.379
17.4052 14.240
17.4204 13.227
17.4356 12.587
17.4508 11.918
17.4659 11.387
17.4811 11.349
17.4963 11.026
17.5115 10.938
17.5266 11.101
17.5418 10.806
17.5570 10.751
17.5722 10.849
17.5873 10.944
17.6025 11.019
17.6177 10.911
17.6329 11.184
17.6480 11.389
17.6632 11.525
17.6784 11.797
17.6936 11.748
17.7087 11.704
17.7239 11.685
17.7391 11.436
17.7543 11.292
17.7694 11.231
17.7846 11.179
17.7998 11.156
17.8150 10.999
17.8301 10.770
17.8453 10.494
17.8605 10.668
17.8757 10.536
17.8908 10.216
17.9060 10.052
17.9212 10.098
17.9364 10.200
17.9515 10.265
17.9667 10.230
17.9819 10.215
17.9971 10.455
18.0122 10.510
18.0274 10.267
18.0426 10.153
18.0578 10.274
18.0729 10.316
18.0881 10.063
18.1033 9.750
18.1185 9.821
18.1336 9.994
18.1488 10.048
18.1640 9.919
18.1792 10.120
18.1943 10.192
18.2095 10.054
18.2247 9.789
18.2399 9.675
18.2550 9.841
18.2702 9.838
18.2854 9.939
18.3006 9.808
18.3157 9.862
18.3309 9.968
18.3461 9.908
18.3613 9.774
18.3764 9.817
18.3916 10.012
18.4068 9.849
18.4220 9.825
18.4371 9.929
18.4523 9.837
18.4675 9.871
18.4827 10.023
18.4978 9.830
18.5130 9.847
18.5282 9.824
18.5434 9.681
18.5585 9.733
18.5737 9.924
18.5889 9.858
18.6041 9.712
18.6192 9.886
18.6344 9.883
18.6496 9.887
18.6648 9.934
18.6799 9.795
18.6951 9.676
18.7103 9.747
18.7255 9.871
18.7406 9.869
18.7558 9.681
18.7710 9.850
18.7862 9.964
18.8013 9.810
18.8165 9.761
18.8317 9.854
18.8469 9.852
18.8620 9.813
18.8772 9.971
18.8924 9.780
18.9076 9.790
18.9227 10.035
18.9379 10.055
18.9531 10.102
18.9683 10.049
18.9834 9.880
18.9986 10.040
19.0138 10.205
19.0290 10.271
19.0441 10.206
19.0593 10.164
19.0745 10.342
19.0897 10.389
19.1048 10.305
19.1200 10.289
19.1352 10.394
19.1504 10.401
19.1655 10.423
19.1807 10.657
19.1959 10.619
19.2111 10.291
19.2262 10.702
19.2414 10.980
19.2566 10.954
19.2718 10.907
19.2869 10.918
19.3021 11.096
19.3173 10.927
19.3325 10.829
19.3476 11.068
19.3628 11.280
19.3780 11.170
19.3932 11.112
19.4083 11.197
19.4235 11.161
19.4387 11.260
19.4539 11.243
19.4690 11.253
19.4842 11.164
19.4994 11.017
19.5146 11.276
19.5297 11.609
19.5449 11.598
19.5601 11.625
19.5753 11.817
19.5904 11.705
19.6056 11.531
19.6208 11.644
19.6360 11.664
19.6511 11.526
19.6663 11.578
19.6815 11.756
19.6967 11.794
19.7118 11.803
19.7270 11.891
19.7422 11.940
19.7574 11.845
19.7725 11.629
19.7877 11.612
19.8029 11.918
19.8180 12.070
19.8332 11.986
19.8484 12.358
19.8636 12.501
19.8787 12.534
19.8939 12.888
19.9091 13.095
19.9243 13.580
19.9394 13.887
19.9546 14.079
19.9698 14.538
19.9850 14.762
20.0001 14.592
20.0153 14.210
20.0305 13.874
20.0457 13.611
20.0608 13.511
20.0760 13.643
20.0912 13.791
20.1064 13.676
20.1215 13.546
20.1367 13.280
20.1519 13.031
20.1671 12.878
20.1822 12.723
20.1974 12.794
20.2126 12.646
20.2278 12.337
20.2429 12.350
20.2581 12.281
20.2733 11.999
20.2885 11.883
20.3036 12.092
20.3188 11.869
20.3340 11.849
20.3492 12.113
20.3643 11.905
20.3795 11.769
20.3947 11.660
20.4099 11.721
20.4250 11.782
20.4402 11.874
20.4554 11.763
20.4706 11.543
20.4857 11.684
20.5009 11.411
20.5161 11.600
20.5313 11.591
20.5464 11.397
20.5616 11.370
20.5768 11.239
20.5920 10.895
20.6071 10.801
20.6223 10.903
20.6375 11.046
20.6527 10.808
20.6678 10.813
20.6830 10.899
20.6982 10.658
20.7134 10.625
20.7285 10.464
20.7437 10.370
20.7589 10.543
20.7741 10.799
20.7892 10.584
20.8044 10.380
20.8196 10.312
20.8348 10.180
20.8499 10.190
20.8651 10.443
20.8803 10.324
20.8955 10.144
20.9106 10.091
20.9258 10.247
20.9410 10.186
20.9562 10.062
20.9713 10.307
20.9865 10.105
21.0017 9.987
21.0169 9.880
21.0320 9.941
21.0472 9.981
21.0624 10.190
21.0776 10.056
21.0927 10.194
21.1079 10.005
21.1231 10.016
21.1383 10.055
21.1534 9.836
21.1686 9.773
21.1838 9.697
21.1990 10.040
21.2141 9.711
21.2293 9.559
21.2445 9.576
21.2597 9.760
21.2748 9.504
21.2900 9.376
21.3052 9.607
21.3204 9.658
21.3355 9.531
21.3507 9.215
21.3659 9.649
21.3811 9.671
21.3962 9.564
21.4114 9.417
21.4266 9.517
21.4418 9.449
21.4569 9.464
21.4721 9.397
21.4873 9.372
21.5025 9.456
21.5176 9.516
21.5328 9.427
21.5480 9.525
21.5632 9.381
21.5783 9.205
21.5935 9.223
21.6087 9.437
21.6239 9.179
21.6390 9.074
21.6542 9.206
21.6694 9.072
21.6846 8.999
21.6997 9.269
21.7149 9.090
21.7301 8.949
21.7453 9.052
21.7604 9.357
21.7756 9.075
21.7908 8.969
21.8060 9.267
21.8211 9.326
21.8363 9.202
21.8515 9.197
21.8667 8.927
21.8818 8.753
21.8970 8.869
21.9122 9.057
21.9274 9.014
21.9425 9.020
21.9577 9.096
21.9729 9.004
21.9881 8.900
22.0032 8.921
22.0184 8.824
22.0336 8.812
22.0488 8.802
22.0639 8.769
22.0791 8.841
22.0943 8.743
22.1095 8.646
22.1246 8.651
22.1398 8.628
22.1550 8.666
22.1702 8.524
22.1853 8.518
22.2005 8.561
22.2157 8.579
22.2309 8.716
22.2460 8.826
22.2612 8.775
22.2764 8.647
22.2916 8.586
22.3067 8.514
22.3219 8.715
22.3371 8.541
22.3523 8.586
22.3674 8.772
22.3826 8.683
22.3978 8.557
22.4130 8.633
22.4281 8.730
22.4433 8.394
22.4585 8.299
22.4737 8.612
22.4888 8.782
22.5040 8.557
22.5192 8.497
22.5344 8.530
22.5495 8.483
22.5647 8.484
22.5799 8.195
22.5951 8.446
22.6102 8.584
22.6254 8.340
22.6406 8.156
22.6558 8.311
22.6709 8.333
22.6861 8.582
22.7013 8.194
22.7165 8.168
22.7316 6.667
