'Id: "" Comment: "" Operator: "Lab Manager" Anode: "Mo" Scantype: "Still (Eiger2R_500K (1D mode))" TimePerStep: "300" X: "11.8" Y: "9.4" Z: "11.284" 
7.2532 18.635
7.2684 18.897
7.2836 18.732
7.2987 18.698
7.3139 19.167
7.3291 18.406
7.3443 18.787
7.3594 19.216
7.3746 18.833
7.3898 18.957
7.4050 18.983
7.4201 19.229
7.4353 19.185
7.4505 19.052
7.4657 19.190
7.4808 19.176
7.4960 19.423
7.5112 19.621
7.5264 19.768
7.5415 19.790
7.5567 19.862
7.5719 20.022
7.5871 19.859
7.6022 20.071
7.6174 20.133
7.6326 19.839
7.6478 20.133
7.6629 19.836
7.6781 20.023
7.6933 20.315
7.7085 20.057
7.7236 19.990
7.7388 19.934
7.7540 20.175
7.7692 20.496
7.7843 20.657
7.7995 20.488
7.8147 20.323
7.8299 20.289
7.8450 20.258
7.8602 20.576
7.8754 20.839
7.8905 20.807
7.9057 20.286
7.9209 20.320
7.9361 20.672
7.9512 20.957
7.9664 20.807
7.9816 20.778
7.9968 20.754
8.0119 20.654
8.0271 20.991
8.0423 21.135
8.0575 21.159
8.0726 20.740
8.0878 20.794
8.1030 21.037
8.1182 20.991
8.1333 21.011
8.1485 21.158
8.1637 20.994
8.1789 20.841
8.1940 21.274
8.2092 21.434
8.2244 21.302
8.2396 21.574
8.2547 21.698
8.2699 21.258
8.2851 21.838
8.3003 21.135
8.3154 21.601
8.3306 21.485
8.3458 21.361
8.3610 21.640
8.3761 21.999
8.3913 21.443
8.4065 21.421
8.4217 22.013
8.4368 21.756
8.4520 22.054
8.4672 21.888
8.4824 22.094
8.4975 22.169
8.5127 21.920
8.5279 21.964
8.5431 22.357
8.5582 21.602
8.5734 22.054
8.5886 22.705
8.6038 22.038
8.6189 21.754
8.6341 21.596
8.6493 21.869
8.6645 22.233
8.6796 22.233
8.6948 22.163
8.7100 22.178
8.7252 22.424
8.7403 22.339
8.7555 22.086
8.7707 22.094
8.7859 22.332
8.8010 22.061
8.8162 22.201
8.8314 22.330
8.8466 22.211
8.8617 22.705
8.8769 22.509
8.8921 22.591
8.9073 22.609
8.9224 22.422
8.9376 22.766
8.9528 22.453
8.9680 22.867
8.9831 22.751
8.9983 22.746
9.0135 22.390
9.0287 22.586
9.0438 22.649
9.0590 22.581
9.0742 22.584
9.0894 22.508
9.1045 22.400
9.1197 22.764
9.1349 23.000
9.1501 22.997
9.1652 22.686
9.1804 22.414
9.1956 22.427
9.2108 22.637
9.2259 22.345
9.2411 22.651
9.2563 23.168
9.2715 23.155
9.2866 22.876
9.3018 22.604
9.3170 22.619
9.3322 22.474
9.3473 22.851
9.3625 22.941
9.3777 22.939
9.3929 22.870
9.4080 23.099
9.4232 23.163
9.4384 22.820
9.4536 22.886
9.4687 22.878
9.4839 22.783
9.4991 22.840
9.5143 22.670
9.5294 22.990
9.5446 23.129
9.5598 22.811
9.5750 22.822
9.5901 22.978
9.6053 23.063
9.6205 23.065
9.6357 22.978
9.6508 23.132
9.6660 23.214
9.6812 23.152
9.6964 23.522
9.7115 23.643
9.7267 23.587
9.7419 23.975
9.7571 23.786
9.7722 23.506
9.7874 23.910
9.8026 23.734
9.8178 23.251
9.8329 23.140
9.8481 23.071
9.8633 23.281
9.8785 23.355
9.8936 23.207
9.9088 23.229
9.9240 22.871
9.9392 23.164
9.9543 23.270
9.9695 22.908
9.9847 23.002
9.9999 22.828
10.0150 22.882
10.0302 22.888
10.0454 22.744
10.0606 22.777
10.0757 22.995
10.0909 23.089
10.1061 23.315
10.1213 23.365
10.1364 23.259
10.1516 23.188
10.1668 23.147
10.1820 23.102
10.1971 23.026
10.2123 23.016
10.2275 22.769
10.2427 22.640
10.2578 22.945
10.2730 23.092
10.2882 22.793
10.3034 22.747
10.3185 22.924
10.3337 22.663
10.3489 22.384
10.3641 22.768
10.3792 22.742
10.3944 22.438
10.4096 22.407
10.4248 22.637
10.4399 22.671
10.4551 22.880
10.4703 22.637
10.4855 22.452
10.5006 22.423
10.5158 22.182
10.5310 22.350
10.5462 22.630
10.5613 22.131
10.5765 22.158
10.5917 22.162
10.6069 22.114
10.6220 22.534
10.6372 22.627
10.6524 22.306
10.6676 21.947
10.6827 22.455
10.6979 22.433
10.7131 22.505
10.7283 22.617
10.7434 22.338
10.7586 22.111
10.7738 22.394
10.7890 22.153
10.8041 22.120
10.8193 22.526
10.8345 22.372
10.8497 22.355
10.8648 22.189
10.8800 22.243
10.8952 22.047
10.9104 21.859
10.9255 21.915
10.9407 21.814
10.9559 22.077
10.9711 22.071
10.9862 21.985
11.0014 21.809
11.0166 21.891
11.0318 22.003
11.0469 22.025
11.0621 21.798
11.0773 21.863
11.0925 22.060
11.1076 21.760
11.1228 21.510
11.1380 21.476
11.1532 21.921
11.1683 22.155
11.1835 21.719
11.1987 21.436
11.2139 21.549
11.2290 21.564
11.2442 21.597
11.2594 21.751
11.2746 21.793
11.2897 21.273
11.3049 21.309
11.3201 21.730
11.3353 21.464
11.3504 21.429
11.3656 21.705
11.3808 21.647
11.3960 21.636
11.4111 21.304
11.4263 21.087
11.4415 21.397
11.4567 21.208
11.4718 21.392
11.4870 20.987
11.5022 21.032
11.5174 21.308
11.5325 21.277
11.5477 20.554
11.5629 20.528
11.5781 20.865
11.5932 21.029
11.6084 20.838
11.6236 20.696
11.6388 20.805
11.6539 20.682
11.6691 20.371
11.6843 20.596
11.6995 20.599
11.7146 20.316
11.7298 19.866
11.7450 20.072
11.7602 20.164
11.7753 20.157
11.7905 20.165
11.8057 20.038
11.8209 20.163
11.8360 20.205
11.8512 19.611
11.8664 19.509
11.8816 19.645
11.8967 19.921
11.9119 19.421
11.9271 19.401
11.9423 19.507
11.9574 19.455
11.9726 19.116
11.9878 19.224
12.0030 19.288
12.0181 19.101
12.0333 19.112
12.0485 19.118
12.0637 18.609
12.0788 18.599
12.0940 18.423
12.1092 18.509
12.1244 18.764
12.1395 18.643
12.1547 18.378
12.1699 18.631
12.1851 18.432
12.2002 18.267
12.2154 18.044
12.2306 17.827
12.2458 17.933
12.2609 17.963
12.2761 18.037
12.2913 18.014
12.3065 17.712
12.3216 17.472
12.3368 17.503
12.3520 17.664
12.3672 17.218
12.3823 16.954
12.3975 17.100
12.4127 17.232
12.4279 17.107
12.4430 16.957
12.4582 16.766
12.4734 16.798
12.4886 16.559
12.5037 16.419
12.5189 16.341
12.5341 16.356
12.5493 16.335
12.5644 16.060
12.5796 16.224
12.5948 16.255
12.6100 16.050
12.6251 15.898
12.6403 15.998
12.6555 15.793
12.6707 15.408
12.6858 15.663
12.7010 15.888
12.7162 15.689
12.7314 15.308
12.7465 15.316
12.7617 15.423
12.7769 15.039
12.7921 15.146
12.8072 15.226
12.8224 15.106
12.8376 15.328
12.8528 15.010
12.8679 14.829
12.8831 14.771
12.8983 14.682
12.9135 14.332
12.9286 14.333
12.9438 14.619
12.9590 14.557
12.9742 14.469
12.9893 14.702
13.0045 14.546
13.0197 14.422
13.0349 14.297
13.0500 14.124
13.0652 14.175
13.0804 14.068
13.0956 14.025
13.1107 13.892
13.1259 13.560
13.1411 13.493
13.1563 13.455
13.1714 13.403
13.1866 13.614
13.2018 13.546
13.2170 13.600
13.2321 13.435
13.2473 13.235
13.2625 13.635
13.2777 13.377
13.2928 13.141
13.3080 13.277
13.3232 13.172
13.3384 13.021
13.3535 12.868
13.3687 12.891
13.3839 12.849
13.3991 12.921
13.4142 12.961
13.4294 12.916
13.4446 12.655
13.4598 12.739
13.4749 12.862
13.4901 12.705
13.5053 12.541
13.5205 12.343
13.5356 12.078
13.5508 12.144
13.5660 12.392
13.5812 12.294
13.5963 12.158
13.6115 12.473
13.6267 12.403
13.6419 12.030
13.6570 11.941
13.6722 12.050
13.6874 12.227
13.7026 12.141
13.7177 12.051
13.7329 12.129
13.7481 12.071
13.7633 11.820
13.7784 11.816
13.7936 12.038
13.8088 12.249
13.8239 12.286
13.8391 12.058
13.8543 12.199
13.8695 12.603
13.8846 12.599
13.8998 12.393
13.9150 12.000
13.9302 11.840
13.9453 11.975
13.9605 12.150
13.9757 11.975
13.9909 11.821
14.0060 11.857
14.0212 11.957
14.0364 11.593
14.0516 11.450
14.0667 11.512
14.0819 11.454
14.0971 11.464
14.1123 11.533
14.1274 11.620
14.1426 11.596
14.1578 11.397
14.1730 11.495
14.1881 11.450
14.2033 11.479
14.2185 11.611
14.2337 11.825
14.2488 11.794
14.2640 11.546
14.2792 11.591
14.2944 11.640
14.3095 11.951
14.3247 12.303
14.3399 12.558
14.3551 12.468
14.3702 12.698
14.3854 12.617
14.4006 13.003
14.4158 13.108
14.4309 13.132
14.4461 12.880
14.4613 12.300
14.4765 12.299
14.4916 12.384
14.5068 12.229
14.5220 11.879
14.5372 11.715
14.5523 11.417
14.5675 11.161
14.5827 10.742
14.5979 11.005
14.6130 10.900
14.6282 10.702
14.6434 10.586
14.6586 10.711
14.6737 10.381
14.6889 10.794
14.7041 10.615
14.7193 10.636
14.7344 10.726
14.7496 10.579
14.7648 10.673
14.7800 10.478
14.7951 10.693
14.8103 10.496
14.8255 10.383
14.8407 10.257
14.8558 10.469
14.8710 10.393
14.8862 10.032
14.9014 10.370
14.9165 10.593
14.9317 10.629
14.9469 10.193
14.9621 10.160
14.9772 9.914
14.9924 10.265
15.0076 10.190
15.0228 10.385
15.0379 10.330
15.0531 10.353
15.0683 10.187
15.0835 10.324
15.0986 10.223
15.1138 10.403
15.1290 10.058
15.1442 9.937
15.1593 9.967
15.1745 10.158
15.1897 10.330
15.2049 9.973
15.2200 10.149
15.2352 10.153
15.2504 9.831
15.2656 10.315
15.2807 9.864
15.2959 10.007
15.3111 10.176
15.3263 9.822
15.3414 9.865
15.3566 9.996
15.3718 10.056
15.3870 9.742
15.4021 9.986
15.4173 10.015
15.4325 10.159
15.4477 10.366
15.4628 10.161
15.4780 10.230
15.4932 10.118
15.5084 10.420
15.5235 9.894
15.5387 9.923
15.5539 9.774
15.5691 9.705
15.5842 9.848
15.5994 9.746
15.6146 10.014
15.6298 9.659
15.6449 9.789
15.6601 9.600
15.6753 9.744
15.6905 9.417
15.7056 9.370
15.7208 9.479
15.7360 9.663
15.7512 9.779
15.7663 9.689
15.7815 9.647
15.7967 9.623
15.8119 9.473
15.8270 9.737
15.8422 9.758
15.8574 9.559
15.8726 9.450
15.8877 9.568
15.9029 9.362
15.9181 9.391
15.9333 9.476
15.9484 9.400
15.9636 9.303
15.9788 9.450
15.9940 9.522
16.0091 9.627
16.0243 9.691
16.0395 9.644
16.0547 9.483
16.0698 9.401
16.0850 9.446
16.1002 9.483
16.1154 9.381
16.1305 9.376
16.1457 9.544
16.1609 9.397
16.1761 9.333
16.1912 9.591
16.2064 9.769
16.2216 9.734
16.2368 9.585
16.2519 9.561
16.2671 9.633
16.2823 9.795
16.2975 9.797
16.3126 9.779
16.3278 9.530
16.3430 9.661
16.3582 9.863
16.3733 9.561
16.3885 9.708
16.4037 9.694
16.4189 9.508
16.4340 9.587
16.4492 9.749
16.4644 9.834
16.4796 9.614
16.4947 9.682
16.5099 9.744
16.5251 9.496
16.5403 9.588
16.5554 9.475
16.5706 9.266
16.5858 9.302
16.6010 9.514
16.6161 9.610
16.6313 9.699
16.6465 9.683
16.6617 9.744
16.6768 9.719
16.6920 9.813
16.7072 9.731
16.7224 9.787
16.7375 9.886
16.7527 9.780
16.7679 9.598
16.7831 9.754
16.7982 9.765
16.8134 9.581
16.8286 9.633
16.8438 9.626
16.8589 9.832
16.8741 9.820
16.8893 9.694
16.9045 9.529
16.9196 9.514
16.9348 9.732
16.9500 9.744
16.9652 9.578
16.9803 9.456
16.9955 9.662
17.0107 9.849
17.0259 10.005
17.0410 9.945
17.0562 9.977
17.0714 10.146
17.0866 10.350
17.1017 10.429
17.1169 10.520
17.1321 10.680
17.1473 11.029
17.1624 11.581
17.1776 12.104
17.1928 12.882
17.2080 13.834
17.2231 14.953
17.2383 16.312
17.2535 17.240
17.2687 18.174
17.2838 18.708
17.2990 17.913
17.3142 16.954
17.3294 16.305
17.3445 15.794
17.3597 15.617
17.3749 15.621
17.3901 15.120
17.4052 14.074
17.4204 13.294
17.4356 12.699
17.4508 12.048
17.4659 11.658
17.4811 11.237
17.4963 11.079
17.5115 11.307
17.5266 11.093
17.5418 10.864
17.5570 10.887
17.5722 11.009
17.5873 10.997
17.6025 10.829
17.6177 10.917
17.6329 11.182
17.6480 11.339
17.6632 11.469
17.6784 11.637
17.6936 11.741
17.7087 11.910
17.7239 11.786
17.7391 11.421
17.7543 11.223
17.7694 11.154
17.7846 10.995
17.7998 10.897
17.8150 10.747
17.8301 10.469
17.8453 10.342
17.8605 10.603
17.8757 10.603
17.8908 10.602
17.9060 10.510
17.9212 10.433
17.9364 10.108
17.9515 9.654
17.9667 9.808
17.9819 10.020
17.9971 10.258
18.0122 10.288
18.0274 10.083
18.0426 10.238
18.0578 10.188
18.0729 10.148
18.0881 10.093
18.1033 9.959
18.1185 10.003
18.1336 9.811
18.1488 10.055
18.1640 10.067
18.1792 9.846
18.1943 9.762
18.2095 9.864
18.2247 9.960
18.2399 9.810
18.2550 9.774
18.2702 9.708
18.2854 9.722
18.3006 9.674
18.3157 9.605
18.3309 9.704
18.3461 9.783
18.3613 9.874
18.3764 9.879
18.3916 9.793
18.4068 9.929
18.4220 9.824
18.4371 9.855
18.4523 9.809
18.4675 9.770
18.4827 9.730
18.4978 9.711
18.5130 9.854
18.5282 9.855
18.5434 9.831
18.5585 9.741
18.5737 9.682
18.5889 9.852
18.6041 9.714
18.6192 9.663
18.6344 9.593
18.6496 9.586
18.6648 9.834
18.6799 10.030
18.6951 9.987
18.7103 9.941
18.7255 9.639
18.7406 9.669
18.7558 9.864
18.7710 9.902
18.7862 9.744
18.8013 9.663
18.8165 9.493
18.8317 9.689
18.8469 9.888
18.8620 9.842
18.8772 9.912
18.8924 10.211
18.9076 10.326
18.9227 10.003
18.9379 9.945
18.9531 9.916
18.9683 9.818
18.9834 9.828
18.9986 9.933
19.0138 10.130
19.0290 10.299
19.0441 10.335
19.0593 10.251
19.0745 10.344
19.0897 10.378
19.1048 10.275
19.1200 10.206
19.1352 10.168
19.1504 10.323
19.1655 10.530
19.1807 10.706
19.1959 10.642
19.2111 10.560
19.2262 10.797
19.2414 10.852
19.2566 10.837
19.2718 10.976
19.2869 10.832
19.3021 10.839
19.3173 10.810
19.3325 11.133
19.3476 11.165
19.3628 10.984
19.3780 11.034
19.3932 11.183
19.4083 11.405
19.4235 11.639
19.4387 11.336
19.4539 11.184
19.4690 11.432
19.4842 11.470
19.4994 11.512
19.5146 11.511
19.5297 11.446
19.5449 11.456
19.5601 11.451
19.5753 11.535
19.5904 11.702
19.6056 11.650
19.6208 11.675
19.6360 11.700
19.6511 11.732
19.6663 11.679
19.6815 11.602
19.6967 11.797
19.7118 11.901
19.7270 11.863
19.7422 12.085
19.7574 12.055
19.7725 11.700
19.7877 11.645
19.8029 11.977
19.8180 11.871
19.8332 11.813
19.8484 12.099
19.8636 12.193
19.8787 12.678
19.8939 12.934
19.9091 12.998
19.9243 13.436
19.9394 13.885
19.9546 13.988
19.9698 14.272
19.9850 14.571
20.0001 14.486
20.0153 14.149
20.0305 14.265
20.0457 14.212
20.0608 13.934
20.0760 13.690
20.0912 13.519
20.1064 13.732
20.1215 13.688
20.1367 13.142
20.1519 12.847
20.1671 12.936
20.1822 12.906
20.1974 12.838
20.2126 12.957
20.2278 12.872
20.2429 12.549
20.2581 12.379
20.2733 12.326
20.2885 12.118
20.3036 12.188
20.3188 12.040
20.3340 11.953
20.3492 12.264
20.3643 12.171
20.3795 11.907
20.3947 11.896
20.4099 11.906
20.4250 11.962
20.4402 11.988
20.4554 11.967
20.4706 11.876
20.4857 11.659
20.5009 11.719
20.5161 11.602
20.5313 11.448
20.5464 11.594
20.5616 11.286
20.5768 11.371
20.5920 11.545
20.6071 11.472
20.6223 11.161
20.6375 11.026
20.6527 11.004
20.6678 10.944
20.6830 10.860
20.6982 10.551
20.7134 10.464
20.7285 10.483
20.7437 10.438
20.7589 10.743
20.7741 10.684
20.7892 10.575
20.8044 10.694
20.8196 10.578
20.8348 10.400
20.8499 10.180
20.8651 10.325
20.8803 10.535
20.8955 10.640
20.9106 10.302
20.9258 10.106
20.9410 9.886
20.9562 10.310
20.9713 10.271
20.9865 9.981
21.0017 9.933
21.0169 10.250
21.0320 9.991
21.0472 10.278
21.0624 10.305
21.0776 9.897
21.0927 10.286
21.1079 10.009
21.1231 9.923
21.1383 9.928
21.1534 9.968
21.1686 9.733
21.1838 9.876
21.1990 9.765
21.2141 9.596
21.2293 9.914
21.2445 9.851
21.2597 9.776
21.2748 9.711
21.2900 9.399
21.3052 9.852
21.3204 9.758
21.3355 9.537
21.3507 9.386
21.3659 9.666
21.3811 9.781
21.3962 9.727
21.4114 9.528
21.4266 9.376
21.4418 9.383
21.4569 9.204
21.4721 9.430
21.4873 9.410
21.5025 9.374
21.5176 9.372
21.5328 9.325
21.5480 9.262
21.5632 9.370
21.5783 9.402
21.5935 9.536
21.6087 9.330
21.6239 9.261
21.6390 9.279
21.6542 9.047
21.6694 8.993
21.6846 9.059
21.6997 9.182
21.7149 9.180
21.7301 9.011
21.7453 8.974
21.7604 9.092
21.7756 9.069
21.7908 9.053
21.8060 9.099
21.8211 8.907
21.8363 8.887
21.8515 9.039
21.8667 8.971
21.8818 8.904
21.8970 8.817
21.9122 8.817
21.9274 8.852
21.9425 8.830
21.9577 8.759
21.9729 8.838
21.9881 8.783
22.0032 8.837
22.0184 8.800
22.0336 8.833
22.0488 8.991
22.0639 8.911
22.0791 8.888
22.0943 8.938
22.1095 8.607
22.1246 8.513
22.1398 8.720
22.1550 8.612
22.1702 8.417
22.1853 8.450
22.2005 8.565
22.2157 8.693
22.2309 8.589
22.2460 8.680
22.2612 8.409
22.2764 8.258
22.2916 8.492
22.3067 8.499
22.3219 8.498
22.3371 8.528
22.3523 8.635
22.3674 8.515
22.3826 8.496
22.3978 8.313
22.4130 8.471
22.4281 8.514
22.4433 8.579
22.4585 8.436
22.4737 8.402
22.4888 8.370
22.5040 8.327
22.5192 8.445
22.5344 8.398
22.5495 8.473
22.5647 8.094
22.5799 8.456
22.5951 8.370
22.6102 8.468
22.6254 8.303
22.6406 8.518
22.6558 8.361
22.6709 8.266
22.6861 8.292
22.7013 8.333
22.7165 7.904
22.7316 6.404
