'Id: "" Comment: "" Operator: "Lab Manager" Anode: "Mo" Scantype: "Still (Eiger2R_500K (1D mode))" TimePerStep: "300" X: "11.8" Y: "9.4" Z: "11.284" 
7.2532 18.842
7.2684 18.952
7.2836 18.481
7.2987 18.926
7.3139 18.572
7.3291 19.078
7.3443 19.134
7.3594 19.199
7.3746 19.286
7.3898 18.949
7.4050 18.867
7.4201 19.359
7.4353 19.719
7.4505 19.720
7.4657 19.482
7.4808 19.475
7.4960 19.376
7.5112 19.903
7.5264 19.557
7.5415 19.390
7.5567 19.555
7.5719 19.751
7.5871 19.669
7.6022 19.626
7.6174 19.993
7.6326 20.111
7.6478 20.369
7.6629 20.283
7.6781 20.150
7.6933 20.595
7.7085 20.706
7.7236 20.445
7.7388 20.168
7.7540 20.199
7.7692 20.546
7.7843 20.296
7.7995 20.119
7.8147 20.703
7.8299 20.660
7.8450 20.593
7.8602 20.785
7.8754 20.568
7.8905 20.668
7.9057 20.787
7.9209 20.871
7.9361 20.922
7.9512 20.708
7.9664 20.925
7.9816 20.807
7.9968 20.724
8.0119 20.815
8.0271 21.072
8.0423 21.391
8.0575 21.321
8.0726 21.258
8.0878 20.973
8.1030 21.196
8.1182 21.302
8.1333 21.265
8.1485 21.260
8.1637 21.431
8.1789 21.001
8.1940 20.991
8.2092 21.295
8.2244 21.265
8.2396 21.492
8.2547 21.712
8.2699 21.439
8.2851 21.335
8.3003 21.114
8.3154 21.774
8.3306 21.660
8.3458 21.219
8.3610 21.172
8.3761 21.661
8.3913 21.750
8.4065 21.771
8.4217 21.642
8.4368 21.980
8.4520 22.039
8.4672 21.681
8.4824 21.878
8.4975 21.710
8.5127 21.923
8.5279 21.891
8.5431 21.782
8.5582 21.887
8.5734 21.893
8.5886 21.796
8.6038 21.925
8.6189 22.295
8.6341 21.671
8.6493 21.981
8.6645 22.401
8.6796 22.270
8.6948 22.585
8.7100 22.572
8.7252 22.878
8.7403 22.290
8.7555 22.173
8.7707 22.206
8.7859 22.524
8.8010 22.901
8.8162 22.362
8.8314 22.684
8.8466 22.311
8.8617 21.869
8.8769 22.579
8.8921 22.271
8.9073 22.720
8.9224 22.399
8.9376 22.784
8.9528 22.420
8.9680 22.623
8.9831 22.664
8.9983 22.529
9.0135 22.592
9.0287 23.020
9.0438 22.994
9.0590 22.901
9.0742 22.518
9.0894 22.592
9.1045 22.705
9.1197 22.708
9.1349 22.908
9.1501 23.000
9.1652 22.496
9.1804 22.699
9.1956 22.754
9.2108 22.595
9.2259 22.759
9.2411 22.605
9.2563 22.903
9.2715 23.255
9.2866 22.921
9.3018 22.873
9.3170 22.964
9.3322 22.870
9.3473 22.700
9.3625 22.670
9.3777 23.150
9.3929 23.148
9.4080 23.078
9.4232 22.847
9.4384 22.614
9.4536 22.834
9.4687 22.934
9.4839 23.135
9.4991 23.110
9.5143 22.808
9.5294 22.889
9.5446 23.108
9.5598 23.336
9.5750 23.205
9.5901 23.163
9.6053 23.116
9.6205 23.131
9.6357 23.275
9.6508 22.908
9.6660 22.878
9.6812 23.294
9.6964 23.524
9.7115 23.659
9.7267 23.658
9.7419 23.861
9.7571 23.925
9.7722 23.722
9.7874 23.509
9.8026 23.623
9.8178 23.684
9.8329 23.432
9.8481 23.369
9.8633 23.256
9.8785 23.176
9.8936 23.224
9.9088 23.155
9.9240 23.062
9.9392 23.572
9.9543 23.568
9.9695 23.177
9.9847 22.875
9.9999 22.832
10.0150 23.112
10.0302 23.096
10.0454 23.174
10.0606 23.032
10.0757 23.467
10.0909 23.242
10.1061 23.037
10.1213 23.303
10.1364 23.205
10.1516 23.122
10.1668 23.432
10.1820 23.428
10.1971 23.033
10.2123 22.860
10.2275 22.953
10.2427 23.056
10.2578 23.072
10.2730 22.951
10.2882 22.863
10.3034 22.906
10.3185 22.819
10.3337 22.525
10.3489 22.560
10.3641 22.837
10.3792 22.766
10.3944 22.712
10.4096 22.974
10.4248 22.466
10.4399 22.462
10.4551 22.852
10.4703 23.119
10.4855 22.683
10.5006 22.510
10.5158 22.624
10.5310 22.684
10.5462 22.448
10.5613 22.555
10.5765 22.371
10.5917 22.161
10.6069 21.948
10.6220 22.280
10.6372 22.688
10.6524 22.637
10.6676 22.678
10.6827 22.688
10.6979 22.636
10.7131 22.799
10.7283 22.501
10.7434 22.674
10.7586 22.466
10.7738 22.087
10.7890 22.187
10.8041 22.560
10.8193 22.484
10.8345 22.303
10.8497 22.876
10.8648 22.363
10.8800 22.017
10.8952 21.959
10.9104 21.746
10.9255 22.134
10.9407 22.058
10.9559 21.689
10.9711 21.788
10.9862 22.223
11.0014 22.069
11.0166 22.190
11.0318 22.280
11.0469 22.038
11.0621 21.773
11.0773 21.943
11.0925 21.932
11.1076 21.823
11.1228 21.456
11.1380 21.520
11.1532 21.651
11.1683 22.003
11.1835 21.595
11.1987 21.284
11.2139 21.847
11.2290 22.165
11.2442 22.025
11.2594 21.374
11.2746 21.253
11.2897 21.035
11.3049 21.263
11.3201 21.235
11.3353 21.206
11.3504 21.373
11.3656 21.511
11.3808 21.453
11.3960 21.339
11.4111 21.188
11.4263 21.249
11.4415 21.245
11.4567 21.240
11.4718 21.185
11.4870 20.666
11.5022 20.943
11.5174 21.073
11.5325 20.904
11.5477 20.870
11.5629 20.900
11.5781 20.505
11.5932 20.460
11.6084 20.876
11.6236 20.986
11.6388 21.178
11.6539 21.100
11.6691 20.910
11.6843 20.594
11.6995 20.511
11.7146 20.393
11.7298 20.232
11.7450 20.122
11.7602 20.218
11.7753 20.376
11.7905 20.299
11.8057 19.986
11.8209 19.869
11.8360 19.934
11.8512 19.982
11.8664 19.853
11.8816 19.694
11.8967 19.498
11.9119 19.404
11.9271 19.646
11.9423 19.988
11.9574 19.519
11.9726 19.033
11.9878 19.146
12.0030 19.427
12.0181 19.197
12.0333 18.805
12.0485 18.895
12.0637 18.963
12.0788 18.821
12.0940 18.686
12.1092 18.291
12.1244 18.408
12.1395 18.589
12.1547 18.567
12.1699 18.503
12.1851 18.412
12.2002 18.180
12.2154 18.212
12.2306 18.086
12.2458 18.146
12.2609 17.564
12.2761 17.466
12.2913 17.647
12.3065 17.685
12.3216 17.630
12.3368 17.567
12.3520 17.695
12.3672 17.285
12.3823 17.156
12.3975 17.340
12.4127 17.147
12.4279 17.090
12.4430 16.898
12.4582 16.957
12.4734 16.988
12.4886 16.718
12.5037 16.507
12.5189 16.645
12.5341 16.436
12.5493 16.248
12.5644 16.288
12.5796 16.080
12.5948 16.266
12.6100 16.070
12.6251 15.800
12.6403 15.891
12.6555 15.828
12.6707 15.776
12.6858 15.663
12.7010 15.478
12.7162 15.698
12.7314 15.664
12.7465 15.369
12.7617 15.152
12.7769 15.094
12.7921 15.186
12.8072 14.945
12.8224 14.802
12.8376 14.702
12.8528 14.745
12.8679 14.675
12.8831 14.560
12.8983 14.597
12.9135 14.535
12.9286 14.386
12.9438 14.471
12.9590 14.410
12.9742 14.482
12.9893 14.422
13.0045 14.200
13.0197 14.135
13.0349 13.904
13.0500 14.022
13.0652 14.152
13.0804 14.016
13.0956 13.779
13.1107 13.685
13.1259 13.920
13.1411 13.715
13.1563 13.482
13.1714 13.440
13.1866 13.465
13.2018 13.531
13.2170 13.341
13.2321 13.288
13.2473 13.219
13.2625 13.432
13.2777 13.456
13.2928 13.262
13.3080 13.291
13.3232 13.161
13.3384 13.061
13.3535 13.104
13.3687 13.116
13.3839 12.932
13.3991 13.072
13.4142 13.202
13.4294 13.207
13.4446 12.930
13.4598 12.822
13.4749 12.645
13.4901 12.558
13.5053 12.487
13.5205 12.255
13.5356 12.308
13.5508 12.212
13.5660 12.232
13.5812 12.319
13.5963 12.361
13.6115 12.220
13.6267 12.051
13.6419 12.046
13.6570 12.037
13.6722 12.175
13.6874 12.063
13.7026 12.058
13.7177 12.114
13.7329 12.554
13.7481 13.078
13.7633 12.706
13.7784 12.189
13.7936 12.179
13.8088 13.121
13.8239 14.317
13.8391 13.520
13.8543 12.499
13.8695 12.310
13.8846 12.541
13.8998 12.488
13.9150 12.251
13.9302 11.936
13.9453 11.981
13.9605 11.765
13.9757 11.980
13.9909 11.866
14.0060 11.626
14.0212 11.562
14.0364 11.656
14.0516 11.434
14.0667 11.203
14.0819 11.647
14.0971 11.533
14.1123 11.349
14.1274 11.324
14.1426 11.815
14.1578 11.797
14.1730 11.664
14.1881 11.753
14.2033 11.765
14.2185 11.839
14.2337 12.163
14.2488 11.884
14.2640 11.819
14.2792 11.828
14.2944 11.785
14.3095 11.961
14.3247 12.216
14.3399 12.325
14.3551 12.615
14.3702 12.527
14.3854 12.838
14.4006 12.997
14.4158 13.071
14.4309 12.843
14.4461 12.918
14.4613 12.628
14.4765 12.357
14.4916 12.080
14.5068 12.000
14.5220 11.386
14.5372 11.476
14.5523 11.354
14.5675 11.202
14.5827 11.426
14.5979 10.862
14.6130 10.798
14.6282 10.628
14.6434 10.630
14.6586 10.755
14.6737 10.818
14.6889 10.436
14.7041 10.740
14.7193 10.741
14.7344 10.502
14.7496 10.665
14.7648 10.610
14.7800 10.595
14.7951 10.296
14.8103 10.435
14.8255 10.811
14.8407 10.646
14.8558 10.616
14.8710 9.974
14.8862 10.494
14.9014 10.679
14.9165 10.671
14.9317 10.903
14.9469 10.328
14.9621 10.440
14.9772 10.312
14.9924 9.914
15.0076 10.243
15.0228 10.514
15.0379 10.383
15.0531 10.397
15.0683 10.253
15.0835 10.137
15.0986 9.960
15.1138 10.299
15.1290 10.301
15.1442 10.167
15.1593 10.102
15.1745 10.492
15.1897 10.119
15.2049 10.111
15.2200 10.003
15.2352 10.299
15.2504 10.306
15.2656 10.032
15.2807 10.070
15.2959 10.374
15.3111 9.820
15.3263 10.082
15.3414 10.287
15.3566 10.357
15.3718 10.077
15.3870 10.251
15.4021 9.994
15.4173 10.190
15.4325 10.309
15.4477 9.930
15.4628 9.879
15.4780 10.158
15.4932 10.118
15.5084 10.127
15.5235 10.102
15.5387 9.903
15.5539 9.843
15.5691 9.861
15.5842 9.973
15.5994 10.045
15.6146 9.947
15.6298 9.900
15.6449 9.963
15.6601 9.780
15.6753 9.549
15.6905 9.546
15.7056 9.949
15.7208 9.765
15.7360 9.584
15.7512 9.800
15.7663 9.926
15.7815 9.514
15.7967 9.663
15.8119 9.697
15.8270 9.441
15.8422 9.564
15.8574 9.939
15.8726 9.654
15.8877 9.897
15.9029 9.894
15.9181 9.669
15.9333 9.673
15.9484 9.608
15.9636 9.361
15.9788 9.297
15.9940 9.511
16.0091 9.464
16.0243 9.316
16.0395 9.741
16.0547 9.627
16.0698 9.731
16.0850 9.565
16.1002 9.650
16.1154 9.356
16.1305 9.542
16.1457 9.597
16.1609 9.422
16.1761 9.560
16.1912 9.744
16.2064 9.663
16.2216 9.885
16.2368 9.895
16.2519 9.574
16.2671 9.658
16.2823 9.790
16.2975 9.832
16.3126 9.908
16.3278 9.755
16.3430 9.784
16.3582 10.078
16.3733 10.052
16.3885 10.028
16.4037 9.707
16.4189 9.805
16.4340 9.889
16.4492 9.828
16.4644 9.840
16.4796 10.104
16.4947 9.901
16.5099 9.803
16.5251 9.466
16.5403 9.385
16.5554 9.499
16.5706 9.586
16.5858 9.642
16.6010 9.743
16.6161 9.524
16.6313 9.583
16.6465 9.686
16.6617 9.706
16.6768 9.924
16.6920 10.095
16.7072 10.043
16.7224 10.045
16.7375 10.135
16.7527 9.971
16.7679 9.835
16.7831 9.725
16.7982 9.773
16.8134 9.737
16.8286 9.708
16.8438 9.817
16.8589 9.842
16.8741 9.812
16.8893 9.968
16.9045 9.900
16.9196 9.854
16.9348 9.918
16.9500 9.853
16.9652 9.846
16.9803 9.820
16.9955 9.924
17.0107 10.015
17.0259 9.878
17.0410 9.835
17.0562 10.039
17.0714 10.223
17.0866 10.433
17.1017 10.476
17.1169 10.529
17.1321 10.817
17.1473 11.390
17.1624 11.746
17.1776 12.336
17.1928 13.199
17.2080 14.207
17.2231 15.056
17.2383 16.372
17.2535 17.899
17.2687 18.688
17.2838 18.801
17.2990 17.871
17.3142 16.971
17.3294 16.610
17.3445 16.255
17.3597 16.117
17.3749 16.173
17.3901 15.474
17.4052 14.397
17.4204 13.393
17.4356 12.428
17.4508 12.029
17.4659 11.901
17.4811 11.711
17.4963 11.549
17.5115 11.320
17.5266 11.003
17.5418 10.912
17.5570 10.863
17.5722 10.961
17.5873 11.007
17.6025 11.101
17.6177 11.307
17.6329 11.241
17.6480 11.171
17.6632 11.197
17.6784 11.440
17.6936 11.464
17.7087 11.412
17.7239 11.446
17.7391 11.196
17.7543 11.067
17.7694 11.152
17.7846 11.155
17.7998 11.047
17.8150 10.787
17.8301 10.456
17.8453 10.384
17.8605 10.425
17.8757 10.340
17.8908 10.192
17.9060 10.166
17.9212 10.127
17.9364 10.194
17.9515 10.099
17.9667 10.107
17.9819 10.223
17.9971 10.304
18.0122 10.304
18.0274 10.218
18.0426 10.205
18.0578 10.213
18.0729 10.145
18.0881 9.886
18.1033 9.872
18.1185 9.945
18.1336 9.937
18.1488 9.904
18.1640 9.743
18.1792 9.866
18.1943 10.017
18.2095 9.976
18.2247 9.925
18.2399 9.903
18.2550 9.974
18.2702 9.920
18.2854 9.839
18.3006 9.816
18.3157 9.770
18.3309 9.789
18.3461 9.763
18.3613 9.686
18.3764 9.667
18.3916 9.698
18.4068 9.918
18.4220 10.074
18.4371 9.833
18.4523 10.003
18.4675 9.919
18.4827 9.791
18.4978 9.769
18.5130 9.819
18.5282 9.870
18.5434 9.685
18.5585 9.966
18.5737 9.959
18.5889 9.559
18.6041 9.733
18.6192 9.714
18.6344 9.600
18.6496 9.711
18.6648 9.548
18.6799 9.449
18.6951 9.734
18.7103 9.861
18.7255 9.661
18.7406 9.764
18.7558 9.774
18.7710 9.651
18.7862 9.581
18.8013 9.575
18.8165 9.679
18.8317 9.678
18.8469 9.976
18.8620 9.996
18.8772 9.670
18.8924 9.509
18.9076 9.499
18.9227 9.594
18.9379 9.722
18.9531 10.024
18.9683 10.092
18.9834 9.841
18.9986 9.847
19.0138 10.167
19.0290 10.221
19.0441 10.248
19.0593 10.309
19.0745 10.302
19.0897 10.254
19.1048 10.144
19.1200 10.192
19.1352 10.529
19.1504 10.682
19.1655 10.617
19.1807 10.652
19.1959 10.813
19.2111 10.959
19.2262 10.743
19.2414 10.692
19.2566 10.838
19.2718 10.875
19.2869 10.716
19.3021 10.780
19.3173 10.881
19.3325 10.929
19.3476 11.153
19.3628 11.159
19.3780 11.139
19.3932 11.026
19.4083 11.158
19.4235 11.099
19.4387 10.995
19.4539 11.056
19.4690 11.159
19.4842 11.161
19.4994 11.276
19.5146 11.404
19.5297 11.500
19.5449 11.362
19.5601 11.519
19.5753 11.665
19.5904 11.703
19.6056 11.936
19.6208 11.662
19.6360 11.322
19.6511 11.607
19.6663 11.589
19.6815 11.330
19.6967 11.359
19.7118 11.613
19.7270 11.712
19.7422 11.657
19.7574 11.710
19.7725 11.818
19.7877 12.081
19.8029 12.117
19.8180 12.060
19.8332 12.113
19.8484 12.157
19.8636 12.372
19.8787 12.691
19.8939 12.965
19.9091 12.887
19.9243 13.246
19.9394 13.875
19.9546 14.160
19.9698 14.405
19.9850 14.356
20.0001 14.296
20.0153 14.054
20.0305 14.062
20.0457 13.847
20.0608 13.594
20.0760 13.810
20.0912 13.709
20.1064 13.644
20.1215 13.392
20.1367 12.898
20.1519 12.896
20.1671 12.975
20.1822 12.773
20.1974 12.584
20.2126 12.508
20.2278 12.613
20.2429 12.654
20.2581 12.213
20.2733 12.135
20.2885 12.108
20.3036 12.133
20.3188 11.946
20.3340 11.903
20.3492 11.863
20.3643 11.998
20.3795 11.794
20.3947 11.876
20.4099 11.888
20.4250 11.789
20.4402 11.876
20.4554 11.856
20.4706 11.851
20.4857 11.929
20.5009 11.799
20.5161 11.814
20.5313 11.877
20.5464 11.301
20.5616 11.491
20.5768 11.415
20.5920 11.261
20.6071 11.193
20.6223 10.983
20.6375 10.929
20.6527 10.998
20.6678 10.500
20.6830 10.580
20.6982 10.606
20.7134 10.400
20.7285 10.600
20.7437 10.480
20.7589 10.475
20.7741 10.359
20.7892 10.255
20.8044 10.094
20.8196 10.294
20.8348 10.147
20.8499 10.181
20.8651 10.216
20.8803 10.119
20.8955 9.995
20.9106 10.290
20.9258 10.202
20.9410 10.059
20.9562 10.132
20.9713 10.114
20.9865 10.206
21.0017 10.097
21.0169 10.193
21.0320 10.000
21.0472 9.680
21.0624 10.069
21.0776 10.033
21.0927 10.119
21.1079 9.904
21.1231 9.587
21.1383 10.014
21.1534 9.940
21.1686 9.889
21.1838 9.625
21.1990 9.704
21.2141 9.658
21.2293 9.976
21.2445 9.661
21.2597 10.003
21.2748 9.451
21.2900 9.471
21.3052 9.502
21.3204 9.418
21.3355 9.796
21.3507 9.423
21.3659 9.683
21.3811 9.758
21.3962 9.123
21.4114 9.444
21.4266 9.365
21.4418 9.544
21.4569 9.640
21.4721 9.201
21.4873 9.341
21.5025 9.823
21.5176 9.432
21.5328 9.384
21.5480 9.053
21.5632 9.219
21.5783 9.309
21.5935 9.357
21.6087 9.155
21.6239 8.941
21.6390 9.273
21.6542 9.136
21.6694 9.040
21.6846 8.954
21.6997 9.056
21.7149 9.104
21.7301 8.946
21.7453 9.124
21.7604 9.110
21.7756 8.864
21.7908 8.883
21.8060 9.013
21.8211 8.870
21.8363 8.983
21.8515 8.999
21.8667 8.847
21.8818 8.820
21.8970 8.905
21.9122 8.917
21.9274 8.961
21.9425 8.962
21.9577 8.882
21.9729 8.981
21.9881 8.901
22.0032 8.829
22.0184 8.712
22.0336 8.734
22.0488 8.862
22.0639 8.978
22.0791 8.820
22.0943 8.665
22.1095 8.848
22.1246 9.163
22.1398 8.913
22.1550 8.534
22.1702 8.628
22.1853 8.474
22.2005 8.695
22.2157 8.763
22.2309 8.491
22.2460 8.594
22.2612 8.465
22.2764 8.304
22.2916 8.347
22.3067 8.668
22.3219 8.719
22.3371 8.340
22.3523 8.170
22.3674 8.469
22.3826 8.626
22.3978 8.661
22.4130 8.477
22.4281 8.759
22.4433 8.242
22.4585 8.317
22.4737 8.478
22.4888 8.287
22.5040 8.602
22.5192 8.312
22.5344 8.740
22.5495 8.147
22.5647 8.507
22.5799 8.328
22.5951 8.158
22.6102 8.098
22.6254 8.523
22.6406 8.592
22.6558 8.300
22.6709 8.235
22.6861 8.258
22.7013 8.235
22.7165 7.824
22.7316 6.424
