'Id: "" Comment: "" Operator: "Lab Manager" Anode: "Mo" Scantype: "Still (Eiger2R_500K (1D mode))" TimePerStep: "300" X: "11.8" Y: "9.4" Z: "11.284" 
7.2532 18.340
7.2684 18.344
7.2836 18.560
7.2987 18.960
7.3139 18.908
7.3291 18.879
7.3443 18.808
7.3594 18.609
7.3746 18.721
7.3898 19.008
7.4050 19.302
7.4201 19.512
7.4353 19.695
7.4505 19.429
7.4657 19.362
7.4808 19.950
7.4960 19.485
7.5112 19.402
7.5264 19.278
7.5415 19.599
7.5567 19.676
7.5719 20.164
7.5871 20.109
7.6022 19.800
7.6174 20.029
7.6326 20.348
7.6478 19.767
7.6629 19.685
7.6781 20.040
7.6933 20.026
7.7085 20.299
7.7236 20.218
7.7388 19.843
7.7540 20.346
7.7692 20.205
7.7843 19.853
7.7995 20.016
7.8147 20.061
7.8299 20.231
7.8450 20.354
7.8602 20.440
7.8754 20.770
7.8905 20.839
7.9057 20.851
7.9209 20.554
7.9361 20.148
7.9512 20.542
7.9664 20.859
7.9816 20.599
7.9968 20.518
8.0119 20.739
8.0271 21.083
8.0423 21.173
8.0575 21.023
8.0726 21.131
8.0878 20.977
8.1030 20.967
8.1182 21.157
8.1333 20.933
8.1485 21.361
8.1637 21.228
8.1789 21.011
8.1940 20.938
8.2092 21.304
8.2244 21.359
8.2396 21.501
8.2547 21.168
8.2699 21.215
8.2851 21.135
8.3003 21.283
8.3154 21.335
8.3306 21.149
8.3458 21.379
8.3610 21.627
8.3761 21.670
8.3913 21.814
8.4065 21.255
8.4217 21.586
8.4368 21.593
8.4520 22.064
8.4672 21.673
8.4824 22.150
8.4975 21.532
8.5127 21.850
8.5279 21.870
8.5431 21.936
8.5582 22.706
8.5734 22.157
8.5886 21.817
8.6038 21.918
8.6189 22.199
8.6341 22.600
8.6493 22.187
8.6645 21.892
8.6796 22.077
8.6948 22.221
8.7100 22.280
8.7252 22.250
8.7403 22.392
8.7555 21.936
8.7707 22.622
8.7859 22.452
8.8010 22.307
8.8162 22.041
8.8314 22.409
8.8466 21.704
8.8617 22.288
8.8769 22.132
8.8921 22.709
8.9073 22.344
8.9224 22.356
8.9376 22.745
8.9528 22.151
8.9680 22.588
8.9831 22.467
8.9983 22.219
9.0135 22.062
9.0287 22.248
9.0438 22.285
9.0590 22.575
9.0742 22.475
9.0894 22.357
9.1045 22.419
9.1197 22.578
9.1349 22.692
9.1501 23.145
9.1652 22.676
9.1804 22.645
9.1956 22.934
9.2108 22.655
9.2259 22.668
9.2411 22.639
9.2563 22.656
9.2715 22.406
9.2866 22.801
9.3018 23.066
9.3170 23.177
9.3322 22.695
9.3473 22.799
9.3625 22.765
9.3777 23.017
9.3929 22.734
9.4080 22.615
9.4232 22.537
9.4384 22.774
9.4536 22.731
9.4687 22.832
9.4839 22.585
9.4991 22.890
9.5143 22.960
9.5294 22.821
9.5446 22.989
9.5598 23.313
9.5750 23.439
9.5901 23.340
9.6053 23.278
9.6205 23.086
9.6357 23.115
9.6508 23.163
9.6660 23.045
9.6812 23.303
9.6964 23.513
9.7115 23.293
9.7267 23.401
9.7419 23.740
9.7571 23.750
9.7722 23.556
9.7874 23.455
9.8026 23.421
9.8178 23.315
9.8329 23.170
9.8481 23.040
9.8633 23.159
9.8785 23.093
9.8936 22.763
9.9088 22.729
9.9240 22.794
9.9392 22.656
9.9543 22.853
9.9695 23.029
9.9847 22.960
9.9999 22.893
10.0150 23.081
10.0302 23.168
10.0454 23.167
10.0606 23.336
10.0757 23.300
10.0909 23.310
10.1061 23.516
10.1213 23.419
10.1364 23.257
10.1516 23.443
10.1668 23.703
10.1820 23.173
10.1971 22.660
10.2123 22.546
10.2275 22.683
10.2427 23.081
10.2578 22.893
10.2730 22.673
10.2882 22.506
10.3034 22.651
10.3185 22.818
10.3337 22.637
10.3489 22.490
10.3641 22.693
10.3792 22.498
10.3944 22.743
10.4096 22.884
10.4248 22.601
10.4399 22.440
10.4551 22.488
10.4703 22.592
10.4855 22.650
10.5006 22.839
10.5158 22.888
10.5310 22.484
10.5462 22.305
10.5613 22.326
10.5765 22.288
10.5917 22.410
10.6069 22.620
10.6220 22.620
10.6372 22.399
10.6524 22.234
10.6676 22.242
10.6827 22.447
10.6979 22.249
10.7131 22.314
10.7283 22.374
10.7434 21.797
10.7586 21.783
10.7738 21.883
10.7890 21.893
10.8041 22.077
10.8193 22.264
10.8345 22.163
10.8497 22.137
10.8648 22.076
10.8800 21.962
10.8952 21.723
10.9104 21.834
10.9255 21.851
10.9407 22.228
10.9559 21.994
10.9711 21.607
10.9862 22.084
11.0014 22.187
11.0166 21.968
11.0318 21.986
11.0469 21.631
11.0621 21.450
11.0773 21.817
11.0925 22.312
11.1076 22.027
11.1228 21.835
11.1380 21.476
11.1532 21.583
11.1683 21.467
11.1835 21.439
11.1987 21.852
11.2139 21.839
11.2290 21.670
11.2442 21.558
11.2594 21.365
11.2746 21.347
11.2897 21.254
11.3049 21.246
11.3201 21.465
11.3353 21.476
11.3504 21.142
11.3656 21.221
11.3808 20.942
11.3960 20.851
11.4111 21.016
11.4263 21.135
11.4415 21.223
11.4567 21.334
11.4718 21.274
11.4870 20.792
11.5022 20.940
11.5174 21.240
11.5325 21.220
11.5477 20.858
11.5629 20.686
11.5781 20.899
11.5932 20.654
11.6084 20.971
11.6236 20.960
11.6388 20.631
11.6539 20.372
11.6691 20.703
11.6843 20.752
11.6995 20.373
11.7146 20.324
11.7298 20.531
11.7450 20.150
11.7602 20.161
11.7753 20.006
11.7905 19.658
11.8057 19.978
11.8209 19.907
11.8360 19.870
11.8512 19.724
11.8664 19.590
11.8816 19.634
11.8967 19.811
11.9119 19.701
11.9271 19.301
11.9423 19.456
11.9574 19.272
11.9726 19.369
11.9878 19.141
12.0030 18.914
12.0181 18.979
12.0333 19.226
12.0485 18.779
12.0637 18.467
12.0788 18.906
12.0940 18.997
12.1092 18.885
12.1244 18.594
12.1395 18.568
12.1547 18.379
12.1699 18.055
12.1851 18.097
12.2002 18.012
12.2154 18.191
12.2306 17.743
12.2458 17.572
12.2609 17.836
12.2761 17.623
12.2913 17.412
12.3065 17.484
12.3216 17.731
12.3368 17.460
12.3520 17.371
12.3672 17.271
12.3823 17.187
12.3975 17.182
12.4127 17.042
12.4279 16.852
12.4430 16.834
12.4582 16.571
12.4734 16.369
12.4886 16.395
12.5037 16.513
12.5189 16.249
12.5341 16.439
12.5493 16.240
12.5644 16.081
12.5796 16.005
12.5948 16.058
12.6100 16.121
12.6251 15.919
12.6403 15.543
12.6555 15.619
12.6707 15.756
12.6858 15.812
12.7010 15.598
12.7162 15.471
12.7314 15.489
12.7465 15.540
12.7617 15.133
12.7769 14.963
12.7921 15.137
12.8072 14.983
12.8224 14.811
12.8376 14.840
12.8528 14.997
12.8679 15.080
12.8831 14.679
12.8983 14.310
12.9135 14.393
12.9286 14.339
12.9438 14.322
12.9590 14.472
12.9742 14.283
12.9893 14.111
13.0045 14.174
13.0197 14.137
13.0349 14.143
13.0500 14.054
13.0652 13.940
13.0804 13.729
13.0956 13.718
13.1107 13.618
13.1259 13.605
13.1411 13.862
13.1563 13.598
13.1714 13.230
13.1866 13.587
13.2018 13.803
13.2170 13.382
13.2321 13.270
13.2473 13.159
13.2625 13.189
13.2777 13.240
13.2928 13.026
13.3080 13.024
13.3232 12.941
13.3384 12.844
13.3535 12.982
13.3687 13.087
13.3839 13.074
13.3991 12.764
13.4142 12.706
13.4294 12.844
13.4446 12.686
13.4598 12.614
13.4749 12.471
13.4901 12.278
13.5053 12.397
13.5205 12.675
13.5356 12.671
13.5508 12.573
13.5660 12.709
13.5812 12.415
13.5963 12.067
13.6115 12.126
13.6267 12.392
13.6419 12.236
13.6570 12.131
13.6722 12.060
13.6874 12.110
13.7026 12.156
13.7177 11.955
13.7329 11.683
13.7481 11.857
13.7633 11.809
13.7784 11.933
13.7936 11.818
13.8088 11.875
13.8239 12.033
13.8391 12.366
13.8543 12.228
13.8695 12.329
13.8846 12.074
13.8998 12.159
13.9150 12.022
13.9302 11.655
13.9453 12.018
13.9605 12.064
13.9757 11.800
13.9909 11.695
14.0060 11.498
14.0212 11.590
14.0364 11.542
14.0516 11.422
14.0667 11.460
14.0819 11.355
14.0971 11.281
14.1123 11.161
14.1274 11.220
14.1426 11.169
14.1578 11.070
14.1730 10.932
14.1881 11.098
14.2033 11.269
14.2185 11.522
14.2337 11.577
14.2488 11.225
14.2640 11.272
14.2792 11.548
14.2944 11.368
14.3095 11.701
14.3247 12.012
14.3399 11.957
14.3551 11.931
14.3702 12.312
14.3854 12.725
14.4006 12.930
14.4158 13.184
14.4309 13.073
14.4461 13.205
14.4613 12.955
14.4765 12.656
14.4916 12.691
14.5068 12.394
14.5220 12.310
14.5372 11.952
14.5523 11.197
14.5675 11.569
14.5827 11.238
14.5979 10.919
14.6130 11.102
14.6282 11.010
14.6434 10.930
14.6586 10.831
14.6737 10.747
14.6889 10.559
14.7041 10.739
14.7193 11.019
14.7344 10.785
14.7496 10.670
14.7648 10.567
14.7800 10.590
14.7951 10.652
14.8103 10.649
14.8255 10.548
14.8407 10.561
14.8558 10.194
14.8710 10.534
14.8862 10.488
14.9014 10.678
14.9165 10.836
14.9317 10.610
14.9469 10.421
14.9621 10.401
14.9772 10.533
14.9924 10.265
15.0076 10.191
15.0228 10.415
15.0379 10.373
15.0531 10.135
15.0683 10.271
15.0835 10.551
15.0986 10.327
15.1138 10.372
15.1290 10.179
15.1442 10.051
15.1593 10.563
15.1745 10.294
15.1897 10.287
15.2049 10.247
15.2200 10.096
15.2352 10.014
15.2504 9.993
15.2656 10.030
15.2807 9.936
15.2959 9.692
15.3111 9.961
15.3263 10.031
15.3414 10.114
15.3566 10.026
15.3718 10.344
15.3870 10.154
15.4021 10.062
15.4173 10.265
15.4325 10.237
15.4477 10.186
15.4628 10.106
15.4780 10.510
15.4932 10.294
15.5084 9.865
15.5235 10.488
15.5387 10.028
15.5539 9.902
15.5691 9.915
15.5842 9.990
15.5994 9.806
15.6146 9.957
15.6298 10.049
15.6449 9.903
15.6601 9.780
15.6753 9.566
15.6905 9.740
15.7056 9.851
15.7208 9.597
15.7360 9.754
15.7512 9.654
15.7663 9.360
15.7815 9.351
15.7967 9.700
15.8119 9.783
15.8270 9.845
15.8422 9.754
15.8574 9.630
15.8726 9.488
15.8877 9.727
15.9029 9.532
15.9181 9.845
15.9333 9.615
15.9484 9.387
15.9636 9.677
15.9788 9.625
15.9940 9.723
16.0091 9.695
16.0243 9.686
16.0395 9.659
16.0547 9.646
16.0698 9.686
16.0850 9.491
16.1002 9.462
16.1154 9.556
16.1305 9.655
16.1457 9.660
16.1609 9.403
16.1761 9.458
16.1912 9.719
16.2064 9.689
16.2216 9.815
16.2368 9.858
16.2519 9.823
16.2671 9.606
16.2823 9.794
16.2975 9.764
16.3126 9.726
16.3278 9.671
16.3430 9.718
16.3582 9.831
16.3733 9.874
16.3885 9.813
16.4037 9.695
16.4189 9.589
16.4340 9.617
16.4492 9.752
16.4644 9.778
16.4796 9.809
16.4947 9.564
16.5099 9.652
16.5251 9.679
16.5403 9.563
16.5554 9.679
16.5706 9.638
16.5858 9.737
16.6010 9.755
16.6161 9.687
16.6313 9.657
16.6465 9.703
16.6617 9.709
16.6768 9.609
16.6920 9.764
16.7072 9.853
16.7224 9.772
16.7375 10.145
16.7527 10.085
16.7679 9.849
16.7831 9.795
16.7982 9.659
16.8134 9.870
16.8286 9.914
16.8438 9.795
16.8589 9.852
16.8741 9.611
16.8893 9.483
16.9045 9.739
16.9196 9.719
16.9348 9.467
16.9500 9.521
16.9652 9.533
16.9803 9.619
16.9955 9.963
17.0107 9.889
17.0259 9.857
17.0410 9.735
17.0562 9.859
17.0714 10.251
17.0866 10.072
17.1017 10.010
17.1169 10.388
17.1321 10.540
17.1473 10.831
17.1624 11.479
17.1776 12.128
17.1928 12.803
17.2080 13.678
17.2231 14.725
17.2383 16.023
17.2535 17.087
17.2687 18.030
17.2838 18.345
17.2990 17.751
17.3142 16.963
17.3294 16.093
17.3445 15.804
17.3597 15.963
17.3749 15.652
17.3901 14.869
17.4052 13.912
17.4204 12.883
17.4356 12.191
17.4508 11.923
17.4659 11.590
17.4811 11.222
17.4963 10.862
17.5115 10.744
17.5266 10.719
17.5418 10.436
17.5570 10.481
17.5722 10.409
17.5873 10.406
17.6025 10.704
17.6177 10.715
17.6329 10.683
17.6480 10.889
17.6632 11.281
17.6784 11.436
17.6936 11.442
17.7087 11.561
17.7239 11.680
17.7391 11.453
17.7543 11.249
17.7694 11.098
17.7846 11.053
17.7998 11.166
17.8150 11.089
17.8301 10.893
17.8453 10.756
17.8605 10.542
17.8757 10.395
17.8908 10.409
17.9060 10.383
17.9212 10.426
17.9364 10.325
17.9515 10.157
17.9667 10.198
17.9819 10.307
17.9971 10.225
18.0122 10.280
18.0274 10.378
18.0426 10.030
18.0578 9.941
18.0729 10.107
18.0881 10.101
18.1033 9.957
18.1185 9.838
18.1336 9.973
18.1488 9.886
18.1640 9.843
18.1792 9.997
18.1943 10.054
18.2095 9.961
18.2247 10.038
18.2399 9.909
18.2550 9.902
18.2702 9.846
18.2854 9.670
18.3006 9.653
18.3157 9.713
18.3309 9.617
18.3461 9.604
18.3613 9.830
18.3764 9.971
18.3916 9.929
18.4068 9.662
18.4220 9.715
18.4371 9.696
18.4523 9.876
18.4675 9.732
18.4827 9.695
18.4978 9.709
18.5130 9.536
18.5282 9.501
18.5434 9.724
18.5585 9.898
18.5737 9.810
18.5889 9.652
18.6041 9.753
18.6192 9.776
18.6344 9.497
18.6496 9.732
18.6648 9.979
18.6799 9.791
18.6951 9.732
18.7103 9.703
18.7255 9.756
18.7406 9.573
18.7558 9.577
18.7710 9.590
18.7862 9.694
18.8013 9.658
18.8165 9.308
18.8317 9.516
18.8469 9.661
18.8620 9.819
18.8772 9.840
18.8924 9.818
18.9076 9.831
18.9227 9.862
18.9379 9.965
18.9531 9.919
18.9683 9.743
18.9834 9.751
18.9986 10.016
19.0138 10.246
19.0290 10.199
19.0441 10.052
19.0593 10.122
19.0745 10.168
19.0897 10.293
19.1048 10.322
19.1200 10.327
19.1352 10.443
19.1504 10.292
19.1655 10.209
19.1807 10.435
19.1959 10.703
19.2111 10.582
19.2262 10.581
19.2414 10.608
19.2566 10.470
19.2718 10.518
19.2869 10.800
19.3021 10.847
19.3173 10.927
19.3325 11.041
19.3476 10.851
19.3628 10.814
19.3780 11.037
19.3932 11.200
19.4083 11.190
19.4235 11.168
19.4387 11.291
19.4539 11.104
19.4690 10.843
19.4842 10.931
19.4994 11.311
19.5146 11.544
19.5297 11.598
19.5449 11.547
19.5601 11.575
19.5753 11.560
19.5904 11.470
19.6056 11.366
19.6208 11.390
19.6360 11.558
19.6511 11.644
19.6663 11.756
19.6815 11.736
19.6967 11.451
19.7118 11.554
19.7270 11.707
19.7422 11.470
19.7574 11.659
19.7725 11.807
19.7877 11.791
19.8029 11.926
19.8180 11.781
19.8332 11.657
19.8484 11.985
19.8636 12.114
19.8787 12.405
19.8939 12.861
19.9091 13.042
19.9243 13.148
19.9394 13.412
19.9546 13.972
19.9698 14.327
19.9850 14.511
20.0001 14.253
20.0153 14.026
20.0305 13.917
20.0457 13.384
20.0608 13.036
20.0760 13.449
20.0912 13.683
20.1064 13.342
20.1215 13.155
20.1367 12.939
20.1519 12.864
20.1671 12.762
20.1822 12.503
20.1974 12.448
20.2126 12.464
20.2278 12.465
20.2429 12.378
20.2581 12.126
20.2733 11.882
20.2885 11.840
20.3036 11.808
20.3188 11.589
20.3340 11.666
20.3492 11.624
20.3643 11.367
20.3795 11.171
20.3947 11.411
20.4099 11.440
20.4250 11.496
20.4402 11.324
20.4554 11.482
20.4706 11.690
20.4857 11.610
20.5009 11.547
20.5161 11.499
20.5313 11.345
20.5464 11.347
20.5616 10.783
20.5768 11.172
20.5920 11.375
20.6071 11.441
20.6223 11.475
20.6375 10.902
20.6527 10.915
20.6678 10.719
20.6830 10.434
20.6982 10.534
20.7134 10.662
20.7285 10.203
20.7437 9.957
20.7589 10.135
20.7741 10.293
20.7892 10.320
20.8044 10.248
20.8196 10.125
20.8348 10.293
20.8499 10.054
20.8651 10.210
20.8803 10.251
20.8955 10.148
20.9106 10.381
20.9258 10.124
20.9410 10.354
20.9562 10.137
20.9713 10.169
20.9865 10.060
21.0017 9.762
21.0169 10.105
21.0320 10.141
21.0472 10.112
21.0624 9.802
21.0776 9.947
21.0927 10.224
21.1079 9.734
21.1231 9.910
21.1383 9.676
21.1534 9.763
21.1686 10.115
21.1838 9.650
21.1990 9.755
21.2141 9.719
21.2293 9.414
21.2445 9.395
21.2597 9.574
21.2748 9.289
21.2900 9.805
21.3052 9.740
21.3204 9.223
21.3355 9.444
21.3507 9.264
21.3659 9.246
21.3811 9.286
21.3962 9.470
21.4114 9.222
21.4266 9.427
21.4418 9.178
21.4569 9.390
21.4721 9.061
21.4873 9.198
21.5025 9.340
21.5176 9.325
21.5328 9.105
21.5480 9.181
21.5632 9.150
21.5783 8.965
21.5935 8.917
21.6087 9.152
21.6239 9.089
21.6390 9.109
21.6542 9.133
21.6694 9.142
21.6846 9.047
21.6997 9.035
21.7149 9.183
21.7301 8.677
21.7453 8.630
21.7604 8.971
21.7756 8.855
21.7908 8.893
21.8060 9.057
21.8211 8.947
21.8363 9.005
21.8515 9.229
21.8667 9.032
21.8818 9.051
21.8970 9.031
21.9122 8.900
21.9274 8.774
21.9425 8.709
21.9577 8.628
21.9729 8.620
21.9881 8.687
22.0032 8.778
22.0184 8.885
22.0336 8.815
22.0488 8.702
22.0639 8.797
22.0791 8.861
22.0943 8.826
22.1095 8.742
22.1246 8.618
22.1398 8.585
22.1550 8.644
22.1702 8.601
22.1853 8.469
22.2005 8.402
22.2157 8.516
22.2309 8.455
22.2460 8.524
22.2612 8.457
22.2764 8.410
22.2916 8.647
22.3067 8.386
22.3219 8.295
22.3371 8.171
22.3523 8.247
22.3674 8.170
22.3826 8.179
22.3978 8.369
22.4130 8.277
22.4281 8.325
22.4433 8.602
22.4585 8.606
22.4737 8.560
22.4888 8.420
22.5040 8.240
22.5192 8.199
22.5344 8.154
22.5495 8.388
22.5647 8.163
22.5799 8.242
22.5951 8.169
22.6102 8.200
22.6254 8.181
22.6406 8.166
22.6558 8.023
22.6709 8.147
22.6861 8.389
22.7013 8.052
22.7165 7.909
22.7316 6.410
