'Id: "" Comment: "" Operator: "Lab Manager" Anode: "Mo" Scantype: "Still (Eiger2R_500K (1D mode))" TimePerStep: "300" X: "11.8" Y: "9.4" Z: "11.284" 
7.2532 18.391
7.2684 18.869
7.2836 18.774
7.2987 18.961
7.3139 19.576
7.3291 19.635
7.3443 19.588
7.3594 19.206
7.3746 19.196
7.3898 19.019
7.4050 19.387
7.4201 19.545
7.4353 20.005
7.4505 19.457
7.4657 19.160
7.4808 19.766
7.4960 19.418
7.5112 19.344
7.5264 19.541
7.5415 20.029
7.5567 19.964
7.5719 19.774
7.5871 20.121
7.6022 20.201
7.6174 20.123
7.6326 20.092
7.6478 20.258
7.6629 20.386
7.6781 20.342
7.6933 19.988
7.7085 20.430
7.7236 20.615
7.7388 20.362
7.7540 20.390
7.7692 20.483
7.7843 20.430
7.7995 20.535
7.8147 20.751
7.8299 20.944
7.8450 21.080
7.8602 21.017
7.8754 21.057
7.8905 21.018
7.9057 20.954
7.9209 21.148
7.9361 21.298
7.9512 21.424
7.9664 21.270
7.9816 21.074
7.9968 21.064
8.0119 20.971
8.0271 21.100
8.0423 21.529
8.0575 21.342
8.0726 21.388
8.0878 21.446
8.1030 21.351
8.1182 21.675
8.1333 21.199
8.1485 21.445
8.1637 21.425
8.1789 21.682
8.1940 21.577
8.2092 21.390
8.2244 21.102
8.2396 21.361
8.2547 22.191
8.2699 21.893
8.2851 21.872
8.3003 21.947
8.3154 21.759
8.3306 22.248
8.3458 21.769
8.3610 21.940
8.3761 22.383
8.3913 21.546
8.4065 21.632
8.4217 22.230
8.4368 22.068
8.4520 22.389
8.4672 21.757
8.4824 21.964
8.4975 22.142
8.5127 21.996
8.5279 21.709
8.5431 22.578
8.5582 22.138
8.5734 22.042
8.5886 23.017
8.6038 22.231
8.6189 22.200
8.6341 22.321
8.6493 22.593
8.6645 22.347
8.6796 22.396
8.6948 22.526
8.7100 23.425
8.7252 23.240
8.7403 22.979
8.7555 22.759
8.7707 22.623
8.7859 22.751
8.8010 22.870
8.8162 22.786
8.8314 22.369
8.8466 22.613
8.8617 22.579
8.8769 22.580
8.8921 22.694
8.9073 23.097
8.9224 22.737
8.9376 22.553
8.9528 22.738
8.9680 22.876
8.9831 23.011
8.9983 22.975
9.0135 22.828
9.0287 23.020
9.0438 23.083
9.0590 22.917
9.0742 22.710
9.0894 22.824
9.1045 22.365
9.1197 22.808
9.1349 23.058
9.1501 22.904
9.1652 22.646
9.1804 22.872
9.1956 23.027
9.2108 23.321
9.2259 23.346
9.2411 23.251
9.2563 23.137
9.2715 23.065
9.2866 23.081
9.3018 23.035
9.3170 23.203
9.3322 23.236
9.3473 23.479
9.3625 23.516
9.3777 23.211
9.3929 22.951
9.4080 22.821
9.4232 23.085
9.4384 23.315
9.4536 23.370
9.4687 23.107
9.4839 22.984
9.4991 23.224
9.5143 23.373
9.5294 23.289
9.5446 23.120
9.5598 23.155
9.5750 23.766
9.5901 23.774
9.6053 23.154
9.6205 23.022
9.6357 23.162
9.6508 23.615
9.6660 23.808
9.6812 23.621
9.6964 23.455
9.7115 23.684
9.7267 24.149
9.7419 24.243
9.7571 24.158
9.7722 23.928
9.7874 23.716
9.8026 23.609
9.8178 23.439
9.8329 23.365
9.8481 23.454
9.8633 23.693
9.8785 23.499
9.8936 23.289
9.9088 23.587
9.9240 23.661
9.9392 23.454
9.9543 23.607
9.9695 23.562
9.9847 23.449
9.9999 23.779
10.0150 23.816
10.0302 23.880
10.0454 23.614
10.0606 23.539
10.0757 23.774
10.0909 23.771
10.1061 23.749
10.1213 23.844
10.1364 23.816
10.1516 23.652
10.1668 23.804
10.1820 23.974
10.1971 23.688
10.2123 23.742
10.2275 24.140
10.2427 24.133
10.2578 24.110
10.2730 23.816
10.2882 23.454
10.3034 23.642
10.3185 23.225
10.3337 23.036
10.3489 23.117
10.3641 23.271
10.3792 23.315
10.3944 23.168
10.4096 23.108
10.4248 22.409
10.4399 22.759
10.4551 23.056
10.4703 22.646
10.4855 22.543
10.5006 22.907
10.5158 22.729
10.5310 22.635
10.5462 22.894
10.5613 22.791
10.5765 22.662
10.5917 22.935
10.6069 23.091
10.6220 22.704
10.6372 22.512
10.6524 22.396
10.6676 22.427
10.6827 22.440
10.6979 22.395
10.7131 22.808
10.7283 22.497
10.7434 22.771
10.7586 22.658
10.7738 22.510
10.7890 22.672
10.8041 22.320
10.8193 22.200
10.8345 22.270
10.8497 22.179
10.8648 22.488
10.8800 22.857
10.8952 22.633
10.9104 22.448
10.9255 22.514
10.9407 22.291
10.9559 22.188
10.9711 22.044
10.9862 22.134
11.0014 22.050
11.0166 22.343
11.0318 22.671
11.0469 22.355
11.0621 21.849
11.0773 21.876
11.0925 22.099
11.1076 21.798
11.1228 21.756
11.1380 22.036
11.1532 22.234
11.1683 21.850
11.1835 21.883
11.1987 22.080
11.2139 22.365
11.2290 22.379
11.2442 22.067
11.2594 21.985
11.2746 21.830
11.2897 21.801
11.3049 21.719
11.3201 21.699
11.3353 21.940
11.3504 21.555
11.3656 21.138
11.3808 20.977
11.3960 21.470
11.4111 21.420
11.4263 21.278
11.4415 21.620
11.4567 21.432
11.4718 21.301
11.4870 21.216
11.5022 21.061
11.5174 20.763
11.5325 20.968
11.5477 20.891
11.5629 21.082
11.5781 20.764
11.5932 20.798
11.6084 20.892
11.6236 20.961
11.6388 20.677
11.6539 20.816
11.6691 20.848
11.6843 21.069
11.6995 20.722
11.7146 20.661
11.7298 20.317
11.7450 20.308
11.7602 20.576
11.7753 20.455
11.7905 20.186
11.8057 20.325
11.8209 20.074
11.8360 20.057
11.8512 20.084
11.8664 19.821
11.8816 20.182
11.8967 19.991
11.9119 19.741
11.9271 19.427
11.9423 19.513
11.9574 19.667
11.9726 19.639
11.9878 19.263
12.0030 19.381
12.0181 19.147
12.0333 19.279
12.0485 19.363
12.0637 19.144
12.0788 18.973
12.0940 19.023
12.1092 18.987
12.1244 19.196
12.1395 18.840
12.1547 18.683
12.1699 18.945
12.1851 18.541
12.2002 18.300
12.2154 18.046
12.2306 18.017
12.2458 17.903
12.2609 17.973
12.2761 18.158
12.2913 17.655
12.3065 17.492
12.3216 17.479
12.3368 17.675
12.3520 17.565
12.3672 17.446
12.3823 17.692
12.3975 17.682
12.4127 17.050
12.4279 17.165
12.4430 17.400
12.4582 17.248
12.4734 17.291
12.4886 17.226
12.5037 17.115
12.5189 16.994
12.5341 16.513
12.5493 16.536
12.5644 16.620
12.5796 16.211
12.5948 16.251
12.6100 16.272
12.6251 16.243
12.6403 16.098
12.6555 15.864
12.6707 15.840
12.6858 15.803
12.7010 15.564
12.7162 15.644
12.7314 15.528
12.7465 15.545
12.7617 15.520
12.7769 15.484
12.7921 15.251
12.8072 15.151
12.8224 15.329
12.8376 15.312
12.8528 15.164
12.8679 14.868
12.8831 14.974
12.8983 15.346
12.9135 15.086
12.9286 14.707
12.9438 14.511
12.9590 14.554
12.9742 14.604
12.9893 14.506
13.0045 14.532
13.0197 14.325
13.0349 14.160
13.0500 14.094
13.0652 14.047
13.0804 14.146
13.0956 14.151
13.1107 14.075
13.1259 14.065
13.1411 13.822
13.1563 13.511
13.1714 13.441
13.1866 13.461
13.2018 13.537
13.2170 13.546
13.2321 13.370
13.2473 13.452
13.2625 13.529
13.2777 13.353
13.2928 13.494
13.3080 13.367
13.3232 13.085
13.3384 12.793
13.3535 12.701
13.3687 12.900
13.3839 13.033
13.3991 13.050
13.4142 12.899
13.4294 13.029
13.4446 12.971
13.4598 12.895
13.4749 12.867
13.4901 12.793
13.5053 12.442
13.5205 12.351
13.5356 12.306
13.5508 12.303
13.5660 12.254
13.5812 12.145
13.5963 12.066
13.6115 12.128
13.6267 12.142
13.6419 12.189
13.6570 12.307
13.6722 12.055
13.6874 12.236
13.7026 12.222
13.7177 11.981
13.7329 11.969
13.7481 12.161
13.7633 12.269
13.7784 11.969
13.7936 12.014
13.8088 12.200
13.8239 12.208
13.8391 12.221
13.8543 12.231
13.8695 12.327
13.8846 12.251
13.8998 11.876
13.9150 12.005
13.9302 11.915
13.9453 12.182
13.9605 11.789
13.9757 11.735
13.9909 11.677
14.0060 11.748
14.0212 11.577
14.0364 11.882
14.0516 11.633
14.0667 11.652
14.0819 11.524
14.0971 11.508
14.1123 11.668
14.1274 11.669
14.1426 11.747
14.1578 11.551
14.1730 11.533
14.1881 11.573
14.2033 12.035
14.2185 11.978
14.2337 12.125
14.2488 11.832
14.2640 11.768
14.2792 11.835
14.2944 12.152
14.3095 12.112
14.3247 12.404
14.3399 12.510
14.3551 12.705
14.3702 12.991
14.3854 13.239
14.4006 13.139
14.4158 12.877
14.4309 12.840
14.4461 12.558
14.4613 12.792
14.4765 12.340
14.4916 12.307
14.5068 12.016
14.5220 11.693
14.5372 11.515
14.5523 11.253
14.5675 11.335
14.5827 11.340
14.5979 11.239
14.6130 11.089
14.6282 11.048
14.6434 11.014
14.6586 11.302
14.6737 11.144
14.6889 11.076
14.7041 11.043
14.7193 11.196
14.7344 11.224
14.7496 11.034
14.7648 11.072
14.7800 10.760
14.7951 10.768
14.8103 11.198
14.8255 11.015
14.8407 10.712
14.8558 10.833
14.8710 10.458
14.8862 10.405
14.9014 10.782
14.9165 10.753
14.9317 11.040
14.9469 10.462
14.9621 10.582
14.9772 10.340
14.9924 10.684
15.0076 10.349
15.0228 10.062
15.0379 10.628
15.0531 10.325
15.0683 10.613
15.0835 10.399
15.0986 10.768
15.1138 10.332
15.1290 10.407
15.1442 10.589
15.1593 10.312
15.1745 10.428
15.1897 10.540
15.2049 10.277
15.2200 10.541
15.2352 10.669
15.2504 10.207
15.2656 10.944
15.2807 10.129
15.2959 10.095
15.3111 10.724
15.3263 10.724
15.3414 10.613
15.3566 10.068
15.3718 10.351
15.3870 10.489
15.4021 10.465
15.4173 10.659
15.4325 10.306
15.4477 10.725
15.4628 10.392
15.4780 10.575
15.4932 10.741
15.5084 10.487
15.5235 10.312
15.5387 10.554
15.5539 10.420
15.5691 10.269
15.5842 10.292
15.5994 9.952
15.6146 10.164
15.6298 10.431
15.6449 10.225
15.6601 9.877
15.6753 9.685
15.6905 9.743
15.7056 9.784
15.7208 9.774
15.7360 9.945
15.7512 10.198
15.7663 9.873
15.7815 9.617
15.7967 9.783
15.8119 9.717
15.8270 9.830
15.8422 9.747
15.8574 9.969
15.8726 9.663
15.8877 9.608
15.9029 9.401
15.9181 9.710
15.9333 9.685
15.9484 9.883
15.9636 10.133
15.9788 9.917
15.9940 10.137
16.0091 10.227
16.0243 9.959
16.0395 9.692
16.0547 9.832
16.0698 9.850
16.0850 9.624
16.1002 9.696
16.1154 9.696
16.1305 9.707
16.1457 9.606
16.1609 9.552
16.1761 9.788
16.1912 9.835
16.2064 9.979
16.2216 9.842
16.2368 9.947
16.2519 9.826
16.2671 9.736
16.2823 9.914
16.2975 9.889
16.3126 10.133
16.3278 10.021
16.3430 10.030
16.3582 10.016
16.3733 10.097
16.3885 10.031
16.4037 10.013
16.4189 9.960
16.4340 10.026
16.4492 10.060
16.4644 9.875
16.4796 9.702
16.4947 9.626
16.5099 9.973
16.5251 9.850
16.5403 9.873
16.5554 9.674
16.5706 9.526
16.5858 9.856
16.6010 9.914
16.6161 9.964
16.6313 9.848
16.6465 9.510
16.6617 9.539
16.6768 9.720
16.6920 9.882
16.7072 10.268
16.7224 10.187
16.7375 10.044
16.7527 9.900
16.7679 9.918
16.7831 9.982
16.7982 9.944
16.8134 9.817
16.8286 9.751
16.8438 9.792
16.8589 9.767
16.8741 9.767
16.8893 9.742
16.9045 9.383
16.9196 9.584
16.9348 9.868
16.9500 9.727
16.9652 9.812
16.9803 9.966
16.9955 9.872
17.0107 10.042
17.0259 10.143
17.0410 10.024
17.0562 10.111
17.0714 10.227
17.0866 10.429
17.1017 10.675
17.1169 10.954
17.1321 11.093
17.1473 11.354
17.1624 11.837
17.1776 12.423
17.1928 12.982
17.2080 13.944
17.2231 15.071
17.2383 16.100
17.2535 17.237
17.2687 18.222
17.2838 18.731
17.2990 18.313
17.3142 17.322
17.3294 16.491
17.3445 16.298
17.3597 16.137
17.3749 15.716
17.3901 15.165
17.4052 14.290
17.4204 13.348
17.4356 12.596
17.4508 12.068
17.4659 11.763
17.4811 11.806
17.4963 11.730
17.5115 11.492
17.5266 11.384
17.5418 11.313
17.5570 11.447
17.5722 11.744
17.5873 11.844
17.6025 11.543
17.6177 11.276
17.6329 11.182
17.6480 10.982
17.6632 10.934
17.6784 11.112
17.6936 11.117
17.7087 10.976
17.7239 10.867
17.7391 10.735
17.7543 10.779
17.7694 10.590
17.7846 10.392
17.7998 10.118
17.8150 10.182
17.8301 10.249
17.8453 9.947
17.8605 10.187
17.8757 10.564
17.8908 10.436
17.9060 10.401
17.9212 10.527
17.9364 10.383
17.9515 10.358
17.9667 10.373
17.9819 10.490
17.9971 10.397
18.0122 10.314
18.0274 10.257
18.0426 10.313
18.0578 10.341
18.0729 10.205
18.0881 10.130
18.1033 10.117
18.1185 10.193
18.1336 10.175
18.1488 9.955
18.1640 9.895
18.1792 9.844
18.1943 9.779
18.2095 9.833
18.2247 9.807
18.2399 9.873
18.2550 9.840
18.2702 9.724
18.2854 9.761
18.3006 9.810
18.3157 9.892
18.3309 9.916
18.3461 9.824
18.3613 9.773
18.3764 9.822
18.3916 9.763
18.4068 9.739
18.4220 9.767
18.4371 9.645
18.4523 9.881
18.4675 9.901
18.4827 9.787
18.4978 9.703
18.5130 9.596
18.5282 9.523
18.5434 9.375
18.5585 9.521
18.5737 9.626
18.5889 9.693
18.6041 9.793
18.6192 9.870
18.6344 9.649
18.6496 9.738
18.6648 9.674
18.6799 9.504
18.6951 9.643
18.7103 9.798
18.7255 9.765
18.7406 9.568
18.7558 9.661
18.7710 9.901
18.7862 9.917
18.8013 9.785
18.8165 9.739
18.8317 9.873
18.8469 9.840
18.8620 9.969
18.8772 9.952
18.8924 9.931
18.9076 10.012
18.9227 10.014
18.9379 9.990
18.9531 10.039
18.9683 10.210
18.9834 9.902
18.9986 9.951
19.0138 9.939
19.0290 9.832
19.0441 10.133
19.0593 10.206
19.0745 10.216
19.0897 10.154
19.1048 10.141
19.1200 10.438
19.1352 10.397
19.1504 10.171
19.1655 10.431
19.1807 10.518
19.1959 10.282
19.2111 10.411
19.2262 10.800
19.2414 10.827
19.2566 10.794
19.2718 10.844
19.2869 11.122
19.3021 11.061
19.3173 10.964
19.3325 11.087
19.3476 11.061
19.3628 11.167
19.3780 11.342
19.3932 11.254
19.4083 11.130
19.4235 11.230
19.4387 10.997
19.4539 11.094
19.4690 11.452
19.4842 11.420
19.4994 11.529
19.5146 11.600
19.5297 11.584
19.5449 11.471
19.5601 11.567
19.5753 11.773
19.5904 11.574
19.6056 11.624
19.6208 11.888
19.6360 11.936
19.6511 11.852
19.6663 11.733
19.6815 11.633
19.6967 11.742
19.7118 11.823
19.7270 11.785
19.7422 11.759
19.7574 11.690
19.7725 11.755
19.7877 11.916
19.8029 11.989
19.8180 12.041
19.8332 12.140
19.8484 12.104
19.8636 12.142
19.8787 12.276
19.8939 12.688
19.9091 13.203
19.9243 13.312
19.9394 13.519
19.9546 13.963
19.9698 14.077
19.9850 14.136
20.0001 14.402
20.0153 14.332
20.0305 13.923
20.0457 13.686
20.0608 13.747
20.0760 13.725
20.0912 13.749
20.1064 13.857
20.1215 13.726
20.1367 13.301
20.1519 12.818
20.1671 12.790
20.1822 12.740
20.1974 12.777
20.2126 12.863
20.2278 13.067
20.2429 12.899
20.2581 12.496
20.2733 12.085
20.2885 11.929
20.3036 11.751
20.3188 11.875
20.3340 11.991
20.3492 11.793
20.3643 11.720
20.3795 11.592
20.3947 11.301
20.4099 11.142
20.4250 11.015
20.4402 10.960
20.4554 10.689
20.4706 10.782
20.4857 10.944
20.5009 10.790
20.5161 10.778
20.5313 10.717
20.5464 10.855
20.5616 10.612
20.5768 10.787
20.5920 10.850
20.6071 10.753
20.6223 10.892
20.6375 11.012
20.6527 10.930
20.6678 10.754
20.6830 10.597
20.6982 10.498
20.7134 10.600
20.7285 10.630
20.7437 10.708
20.7589 10.763
20.7741 10.475
20.7892 10.588
20.8044 10.474
20.8196 10.206
20.8348 10.113
20.8499 9.955
20.8651 10.170
20.8803 10.356
20.8955 10.164
20.9106 10.025
20.9258 10.069
20.9410 10.416
20.9562 10.196
20.9713 10.276
20.9865 10.371
21.0017 9.670
21.0169 10.113
21.0320 9.844
21.0472 9.999
21.0624 9.747
21.0776 9.734
21.0927 10.055
21.1079 9.994
21.1231 9.966
21.1383 9.731
21.1534 9.822
21.1686 9.570
21.1838 9.359
21.1990 9.473
21.2141 9.422
21.2293 9.800
21.2445 9.594
21.2597 9.522
21.2748 9.879
21.2900 9.662
21.3052 9.374
21.3204 9.815
21.3355 9.682
21.3507 9.478
21.3659 9.671
21.3811 9.764
21.3962 9.691
21.4114 9.243
21.4266 9.416
21.4418 9.429
21.4569 9.808
21.4721 9.534
21.4873 9.513
21.5025 9.178
21.5176 9.565
21.5328 9.448
21.5480 9.326
21.5632 9.558
21.5783 9.354
21.5935 9.157
21.6087 9.173
21.6239 9.273
21.6390 9.090
21.6542 9.246
21.6694 9.317
21.6846 9.121
21.6997 9.066
21.7149 9.020
21.7301 9.074
21.7453 9.140
21.7604 9.308
21.7756 9.227
21.7908 9.324
21.8060 9.040
21.8211 9.019
21.8363 9.103
21.8515 9.030
21.8667 9.055
21.8818 9.043
21.8970 9.015
21.9122 9.076
21.9274 8.982
21.9425 8.875
21.9577 8.930
21.9729 8.956
21.9881 8.977
22.0032 8.923
22.0184 8.889
22.0336 8.897
22.0488 8.787
22.0639 8.681
22.0791 8.636
22.0943 8.731
22.1095 8.784
22.1246 8.782
22.1398 8.675
22.1550 8.512
22.1702 8.793
22.1853 8.868
22.2005 8.767
22.2157 8.545
22.2309 8.775
22.2460 8.773
22.2612 8.716
22.2764 8.751
22.2916 8.555
22.3067 8.616
22.3219 8.660
22.3371 8.847
22.3523 8.669
22.3674 8.443
22.3826 8.652
22.3978 8.525
22.4130 8.426
22.4281 8.914
22.4433 8.554
22.4585 8.510
22.4737 8.354
22.4888 8.263
22.5040 8.499
22.5192 8.539
22.5344 8.412
22.5495 8.334
22.5647 8.381
22.5799 8.404
22.5951 8.653
22.6102 8.761
22.6254 8.642
22.6406 8.689
22.6558 8.393
22.6709 8.585
22.6861 8.471
22.7013 8.335
22.7165 7.925
22.7316 6.678
