'Id: "" Comment: "" Operator: "Lab Manager" Anode: "Mo" Scantype: "Still (Eiger2R_500K (1D mode))" TimePerStep: "300" X: "11.8" Y: "9.4" Z: "11.284" 
7.2532 18.959
7.2684 18.840
7.2836 19.061
7.2987 19.165
7.3139 18.626
7.3291 19.494
7.3443 19.424
7.3594 18.952
7.3746 19.767
7.3898 19.715
7.4050 19.336
7.4201 19.404
7.4353 19.465
7.4505 20.027
7.4657 20.002
7.4808 19.818
7.4960 19.853
7.5112 19.757
7.5264 20.017
7.5415 19.850
7.5567 19.718
7.5719 19.567
7.5871 19.487
7.6022 19.869
7.6174 19.766
7.6326 20.255
7.6478 20.165
7.6629 20.113
7.6781 20.324
7.6933 20.075
7.7085 20.207
7.7236 20.391
7.7388 20.490
7.7540 20.949
7.7692 21.146
7.7843 20.803
7.7995 20.293
7.8147 20.039
7.8299 20.429
7.8450 20.745
7.8602 20.808
7.8754 20.697
7.8905 20.800
7.9057 21.049
7.9209 21.208
7.9361 21.087
7.9512 21.017
7.9664 20.922
7.9816 21.054
7.9968 21.006
8.0119 21.069
8.0271 21.568
8.0423 21.279
8.0575 21.049
8.0726 21.263
8.0878 21.412
8.1030 21.421
8.1182 21.306
8.1333 21.456
8.1485 21.650
8.1637 21.653
8.1789 21.412
8.1940 22.203
8.2092 22.078
8.2244 21.652
8.2396 21.652
8.2547 21.672
8.2699 21.859
8.2851 21.823
8.3003 21.485
8.3154 21.606
8.3306 21.601
8.3458 22.162
8.3610 22.032
8.3761 21.602
8.3913 21.986
8.4065 22.066
8.4217 21.903
8.4368 21.826
8.4520 22.052
8.4672 22.033
8.4824 22.272
8.4975 21.970
8.5127 22.165
8.5279 22.136
8.5431 22.075
8.5582 22.170
8.5734 21.875
8.5886 22.570
8.6038 21.828
8.6189 22.483
8.6341 22.114
8.6493 22.035
8.6645 22.110
8.6796 22.440
8.6948 21.844
8.7100 22.408
8.7252 21.960
8.7403 22.293
8.7555 22.296
8.7707 22.794
8.7859 22.517
8.8010 21.876
8.8162 22.436
8.8314 22.510
8.8466 22.311
8.8617 22.514
8.8769 22.251
8.8921 22.807
8.9073 22.689
8.9224 23.055
8.9376 23.115
8.9528 22.850
8.9680 22.878
8.9831 22.646
8.9983 22.533
9.0135 22.725
9.0287 23.072
9.0438 22.458
9.0590 22.656
9.0742 22.563
9.0894 22.661
9.1045 22.945
9.1197 22.956
9.1349 22.932
9.1501 22.591
9.1652 22.760
9.1804 22.531
9.1956 22.862
9.2108 23.050
9.2259 22.719
9.2411 22.541
9.2563 22.521
9.2715 22.737
9.2866 23.020
9.3018 22.877
9.3170 22.818
9.3322 22.966
9.3473 22.848
9.3625 22.775
9.3777 22.961
9.3929 23.376
9.4080 22.892
9.4232 22.655
9.4384 22.852
9.4536 23.114
9.4687 23.250
9.4839 23.275
9.4991 23.436
9.5143 23.356
9.5294 23.160
9.5446 23.336
9.5598 23.560
9.5750 23.507
9.5901 23.699
9.6053 23.874
9.6205 23.679
9.6357 23.699
9.6508 23.797
9.6660 23.768
9.6812 23.582
9.6964 23.568
9.7115 23.772
9.7267 24.325
9.7419 24.348
9.7571 24.220
9.7722 24.288
9.7874 23.875
9.8026 23.857
9.8178 23.786
9.8329 23.312
9.8481 23.434
9.8633 23.816
9.8785 23.724
9.8936 23.652
9.9088 23.744
9.9240 23.820
9.9392 24.087
9.9543 24.161
9.9695 24.208
9.9847 23.840
9.9999 23.676
10.0150 23.481
10.0302 23.207
10.0454 23.353
10.0606 23.272
10.0757 23.159
10.0909 22.901
10.1061 23.159
10.1213 23.449
10.1364 23.070
10.1516 23.078
10.1668 23.102
10.1820 23.024
10.1971 23.366
10.2123 23.155
10.2275 23.382
10.2427 23.360
10.2578 23.154
10.2730 22.948
10.2882 22.938
10.3034 23.237
10.3185 23.061
10.3337 22.880
10.3489 23.240
10.3641 23.112
10.3792 23.320
10.3944 23.373
10.4096 23.027
10.4248 23.357
10.4399 23.270
10.4551 22.852
10.4703 22.962
10.4855 22.751
10.5006 22.657
10.5158 22.583
10.5310 22.497
10.5462 22.641
10.5613 22.769
10.5765 22.439
10.5917 22.222
10.6069 22.516
10.6220 22.434
10.6372 22.436
10.6524 22.934
10.6676 22.845
10.6827 22.634
10.6979 22.460
10.7131 22.393
10.7283 22.411
10.7434 22.505
10.7586 22.597
10.7738 22.346
10.7890 22.356
10.8041 22.397
10.8193 22.327
10.8345 22.322
10.8497 22.622
10.8648 22.528
10.8800 22.176
10.8952 21.848
10.9104 21.843
10.9255 21.887
10.9407 22.015
10.9559 22.307
10.9711 22.108
10.9862 21.779
11.0014 21.583
11.0166 21.944
11.0318 22.236
11.0469 21.973
11.0621 21.879
11.0773 22.274
11.0925 22.119
11.1076 22.119
11.1228 21.746
11.1380 21.833
11.1532 21.526
11.1683 21.586
11.1835 21.591
11.1987 21.844
11.2139 21.904
11.2290 22.085
11.2442 21.866
11.2594 21.614
11.2746 21.757
11.2897 21.826
11.3049 21.879
11.3201 21.667
11.3353 21.597
11.3504 21.468
11.3656 21.502
11.3808 21.847
11.3960 21.678
11.4111 21.566
11.4263 21.425
11.4415 21.408
11.4567 21.602
11.4718 21.325
11.4870 21.245
11.5022 21.293
11.5174 21.033
11.5325 21.082
11.5477 21.141
11.5629 21.102
11.5781 20.929
11.5932 21.170
11.6084 20.857
11.6236 20.757
11.6388 20.984
11.6539 20.654
11.6691 20.560
11.6843 20.598
11.6995 20.766
11.7146 20.821
11.7298 20.513
11.7450 20.805
11.7602 20.529
11.7753 20.313
11.7905 20.231
11.8057 20.430
11.8209 20.406
11.8360 20.167
11.8512 19.851
11.8664 19.879
11.8816 19.601
11.8967 19.745
11.9119 19.553
11.9271 19.594
11.9423 19.362
11.9574 19.464
11.9726 19.111
11.9878 19.050
12.0030 19.465
12.0181 19.325
12.0333 19.230
12.0485 19.124
12.0637 18.925
12.0788 18.700
12.0940 18.721
12.1092 18.866
12.1244 18.780
12.1395 18.983
12.1547 18.798
12.1699 18.662
12.1851 18.656
12.2002 18.229
12.2154 18.126
12.2306 18.034
12.2458 17.962
12.2609 17.786
12.2761 17.701
12.2913 17.869
12.3065 17.770
12.3216 17.978
12.3368 17.780
12.3520 17.620
12.3672 17.412
12.3823 17.266
12.3975 17.204
12.4127 16.973
12.4279 16.951
12.4430 16.946
12.4582 16.484
12.4734 16.620
12.4886 16.975
12.5037 16.958
12.5189 16.916
12.5341 16.697
12.5493 16.472
12.5644 16.645
12.5796 16.614
12.5948 16.498
12.6100 16.463
12.6251 16.200
12.6403 16.114
12.6555 15.928
12.6707 15.700
12.6858 16.050
12.7010 16.156
12.7162 15.634
12.7314 15.470
12.7465 15.573
12.7617 15.380
12.7769 15.343
12.7921 15.201
12.8072 14.931
12.8224 15.094
12.8376 14.913
12.8528 14.809
12.8679 14.846
12.8831 14.833
12.8983 14.760
12.9135 14.697
12.9286 14.541
12.9438 14.492
12.9590 14.723
12.9742 14.376
12.9893 14.293
13.0045 14.526
13.0197 14.266
13.0349 14.087
13.0500 14.033
13.0652 14.042
13.0804 14.052
13.0956 13.953
13.1107 14.019
13.1259 14.026
13.1411 13.822
13.1563 13.758
13.1714 13.533
13.1866 13.387
13.2018 13.594
13.2170 13.721
13.2321 13.473
13.2473 13.332
13.2625 13.534
13.2777 13.562
13.2928 13.465
13.3080 13.324
13.3232 13.423
13.3384 13.266
13.3535 13.049
13.3687 12.963
13.3839 13.071
13.3991 13.174
13.4142 12.896
13.4294 12.787
13.4446 12.596
13.4598 12.841
13.4749 12.815
13.4901 12.677
13.5053 12.578
13.5205 12.556
13.5356 12.793
13.5508 12.751
13.5660 12.356
13.5812 12.079
13.5963 12.412
13.6115 12.454
13.6267 12.256
13.6419 12.136
13.6570 12.239
13.6722 12.180
13.6874 12.192
13.7026 12.239
13.7177 12.188
13.7329 12.311
13.7481 12.067
13.7633 12.214
13.7784 12.386
13.7936 12.186
13.8088 12.054
13.8239 12.122
13.8391 12.449
13.8543 12.241
13.8695 12.350
13.8846 12.269
13.8998 12.231
13.9150 12.340
13.9302 12.234
13.9453 12.325
13.9605 12.209
13.9757 11.838
13.9909 11.699
14.0060 11.893
14.0212 11.882
14.0364 11.709
14.0516 11.443
14.0667 11.612
14.0819 11.646
14.0971 11.529
14.1123 11.411
14.1274 11.259
14.1426 11.094
14.1578 11.536
14.1730 11.332
14.1881 11.408
14.2033 11.421
14.2185 11.161
14.2337 11.471
14.2488 11.555
14.2640 11.554
14.2792 11.699
14.2944 11.657
14.3095 11.416
14.3247 11.309
14.3399 11.494
14.3551 11.779
14.3702 11.961
14.3854 12.350
14.4006 12.496
14.4158 12.600
14.4309 12.590
14.4461 12.544
14.4613 12.189
14.4765 12.381
14.4916 12.207
14.5068 11.952
14.5220 11.775
14.5372 11.850
14.5523 11.883
14.5675 11.173
14.5827 11.342
14.5979 11.137
14.6130 11.327
14.6282 10.986
14.6434 11.119
14.6586 11.301
14.6737 11.207
14.6889 11.414
14.7041 10.971
14.7193 11.350
14.7344 11.182
14.7496 11.275
14.7648 11.073
14.7800 11.161
14.7951 11.119
14.8103 11.118
14.8255 11.071
14.8407 11.240
14.8558 10.955
14.8710 10.759
14.8862 10.886
14.9014 10.941
14.9165 10.978
14.9317 10.906
14.9469 10.847
14.9621 10.616
14.9772 10.609
14.9924 10.842
15.0076 10.243
15.0228 10.538
15.0379 10.523
15.0531 10.769
15.0683 10.642
15.0835 10.774
15.0986 10.394
15.1138 10.660
15.1290 10.535
15.1442 10.567
15.1593 10.252
15.1745 10.513
15.1897 10.267
15.2049 10.320
15.2200 10.284
15.2352 10.296
15.2504 10.380
15.2656 10.318
15.2807 10.456
15.2959 10.691
15.3111 10.525
15.3263 10.283
15.3414 10.237
15.3566 10.672
15.3718 10.194
15.3870 10.238
15.4021 10.364
15.4173 10.284
15.4325 10.514
15.4477 10.894
15.4628 10.539
15.4780 10.543
15.4932 10.449
15.5084 10.785
15.5235 10.104
15.5387 10.285
15.5539 10.508
15.5691 10.485
15.5842 10.137
15.5994 10.251
15.6146 9.925
15.6298 10.024
15.6449 10.193
15.6601 10.154
15.6753 10.018
15.6905 10.354
15.7056 9.985
15.7208 9.817
15.7360 10.183
15.7512 10.039
15.7663 9.954
15.7815 9.795
15.7967 9.960
15.8119 9.689
15.8270 10.057
15.8422 9.805
15.8574 9.987
15.8726 9.712
15.8877 9.672
15.9029 9.630
15.9181 9.845
15.9333 9.806
15.9484 9.766
15.9636 9.695
15.9788 9.807
15.9940 9.817
16.0091 9.993
16.0243 9.739
16.0395 9.678
16.0547 9.916
16.0698 10.117
16.0850 10.095
16.1002 9.939
16.1154 9.836
16.1305 9.952
16.1457 9.752
16.1609 9.563
16.1761 9.889
16.1912 9.866
16.2064 9.714
16.2216 9.817
16.2368 10.112
16.2519 10.415
16.2671 10.162
16.2823 9.994
16.2975 10.070
16.3126 9.762
16.3278 9.698
16.3430 9.873
16.3582 10.046
16.3733 9.885
16.3885 9.900
16.4037 10.224
16.4189 10.044
16.4340 10.195
16.4492 10.165
16.4644 10.267
16.4796 10.230
16.4947 10.095
16.5099 10.025
16.5251 10.009
16.5403 10.068
16.5554 9.913
16.5706 9.904
16.5858 9.721
16.6010 9.921
16.6161 9.858
16.6313 9.581
16.6465 9.813
16.6617 9.772
16.6768 9.826
16.6920 9.955
16.7072 10.058
16.7224 10.064
16.7375 10.028
16.7527 10.286
16.7679 10.158
16.7831 9.977
16.7982 9.969
16.8134 10.078
16.8286 10.221
16.8438 10.085
16.8589 10.058
16.8741 9.980
16.8893 9.731
16.9045 9.872
16.9196 9.979
16.9348 9.782
16.9500 9.791
16.9652 9.859
16.9803 9.791
16.9955 9.901
17.0107 9.977
17.0259 10.313
17.0410 10.423
17.0562 10.408
17.0714 10.456
17.0866 10.476
17.1017 10.685
17.1169 10.929
17.1321 11.065
17.1473 11.355
17.1624 11.825
17.1776 12.471
17.1928 13.221
17.2080 14.193
17.2231 15.270
17.2383 16.303
17.2535 17.653
17.2687 18.806
17.2838 19.045
17.2990 18.313
17.3142 17.187
17.3294 16.445
17.3445 16.106
17.3597 16.008
17.3749 15.829
17.3901 15.392
17.4052 14.328
17.4204 12.971
17.4356 12.221
17.4508 11.955
17.4659 11.635
17.4811 11.402
17.4963 11.160
17.5115 10.965
17.5266 10.817
17.5418 10.582
17.5570 10.680
17.5722 10.689
17.5873 10.538
17.6025 10.280
17.6177 10.261
17.6329 10.168
17.6480 10.011
17.6632 9.935
17.6784 9.997
17.6936 10.229
17.7087 10.139
17.7239 10.239
17.7391 10.407
17.7543 10.399
17.7694 10.424
17.7846 10.444
17.7998 10.535
17.8150 10.537
17.8301 10.607
17.8453 10.779
17.8605 10.816
17.8757 10.903
17.8908 11.001
17.9060 11.154
17.9212 11.137
17.9364 10.873
17.9515 10.619
17.9667 10.519
17.9819 10.584
17.9971 10.543
18.0122 10.655
18.0274 10.704
18.0426 10.434
18.0578 10.272
18.0729 10.246
18.0881 9.991
18.1033 10.114
18.1185 9.994
18.1336 9.892
18.1488 10.174
18.1640 10.231
18.1792 10.028
18.1943 9.957
18.2095 9.894
18.2247 9.856
18.2399 10.005
18.2550 10.108
18.2702 10.107
18.2854 9.973
18.3006 9.923
18.3157 10.084
18.3309 9.914
18.3461 9.951
18.3613 9.909
18.3764 9.964
18.3916 9.992
18.4068 10.123
18.4220 9.894
18.4371 9.727
18.4523 9.908
18.4675 9.778
18.4827 9.782
18.4978 9.864
18.5130 9.939
18.5282 9.905
18.5434 9.752
18.5585 9.784
18.5737 9.708
18.5889 9.754
18.6041 9.719
18.6192 9.776
18.6344 9.754
18.6496 9.711
18.6648 9.714
18.6799 9.813
18.6951 9.704
18.7103 9.877
18.7255 9.766
18.7406 9.736
18.7558 10.022
18.7710 9.774
18.7862 9.803
18.8013 9.829
18.8165 9.681
18.8317 9.730
18.8469 9.862
18.8620 10.069
18.8772 10.052
18.8924 10.014
18.9076 10.048
18.9227 9.969
18.9379 10.071
18.9531 9.967
18.9683 9.799
18.9834 9.819
18.9986 10.203
19.0138 10.317
19.0290 10.179
19.0441 10.196
19.0593 10.226
19.0745 10.329
19.0897 10.097
19.1048 10.235
19.1200 10.371
19.1352 10.469
19.1504 10.452
19.1655 10.698
19.1807 10.738
19.1959 10.557
19.2111 10.975
19.2262 11.092
19.2414 10.841
19.2566 10.783
19.2718 10.865
19.2869 10.810
19.3021 10.854
19.3173 10.964
19.3325 11.185
19.3476 11.257
19.3628 11.154
19.3780 11.262
19.3932 11.320
19.4083 11.318
19.4235 11.307
19.4387 11.366
19.4539 11.357
19.4690 11.443
19.4842 11.464
19.4994 11.466
19.5146 11.290
19.5297 11.323
19.5449 11.618
19.5601 11.652
19.5753 11.684
19.5904 11.690
19.6056 11.684
19.6208 11.751
19.6360 11.824
19.6511 11.805
19.6663 12.041
19.6815 11.726
19.6967 11.449
19.7118 11.703
19.7270 11.713
19.7422 11.660
19.7574 11.585
19.7725 11.736
19.7877 11.889
19.8029 11.958
19.8180 12.347
19.8332 12.319
19.8484 12.259
19.8636 12.540
19.8787 12.621
19.8939 12.777
19.9091 13.128
19.9243 13.605
19.9394 13.919
19.9546 14.367
19.9698 14.537
19.9850 14.568
20.0001 14.606
20.0153 14.513
20.0305 14.120
20.0457 13.735
20.0608 13.640
20.0760 13.712
20.0912 13.810
20.1064 13.714
20.1215 13.817
20.1367 13.583
20.1519 13.071
20.1671 12.709
20.1822 12.703
20.1974 12.753
20.2126 12.607
20.2278 12.608
20.2429 12.584
20.2581 12.355
20.2733 11.825
20.2885 11.532
20.3036 11.637
20.3188 11.646
20.3340 11.523
20.3492 11.543
20.3643 11.637
20.3795 11.475
20.3947 11.381
20.4099 11.291
20.4250 11.235
20.4402 11.117
20.4554 10.882
20.4706 10.751
20.4857 10.508
20.5009 10.789
20.5161 10.655
20.5313 10.724
20.5464 10.646
20.5616 10.474
20.5768 10.639
20.5920 10.415
20.6071 10.626
20.6223 10.875
20.6375 10.749
20.6527 10.819
20.6678 10.474
20.6830 10.268
20.6982 10.452
20.7134 10.323
20.7285 10.367
20.7437 10.523
20.7589 10.441
20.7741 10.451
20.7892 10.581
20.8044 10.488
20.8196 10.246
20.8348 10.370
20.8499 10.453
20.8651 10.616
20.8803 10.346
20.8955 10.110
20.9106 10.406
20.9258 10.404
20.9410 10.353
20.9562 10.435
20.9713 10.262
20.9865 10.392
21.0017 10.390
21.0169 10.289
21.0320 10.064
21.0472 10.625
21.0624 10.254
21.0776 10.031
21.0927 9.910
21.1079 10.323
21.1231 10.044
21.1383 9.939
21.1534 10.092
21.1686 10.408
21.1838 10.014
21.1990 9.935
21.2141 9.577
21.2293 9.825
21.2445 9.708
21.2597 10.077
21.2748 9.884
21.2900 9.889
21.3052 9.508
21.3204 9.812
21.3355 9.665
21.3507 9.309
21.3659 9.363
21.3811 9.495
21.3962 9.546
21.4114 9.758
21.4266 9.592
21.4418 9.564
21.4569 9.337
21.4721 9.551
21.4873 9.495
21.5025 9.609
21.5176 9.402
21.5328 9.270
21.5480 9.082
21.5632 9.270
21.5783 9.093
21.5935 9.350
21.6087 9.361
21.6239 9.229
21.6390 9.143
21.6542 9.170
21.6694 8.918
21.6846 8.985
21.6997 9.091
21.7149 9.192
21.7301 9.063
21.7453 9.031
21.7604 9.084
21.7756 9.175
21.7908 9.172
21.8060 9.061
21.8211 9.087
21.8363 9.196
21.8515 9.086
21.8667 8.952
21.8818 8.919
21.8970 8.814
21.9122 8.989
21.9274 9.172
21.9425 9.105
21.9577 9.055
21.9729 8.953
21.9881 8.846
22.0032 8.992
22.0184 8.992
22.0336 8.810
22.0488 8.985
22.0639 9.007
22.0791 8.813
22.0943 8.870
22.1095 8.797
22.1246 8.733
22.1398 8.692
22.1550 8.547
22.1702 8.780
22.1853 8.744
22.2005 8.863
22.2157 8.752
22.2309 8.748
22.2460 8.603
22.2612 8.452
22.2764 8.636
22.2916 8.725
22.3067 8.613
22.3219 8.597
22.3371 8.621
22.3523 8.676
22.3674 8.560
22.3826 8.757
22.3978 8.648
22.4130 8.501
22.4281 8.477
22.4433 8.623
22.4585 8.520
22.4737 8.385
22.4888 8.368
22.5040 8.266
22.5192 8.524
22.5344 8.922
22.5495 8.587
22.5647 8.280
22.5799 8.453
22.5951 8.569
22.6102 8.428
22.6254 8.246
22.6406 8.429
22.6558 8.686
22.6709 8.486
22.6861 8.092
22.7013 8.408
22.7165 8.069
22.7316 6.531
