'Id: "" Comment: "" Operator: "Lab Manager" Anode: "Mo" Scantype: "Still (Eiger2R_500K (1D mode))" TimePerStep: "300" X: "11.8" Y: "9.4" Z: "11.284" 
7.2532 18.822
7.2684 19.583
7.2836 18.999
7.2987 19.236
7.3139 19.552
7.3291 19.489
7.3443 19.855
7.3594 19.777
7.3746 19.695
7.3898 19.548
7.4050 19.485
7.4201 19.339
7.4353 19.725
7.4505 19.498
7.4657 19.440
7.4808 19.580
7.4960 19.446
7.5112 19.821
7.5264 19.572
7.5415 19.725
7.5567 19.727
7.5719 19.862
7.5871 19.706
7.6022 19.859
7.6174 19.943
7.6326 19.980
7.6478 20.250
7.6629 20.105
7.6781 20.681
7.6933 20.649
7.7085 20.568
7.7236 20.644
7.7388 20.460
7.7540 20.533
7.7692 20.492
7.7843 20.412
7.7995 20.531
7.8147 20.674
7.8299 20.360
7.8450 20.461
7.8602 20.810
7.8754 21.077
7.8905 21.094
7.9057 21.328
7.9209 21.071
7.9361 20.712
7.9512 20.959
7.9664 21.240
7.9816 21.207
7.9968 20.990
8.0119 21.086
8.0271 21.145
8.0423 21.202
8.0575 20.883
8.0726 21.155
8.0878 21.660
8.1030 21.351
8.1182 21.646
8.1333 21.945
8.1485 21.829
8.1637 21.782
8.1789 21.457
8.1940 21.920
8.2092 21.754
8.2244 21.719
8.2396 21.860
8.2547 21.892
8.2699 22.047
8.2851 22.021
8.3003 22.309
8.3154 22.285
8.3306 22.129
8.3458 22.215
8.3610 22.179
8.3761 22.112
8.3913 22.306
8.4065 21.890
8.4217 21.856
8.4368 22.494
8.4520 22.310
8.4672 21.973
8.4824 22.404
8.4975 21.888
8.5127 22.104
8.5279 22.458
8.5431 21.937
8.5582 22.344
8.5734 22.295
8.5886 22.568
8.6038 22.205
8.6189 22.927
8.6341 22.115
8.6493 22.150
8.6645 22.876
8.6796 22.604
8.6948 22.609
8.7100 22.481
8.7252 22.516
8.7403 22.764
8.7555 22.550
8.7707 22.959
8.7859 22.864
8.8010 22.474
8.8162 22.969
8.8314 22.754
8.8466 23.089
8.8617 23.148
8.8769 22.444
8.8921 22.398
8.9073 23.246
8.9224 22.779
8.9376 23.016
8.9528 22.689
8.9680 22.551
8.9831 23.041
8.9983 22.998
9.0135 22.876
9.0287 23.019
9.0438 23.105
9.0590 22.814
9.0742 22.778
9.0894 22.914
9.1045 22.886
9.1197 23.066
9.1349 22.846
9.1501 22.604
9.1652 22.858
9.1804 22.978
9.1956 22.884
9.2108 23.376
9.2259 23.319
9.2411 22.962
9.2563 22.842
9.2715 23.285
9.2866 23.528
9.3018 23.122
9.3170 22.813
9.3322 23.163
9.3473 23.444
9.3625 23.338
9.3777 23.298
9.3929 23.237
9.4080 23.094
9.4232 23.481
9.4384 23.137
9.4536 23.151
9.4687 23.298
9.4839 23.149
9.4991 23.055
9.5143 23.048
9.5294 23.306
9.5446 23.393
9.5598 23.616
9.5750 23.931
9.5901 23.581
9.6053 23.329
9.6205 23.337
9.6357 23.429
9.6508 23.809
9.6660 24.051
9.6812 24.100
9.6964 23.758
9.7115 23.862
9.7267 24.197
9.7419 24.001
9.7571 23.960
9.7722 24.211
9.7874 24.529
9.8026 24.579
9.8178 24.098
9.8329 24.199
9.8481 24.104
9.8633 23.925
9.8785 24.241
9.8936 24.389
9.9088 24.561
9.9240 24.938
9.9392 24.899
9.9543 24.262
9.9695 24.265
9.9847 24.091
9.9999 23.688
10.0150 23.507
10.0302 23.550
10.0454 23.724
10.0606 23.378
10.0757 23.404
10.0909 23.683
10.1061 23.680
10.1213 23.626
10.1364 23.742
10.1516 23.547
10.1668 24.027
10.1820 24.030
10.1971 23.638
10.2123 23.809
10.2275 23.971
10.2427 23.686
10.2578 23.648
10.2730 23.811
10.2882 24.015
10.3034 23.793
10.3185 23.491
10.3337 23.246
10.3489 23.143
10.3641 23.064
10.3792 23.163
10.3944 23.172
10.4096 23.228
10.4248 23.570
10.4399 23.659
10.4551 23.497
10.4703 23.138
10.4855 23.125
10.5006 22.900
10.5158 22.653
10.5310 22.795
10.5462 23.034
10.5613 22.982
10.5765 22.845
10.5917 23.084
10.6069 23.134
10.6220 22.647
10.6372 22.341
10.6524 22.757
10.6676 22.847
10.6827 23.039
10.6979 22.528
10.7131 22.242
10.7283 22.505
10.7434 22.462
10.7586 22.642
10.7738 22.941
10.7890 22.758
10.8041 22.275
10.8193 22.185
10.8345 22.602
10.8497 22.508
10.8648 22.531
10.8800 22.793
10.8952 22.511
10.9104 22.501
10.9255 22.600
10.9407 22.192
10.9559 21.860
10.9711 22.157
10.9862 22.252
11.0014 21.902
11.0166 22.310
11.0318 22.363
11.0469 22.074
11.0621 22.352
11.0773 22.380
11.0925 22.242
11.1076 22.091
11.1228 21.715
11.1380 21.768
11.1532 22.015
11.1683 21.592
11.1835 21.816
11.1987 21.897
11.2139 21.695
11.2290 21.868
11.2442 21.582
11.2594 21.565
11.2746 21.872
11.2897 21.743
11.3049 21.713
11.3201 21.612
11.3353 21.675
11.3504 21.717
11.3656 21.660
11.3808 21.460
11.3960 21.405
11.4111 21.772
11.4263 21.596
11.4415 21.267
11.4567 21.453
11.4718 21.670
11.4870 21.378
11.5022 21.375
11.5174 21.584
11.5325 21.365
11.5477 21.154
11.5629 21.252
11.5781 21.169
11.5932 21.172
11.6084 21.056
11.6236 21.021
11.6388 20.918
11.6539 21.044
11.6691 20.831
11.6843 20.957
11.6995 20.648
11.7146 20.447
11.7298 20.160
11.7450 20.249
11.7602 20.496
11.7753 20.237
11.7905 20.330
11.8057 20.223
11.8209 20.230
11.8360 20.015
11.8512 19.904
11.8664 19.957
11.8816 20.064
11.8967 20.119
11.9119 20.231
11.9271 19.749
11.9423 19.358
11.9574 19.381
11.9726 19.288
11.9878 19.344
12.0030 19.315
12.0181 19.032
12.0333 19.174
12.0485 19.235
12.0637 19.098
12.0788 18.843
12.0940 18.666
12.1092 19.064
12.1244 18.914
12.1395 18.767
12.1547 18.608
12.1699 18.312
12.1851 18.551
12.2002 18.730
12.2154 18.621
12.2306 18.201
12.2458 18.031
12.2609 18.179
12.2761 18.155
12.2913 17.994
12.3065 17.725
12.3216 17.660
12.3368 17.681
12.3520 17.754
12.3672 17.538
12.3823 17.073
12.3975 17.248
12.4127 17.360
12.4279 17.331
12.4430 17.197
12.4582 16.885
12.4734 16.592
12.4886 16.932
12.5037 16.904
12.5189 16.368
12.5341 16.386
12.5493 16.602
12.5644 16.331
12.5796 16.274
12.5948 16.463
12.6100 16.373
12.6251 16.162
12.6403 16.093
12.6555 15.916
12.6707 15.771
12.6858 15.645
12.7010 15.592
12.7162 15.785
12.7314 15.678
12.7465 15.268
12.7617 15.223
12.7769 15.388
12.7921 15.392
12.8072 15.092
12.8224 15.264
12.8376 15.177
12.8528 14.947
12.8679 14.999
12.8831 14.909
12.8983 14.826
12.9135 14.522
12.9286 14.302
12.9438 14.317
12.9590 14.328
12.9742 14.345
12.9893 14.160
13.0045 14.140
13.0197 14.311
13.0349 14.110
13.0500 13.860
13.0652 13.877
13.0804 13.840
13.0956 13.896
13.1107 13.906
13.1259 13.711
13.1411 13.890
13.1563 13.792
13.1714 13.535
13.1866 13.643
13.2018 13.702
13.2170 13.516
13.2321 13.244
13.2473 13.406
13.2625 13.429
13.2777 13.104
13.2928 13.206
13.3080 13.268
13.3232 13.189
13.3384 13.180
13.3535 13.264
13.3687 13.548
13.3839 13.289
13.3991 13.173
13.4142 13.107
13.4294 12.956
13.4446 12.956
13.4598 12.772
13.4749 12.468
13.4901 12.547
13.5053 12.620
13.5205 12.641
13.5356 12.680
13.5508 12.553
13.5660 12.497
13.5812 12.388
13.5963 12.264
13.6115 12.433
13.6267 12.350
13.6419 12.148
13.6570 12.010
13.6722 12.048
13.6874 12.147
13.7026 11.868
13.7177 11.953
13.7329 11.930
13.7481 11.863
13.7633 11.831
13.7784 11.995
13.7936 12.081
13.8088 12.203
13.8239 12.369
13.8391 12.654
13.8543 12.646
13.8695 12.344
13.8846 12.062
13.8998 12.000
13.9150 12.204
13.9302 12.055
13.9453 12.258
13.9605 11.939
13.9757 11.640
13.9909 11.815
14.0060 11.490
14.0212 11.586
14.0364 11.602
14.0516 11.445
14.0667 10.994
14.0819 11.181
14.0971 11.373
14.1123 11.584
14.1274 11.399
14.1426 11.061
14.1578 11.060
14.1730 11.186
14.1881 11.156
14.2033 11.058
14.2185 11.249
14.2337 11.295
14.2488 11.139
14.2640 11.224
14.2792 11.429
14.2944 11.622
14.3095 11.630
14.3247 11.709
14.3399 11.832
14.3551 12.605
14.3702 12.577
14.3854 12.690
14.4006 13.322
14.4158 13.441
14.4309 14.166
14.4461 13.749
14.4613 14.092
14.4765 14.024
14.4916 14.260
14.5068 13.905
14.5220 14.013
14.5372 13.277
14.5523 12.906
14.5675 12.674
14.5827 12.564
14.5979 12.337
14.6130 11.873
14.6282 11.612
14.6434 11.273
14.6586 11.457
14.6737 11.370
14.6889 11.322
14.7041 11.077
14.7193 11.405
14.7344 11.075
14.7496 10.975
14.7648 11.141
14.7800 11.358
14.7951 11.508
14.8103 11.118
14.8255 11.231
14.8407 11.143
14.8558 11.574
14.8710 10.942
14.8862 11.202
14.9014 11.231
14.9165 11.237
14.9317 11.683
14.9469 11.054
14.9621 10.941
14.9772 10.531
14.9924 10.362
15.0076 10.490
15.0228 10.628
15.0379 10.480
15.0531 10.469
15.0683 10.510
15.0835 10.367
15.0986 10.648
15.1138 10.580
15.1290 10.471
15.1442 10.669
15.1593 10.561
15.1745 10.635
15.1897 10.915
15.2049 10.204
15.2200 10.575
15.2352 10.445
15.2504 10.535
15.2656 10.436
15.2807 10.353
15.2959 10.763
15.3111 10.284
15.3263 10.161
15.3414 10.169
15.3566 10.336
15.3718 10.573
15.3870 10.465
15.4021 10.318
15.4173 10.040
15.4325 10.396
15.4477 10.209
15.4628 10.306
15.4780 10.514
15.4932 10.292
15.5084 10.588
15.5235 10.574
15.5387 10.327
15.5539 10.637
15.5691 10.168
15.5842 10.458
15.5994 10.275
15.6146 10.170
15.6298 10.165
15.6449 10.286
15.6601 10.288
15.6753 10.099
15.6905 10.218
15.7056 10.166
15.7208 10.224
15.7360 10.253
15.7512 9.987
15.7663 10.053
15.7815 9.738
15.7967 9.939
15.8119 10.013
15.8270 10.089
15.8422 9.865
15.8574 9.723
15.8726 9.899
15.8877 9.561
15.9029 9.705
15.9181 9.641
15.9333 9.820
15.9484 9.918
15.9636 9.753
15.9788 10.044
15.9940 9.799
16.0091 9.765
16.0243 10.077
16.0395 10.001
16.0547 9.690
16.0698 9.716
16.0850 9.791
16.1002 9.690
16.1154 9.744
16.1305 9.557
16.1457 9.794
16.1609 9.799
16.1761 9.652
16.1912 9.798
16.2064 9.875
16.2216 9.751
16.2368 9.768
16.2519 9.980
16.2671 10.057
16.2823 10.268
16.2975 10.181
16.3126 10.018
16.3278 9.995
16.3430 9.998
16.3582 10.092
16.3733 10.265
16.3885 10.171
16.4037 10.086
16.4189 10.236
16.4340 10.158
16.4492 10.110
16.4644 10.005
16.4796 10.069
16.4947 9.827
16.5099 9.665
16.5251 9.736
16.5403 9.817
16.5554 9.892
16.5706 9.996
16.5858 9.934
16.6010 9.816
16.6161 9.977
16.6313 9.951
16.6465 9.982
16.6617 9.863
16.6768 10.077
16.6920 10.180
16.7072 10.088
16.7224 10.079
16.7375 10.068
16.7527 10.142
16.7679 10.081
16.7831 9.953
16.7982 10.265
16.8134 10.272
16.8286 10.043
16.8438 10.060
16.8589 9.775
16.8741 9.913
16.8893 9.836
16.9045 9.667
16.9196 9.742
16.9348 9.984
16.9500 10.001
16.9652 10.015
16.9803 10.124
16.9955 9.998
17.0107 9.876
17.0259 9.945
17.0410 10.025
17.0562 10.312
17.0714 10.370
17.0866 10.570
17.1017 10.842
17.1169 11.174
17.1321 11.424
17.1473 11.671
17.1624 12.085
17.1776 12.615
17.1928 13.427
17.2080 14.369
17.2231 15.417
17.2383 16.542
17.2535 17.882
17.2687 18.615
17.2838 18.673
17.2990 18.194
17.3142 17.282
17.3294 16.512
17.3445 16.201
17.3597 16.235
17.3749 15.726
17.3901 14.998
17.4052 13.960
17.4204 12.964
17.4356 12.518
17.4508 11.894
17.4659 11.419
17.4811 11.193
17.4963 11.245
17.5115 11.196
17.5266 10.869
17.5418 10.646
17.5570 10.495
17.5722 10.444
17.5873 10.484
17.6025 10.582
17.6177 10.453
17.6329 10.464
17.6480 10.550
17.6632 10.562
17.6784 10.627
17.6936 10.830
17.7087 11.076
17.7239 11.389
17.7391 11.505
17.7543 11.318
17.7694 11.593
17.7846 11.961
17.7998 12.070
17.8150 12.555
17.8301 12.816
17.8453 12.356
17.8605 12.500
17.8757 12.687
17.8908 12.461
17.9060 12.286
17.9212 12.118
17.9364 11.804
17.9515 11.613
17.9667 11.625
17.9819 11.229
17.9971 10.891
18.0122 10.855
18.0274 10.862
18.0426 10.553
18.0578 10.397
18.0729 10.350
18.0881 10.310
18.1033 10.325
18.1185 10.407
18.1336 10.221
18.1488 9.924
18.1640 10.064
18.1792 10.061
18.1943 9.920
18.2095 10.005
18.2247 10.019
18.2399 10.148
18.2550 10.166
18.2702 10.031
18.2854 9.991
18.3006 9.988
18.3157 9.770
18.3309 9.896
18.3461 10.174
18.3613 10.024
18.3764 9.860
18.3916 9.888
18.4068 10.020
18.4220 10.016
18.4371 9.963
18.4523 10.106
18.4675 10.116
18.4827 9.917
18.4978 9.841
18.5130 9.926
18.5282 9.843
18.5434 9.849
18.5585 9.980
18.5737 9.945
18.5889 9.854
18.6041 9.888
18.6192 9.928
18.6344 9.959
18.6496 9.782
18.6648 9.581
18.6799 9.763
18.6951 9.933
18.7103 10.012
18.7255 10.027
18.7406 9.919
18.7558 9.945
18.7710 9.941
18.7862 9.907
18.8013 9.831
18.8165 9.937
18.8317 10.073
18.8469 10.022
18.8620 10.184
18.8772 10.406
18.8924 10.288
18.9076 9.832
18.9227 9.751
18.9379 9.891
18.9531 10.062
18.9683 9.974
18.9834 10.126
18.9986 10.328
19.0138 10.295
19.0290 10.200
19.0441 10.144
19.0593 10.249
19.0745 10.473
19.0897 10.553
19.1048 10.251
19.1200 10.469
19.1352 10.494
19.1504 10.418
19.1655 10.538
19.1807 10.550
19.1959 10.778
19.2111 10.821
19.2262 10.860
19.2414 10.934
19.2566 10.848
19.2718 10.729
19.2869 11.022
19.3021 10.967
19.3173 10.806
19.3325 11.041
19.3476 11.306
19.3628 11.125
19.3780 10.973
19.3932 11.188
19.4083 11.417
19.4235 11.284
19.4387 11.155
19.4539 11.188
19.4690 11.429
19.4842 11.452
19.4994 11.484
19.5146 11.424
19.5297 11.324
19.5449 11.402
19.5601 11.556
19.5753 11.694
19.5904 11.611
19.6056 11.579
19.6208 11.641
19.6360 11.670
19.6511 11.713
19.6663 11.751
19.6815 11.937
19.6967 11.945
19.7118 11.830
19.7270 11.739
19.7422 11.943
19.7574 11.984
19.7725 11.736
19.7877 11.713
19.8029 11.841
19.8180 11.892
19.8332 11.988
19.8484 12.013
19.8636 12.317
19.8787 12.637
19.8939 13.007
19.9091 13.447
19.9243 13.518
19.9394 13.852
19.9546 14.330
19.9698 14.447
19.9850 14.449
20.0001 14.550
20.0153 14.390
20.0305 13.912
20.0457 13.771
20.0608 13.930
20.0760 13.785
20.0912 13.535
20.1064 13.691
20.1215 13.754
20.1367 13.203
20.1519 13.035
20.1671 12.968
20.1822 12.569
20.1974 12.653
20.2126 12.615
20.2278 12.648
20.2429 12.534
20.2581 12.257
20.2733 11.889
20.2885 11.551
20.3036 11.533
20.3188 11.567
20.3340 11.723
20.3492 11.759
20.3643 11.579
20.3795 11.532
20.3947 11.525
20.4099 11.437
20.4250 11.316
20.4402 11.403
20.4554 11.116
20.4706 11.282
20.4857 11.271
20.5009 11.479
20.5161 11.341
20.5313 11.312
20.5464 11.306
20.5616 11.375
20.5768 11.147
20.5920 11.265
20.6071 11.289
20.6223 11.214
20.6375 11.286
20.6527 11.140
20.6678 11.009
20.6830 10.792
20.6982 10.820
20.7134 10.930
20.7285 10.901
20.7437 10.617
20.7589 10.639
20.7741 10.585
20.7892 10.515
20.8044 10.793
20.8196 10.504
20.8348 10.349
20.8499 10.621
20.8651 10.540
20.8803 10.603
20.8955 10.308
20.9106 10.671
20.9258 10.865
20.9410 10.701
20.9562 10.829
20.9713 10.532
20.9865 10.932
21.0017 10.590
21.0169 10.537
21.0320 10.556
21.0472 10.525
21.0624 10.525
21.0776 10.173
21.0927 10.037
21.1079 10.222
21.1231 10.596
21.1383 10.103
21.1534 10.228
21.1686 9.954
21.1838 9.963
21.1990 9.885
21.2141 9.900
21.2293 10.364
21.2445 9.619
21.2597 9.891
21.2748 9.775
21.2900 9.694
21.3052 9.773
21.3204 9.458
21.3355 9.315
21.3507 9.207
21.3659 9.499
21.3811 9.415
21.3962 9.128
21.4114 9.183
21.4266 9.292
21.4418 9.181
21.4569 9.425
21.4721 9.434
21.4873 9.389
21.5025 9.273
21.5176 9.419
21.5328 9.676
21.5480 9.587
21.5632 9.303
21.5783 9.241
21.5935 9.377
21.6087 9.281
21.6239 9.339
21.6390 9.305
21.6542 9.398
21.6694 9.213
21.6846 9.201
21.6997 9.453
21.7149 9.012
21.7301 9.196
21.7453 9.116
21.7604 9.169
21.7756 9.074
21.7908 8.991
21.8060 9.082
21.8211 9.158
21.8363 9.288
21.8515 9.123
21.8667 9.275
21.8818 9.156
21.8970 9.156
21.9122 9.016
21.9274 8.934
21.9425 8.884
21.9577 9.005
21.9729 9.126
21.9881 9.056
22.0032 9.034
22.0184 8.875
22.0336 8.791
22.0488 8.849
22.0639 8.537
22.0791 8.610
22.0943 8.984
22.1095 8.710
22.1246 8.587
22.1398 8.786
22.1550 8.724
22.1702 8.622
22.1853 8.667
22.2005 8.592
22.2157 8.675
22.2309 8.660
22.2460 8.573
22.2612 8.725
22.2764 8.432
22.2916 8.353
22.3067 8.163
22.3219 8.507
22.3371 8.505
22.3523 8.387
22.3674 8.459
22.3826 8.516
22.3978 8.645
22.4130 8.476
22.4281 8.411
22.4433 8.476
22.4585 8.263
22.4737 8.469
22.4888 8.568
22.5040 8.347
22.5192 8.441
22.5344 8.332
22.5495 8.488
22.5647 8.810
22.5799 8.381
22.5951 8.722
22.6102 8.495
22.6254 8.496
22.6406 8.484
22.6558 8.559
22.6709 8.375
22.6861 8.127
22.7013 8.251
22.7165 7.899
22.7316 6.613
