'Id: "" Comment: "" Operator: "Lab Manager" Anode: "Mo" Scantype: "Still (Eiger2R_500K (1D mode))" TimePerStep: "300" X: "11.8" Y: "9.4" Z: "11.284" 
7.2532 18.744
7.2684 18.925
7.2836 19.286
7.2987 18.323
7.3139 19.387
7.3291 19.182
7.3443 19.377
7.3594 19.181
7.3746 19.318
7.3898 19.537
7.4050 19.185
7.4201 19.213
7.4353 19.083
7.4505 19.704
7.4657 19.743
7.4808 19.722
7.4960 19.894
7.5112 19.853
7.5264 20.111
7.5415 19.927
7.5567 19.799
7.5719 19.771
7.5871 19.701
7.6022 20.175
7.6174 20.175
7.6326 19.768
7.6478 20.184
7.6629 20.407
7.6781 20.087
7.6933 20.250
7.7085 20.593
7.7236 20.569
7.7388 20.326
7.7540 20.415
7.7692 20.614
7.7843 20.622
7.7995 20.448
7.8147 20.512
7.8299 20.459
7.8450 20.606
7.8602 20.813
7.8754 21.051
7.8905 21.014
7.9057 20.765
7.9209 21.234
7.9361 21.539
7.9512 21.132
7.9664 20.729
7.9816 20.927
7.9968 21.455
8.0119 21.152
8.0271 21.277
8.0423 21.603
8.0575 21.237
8.0726 21.317
8.0878 21.363
8.1030 21.300
8.1182 21.206
8.1333 21.270
8.1485 21.754
8.1637 21.814
8.1789 21.637
8.1940 21.395
8.2092 21.958
8.2244 21.548
8.2396 21.593
8.2547 21.892
8.2699 21.615
8.2851 21.676
8.3003 21.660
8.3154 21.628
8.3306 21.647
8.3458 21.720
8.3610 21.927
8.3761 21.817
8.3913 21.915
8.4065 22.078
8.4217 21.658
8.4368 21.593
8.4520 21.727
8.4672 22.015
8.4824 22.352
8.4975 22.095
8.5127 22.411
8.5279 22.385
8.5431 22.369
8.5582 22.143
8.5734 21.907
8.5886 22.296
8.6038 22.374
8.6189 22.719
8.6341 22.349
8.6493 22.375
8.6645 22.083
8.6796 22.492
8.6948 22.666
8.7100 21.958
8.7252 22.135
8.7403 22.175
8.7555 22.478
8.7707 22.982
8.7859 22.542
8.8010 22.397
8.8162 22.230
8.8314 22.380
8.8466 22.573
8.8617 22.483
8.8769 22.381
8.8921 22.556
8.9073 22.487
8.9224 23.158
8.9376 22.449
8.9528 22.693
8.9680 22.871
8.9831 23.038
8.9983 22.622
9.0135 22.545
9.0287 22.408
9.0438 22.503
9.0590 22.594
9.0742 22.948
9.0894 22.881
9.1045 22.827
9.1197 22.683
9.1349 22.745
9.1501 22.912
9.1652 22.979
9.1804 23.200
9.1956 22.587
9.2108 22.808
9.2259 23.108
9.2411 22.865
9.2563 22.928
9.2715 22.695
9.2866 22.914
9.3018 23.481
9.3170 23.490
9.3322 23.026
9.3473 22.767
9.3625 22.827
9.3777 23.249
9.3929 23.084
9.4080 23.257
9.4232 23.235
9.4384 22.847
9.4536 23.200
9.4687 23.075
9.4839 22.677
9.4991 22.907
9.5143 23.291
9.5294 23.307
9.5446 23.003
9.5598 22.996
9.5750 23.064
9.5901 23.222
9.6053 23.336
9.6205 23.302
9.6357 23.425
9.6508 23.389
9.6660 23.495
9.6812 23.980
9.6964 24.027
9.7115 24.399
9.7267 24.588
9.7419 24.614
9.7571 24.556
9.7722 24.001
9.7874 24.014
9.8026 24.072
9.8178 23.742
9.8329 23.760
9.8481 23.730
9.8633 23.697
9.8785 24.104
9.8936 24.228
9.9088 23.951
9.9240 23.954
9.9392 23.903
9.9543 23.708
9.9695 23.719
9.9847 23.842
9.9999 23.734
10.0150 23.571
10.0302 23.416
10.0454 23.224
10.0606 23.045
10.0757 23.192
10.0909 23.231
10.1061 23.157
10.1213 22.955
10.1364 23.230
10.1516 23.332
10.1668 23.260
10.1820 23.159
10.1971 22.863
10.2123 23.126
10.2275 23.478
10.2427 23.245
10.2578 22.993
10.2730 22.973
10.2882 23.168
10.3034 23.096
10.3185 22.655
10.3337 22.849
10.3489 23.176
10.3641 23.226
10.3792 23.375
10.3944 23.250
10.4096 23.138
10.4248 22.804
10.4399 22.590
10.4551 22.994
10.4703 22.859
10.4855 22.581
10.5006 22.912
10.5158 23.175
10.5310 22.982
10.5462 22.958
10.5613 22.551
10.5765 22.532
10.5917 22.528
10.6069 22.717
10.6220 22.592
10.6372 22.876
10.6524 22.688
10.6676 22.581
10.6827 22.949
10.6979 22.486
10.7131 22.170
10.7283 22.251
10.7434 22.476
10.7586 22.518
10.7738 22.319
10.7890 22.331
10.8041 22.538
10.8193 22.416
10.8345 22.044
10.8497 22.141
10.8648 21.941
10.8800 22.005
10.8952 22.007
10.9104 22.004
10.9255 22.143
10.9407 21.908
10.9559 21.966
10.9711 22.162
10.9862 22.187
11.0014 22.067
11.0166 21.966
11.0318 21.941
11.0469 21.383
11.0621 21.655
11.0773 21.941
11.0925 21.901
11.1076 22.041
11.1228 21.917
11.1380 21.802
11.1532 21.874
11.1683 21.650
11.1835 21.425
11.1987 21.283
11.2139 21.650
11.2290 21.575
11.2442 21.547
11.2594 21.590
11.2746 21.688
11.2897 21.741
11.3049 21.481
11.3201 21.427
11.3353 21.371
11.3504 21.526
11.3656 21.472
11.3808 21.279
11.3960 21.329
11.4111 21.325
11.4263 20.967
11.4415 21.116
11.4567 21.414
11.4718 21.378
11.4870 21.337
11.5022 21.267
11.5174 21.456
11.5325 21.208
11.5477 21.363
11.5629 21.165
11.5781 21.325
11.5932 21.290
11.6084 20.986
11.6236 20.864
11.6388 21.129
11.6539 21.101
11.6691 20.684
11.6843 20.469
11.6995 20.457
11.7146 20.485
11.7298 20.557
11.7450 20.627
11.7602 20.057
11.7753 20.179
11.7905 20.058
11.8057 19.927
11.8209 19.835
11.8360 20.261
11.8512 19.777
11.8664 19.931
11.8816 19.900
11.8967 19.511
11.9119 19.343
11.9271 19.428
11.9423 19.634
11.9574 19.820
11.9726 19.566
11.9878 19.385
12.0030 19.516
12.0181 19.569
12.0333 19.240
12.0485 18.937
12.0637 18.828
12.0788 18.892
12.0940 18.910
12.1092 18.739
12.1244 18.589
12.1395 18.468
12.1547 18.459
12.1699 18.454
12.1851 18.251
12.2002 18.521
12.2154 18.410
12.2306 18.079
12.2458 18.150
12.2609 18.211
12.2761 17.981
12.2913 17.942
12.3065 18.171
12.3216 18.091
12.3368 17.723
12.3520 17.313
12.3672 17.210
12.3823 17.105
12.3975 17.351
12.4127 17.467
12.4279 17.393
12.4430 17.150
12.4582 16.992
12.4734 16.804
12.4886 16.433
12.5037 16.633
12.5189 16.684
12.5341 16.555
12.5493 16.509
12.5644 16.637
12.5796 16.254
12.5948 15.961
12.6100 15.843
12.6251 15.933
12.6403 16.024
12.6555 15.921
12.6707 15.708
12.6858 15.771
12.7010 15.872
12.7162 15.681
12.7314 15.582
12.7465 15.498
12.7617 15.538
12.7769 15.494
12.7921 15.285
12.8072 15.083
12.8224 14.984
12.8376 14.848
12.8528 15.012
12.8679 15.192
12.8831 14.898
12.8983 14.884
12.9135 14.897
12.9286 14.834
12.9438 14.665
12.9590 14.645
12.9742 14.329
12.9893 14.114
13.0045 14.410
13.0197 14.351
13.0349 14.136
13.0500 14.051
13.0652 14.088
13.0804 13.962
13.0956 13.953
13.1107 13.739
13.1259 13.501
13.1411 13.744
13.1563 13.936
13.1714 14.019
13.1866 13.953
13.2018 13.749
13.2170 13.704
13.2321 13.551
13.2473 13.413
13.2625 13.495
13.2777 13.321
13.2928 13.308
13.3080 13.488
13.3232 13.288
13.3384 12.890
13.3535 12.918
13.3687 13.189
13.3839 13.213
13.3991 13.072
13.4142 12.929
13.4294 12.831
13.4446 12.929
13.4598 12.807
13.4749 12.598
13.4901 12.617
13.5053 12.839
13.5205 12.701
13.5356 12.381
13.5508 12.344
13.5660 12.541
13.5812 12.714
13.5963 12.511
13.6115 12.419
13.6267 12.208
13.6419 12.397
13.6570 12.172
13.6722 12.063
13.6874 12.115
13.7026 12.144
13.7177 12.347
13.7329 12.324
13.7481 12.119
13.7633 12.159
13.7784 12.143
13.7936 12.098
13.8088 12.315
13.8239 12.352
13.8391 12.229
13.8543 12.326
13.8695 12.275
13.8846 12.193
13.8998 12.393
13.9150 12.163
13.9302 11.957
13.9453 11.901
13.9605 11.918
13.9757 11.698
13.9909 11.607
14.0060 11.423
14.0212 11.555
14.0364 11.687
14.0516 11.598
14.0667 11.864
14.0819 11.581
14.0971 11.324
14.1123 11.481
14.1274 11.552
14.1426 11.662
14.1578 11.538
14.1730 11.342
14.1881 11.542
14.2033 11.552
14.2185 11.526
14.2337 11.494
14.2488 11.275
14.2640 11.631
14.2792 11.398
14.2944 11.618
14.3095 11.745
14.3247 11.699
14.3399 11.977
14.3551 12.027
14.3702 12.102
14.3854 12.432
14.4006 12.377
14.4158 12.805
14.4309 12.668
14.4461 12.754
14.4613 12.695
14.4765 12.336
14.4916 12.035
14.5068 12.180
14.5220 12.036
14.5372 12.009
14.5523 11.745
14.5675 11.689
14.5827 11.489
14.5979 11.123
14.6130 11.196
14.6282 11.267
14.6434 11.332
14.6586 10.820
14.6737 11.272
14.6889 10.760
14.7041 10.983
14.7193 11.139
14.7344 11.045
14.7496 11.094
14.7648 10.780
14.7800 10.993
14.7951 10.981
14.8103 10.839
14.8255 11.066
14.8407 11.021
14.8558 10.952
14.8710 10.894
14.8862 10.671
14.9014 10.854
14.9165 11.053
14.9317 11.125
14.9469 10.798
14.9621 10.914
14.9772 10.339
14.9924 10.497
15.0076 10.427
15.0228 10.877
15.0379 10.349
15.0531 10.495
15.0683 10.251
15.0835 10.745
15.0986 10.349
15.1138 10.365
15.1290 10.644
15.1442 10.522
15.1593 10.262
15.1745 10.392
15.1897 10.038
15.2049 10.476
15.2200 10.681
15.2352 10.139
15.2504 10.099
15.2656 10.418
15.2807 10.340
15.2959 10.020
15.3111 10.385
15.3263 10.448
15.3414 10.658
15.3566 10.444
15.3718 10.407
15.3870 10.395
15.4021 10.459
15.4173 10.458
15.4325 10.562
15.4477 10.570
15.4628 10.327
15.4780 10.193
15.4932 10.416
15.5084 10.100
15.5235 10.550
15.5387 10.496
15.5539 10.355
15.5691 10.152
15.5842 10.037
15.5994 10.298
15.6146 10.267
15.6298 9.877
15.6449 10.063
15.6601 10.232
15.6753 10.193
15.6905 10.079
15.7056 9.748
15.7208 10.000
15.7360 9.913
15.7512 10.104
15.7663 9.959
15.7815 9.736
15.7967 9.965
15.8119 10.102
15.8270 10.200
15.8422 9.713
15.8574 9.774
15.8726 9.889
15.8877 9.940
15.9029 9.937
15.9181 9.791
15.9333 9.754
15.9484 9.920
15.9636 9.828
15.9788 9.704
15.9940 9.853
16.0091 9.989
16.0243 9.790
16.0395 9.694
16.0547 9.831
16.0698 9.757
16.0850 9.859
16.1002 9.676
16.1154 9.588
16.1305 9.872
16.1457 9.747
16.1609 9.971
16.1761 9.753
16.1912 9.683
16.2064 9.717
16.2216 9.799
16.2368 9.737
16.2519 9.781
16.2671 9.857
16.2823 9.815
16.2975 9.914
16.3126 9.824
16.3278 9.790
16.3430 9.861
16.3582 9.906
16.3733 10.181
16.3885 10.064
16.4037 10.106
16.4189 10.033
16.4340 10.019
16.4492 10.060
16.4644 10.103
16.4796 10.179
16.4947 9.871
16.5099 9.813
16.5251 9.959
16.5403 10.083
16.5554 9.956
16.5706 9.956
16.5858 9.683
16.6010 9.784
16.6161 10.000
16.6313 10.135
16.6465 9.938
16.6617 9.827
16.6768 9.984
16.6920 9.989
16.7072 10.005
16.7224 10.375
16.7375 10.341
16.7527 9.822
16.7679 9.844
16.7831 10.223
16.7982 10.206
16.8134 10.166
16.8286 10.090
16.8438 9.856
16.8589 9.723
16.8741 9.771
16.8893 9.764
16.9045 9.871
16.9196 9.892
16.9348 9.697
16.9500 9.979
16.9652 10.040
16.9803 9.962
16.9955 10.120
17.0107 10.074
17.0259 10.029
17.0410 10.167
17.0562 10.179
17.0714 10.269
17.0866 10.433
17.1017 10.619
17.1169 10.932
17.1321 11.227
17.1473 11.396
17.1624 11.687
17.1776 12.356
17.1928 13.202
17.2080 14.183
17.2231 15.322
17.2383 16.520
17.2535 17.788
17.2687 18.745
17.2838 18.563
17.2990 17.651
17.3142 16.874
17.3294 16.412
17.3445 16.143
17.3597 16.039
17.3749 16.042
17.3901 15.372
17.4052 14.255
17.4204 13.255
17.4356 12.424
17.4508 11.773
17.4659 11.410
17.4811 11.354
17.4963 11.236
17.5115 10.879
17.5266 10.358
17.5418 10.350
17.5570 10.514
17.5722 10.457
17.5873 10.487
17.6025 10.460
17.6177 10.369
17.6329 10.201
17.6480 10.299
17.6632 10.441
17.6784 10.175
17.6936 10.285
17.7087 10.537
17.7239 10.404
17.7391 10.484
17.7543 10.582
17.7694 10.770
17.7846 10.876
17.7998 10.706
17.8150 10.700
17.8301 10.887
17.8453 10.941
17.8605 10.859
17.8757 10.955
17.8908 10.960
17.9060 11.063
17.9212 10.941
17.9364 10.775
17.9515 10.650
17.9667 10.511
17.9819 10.720
17.9971 10.887
18.0122 10.466
18.0274 10.136
18.0426 10.208
18.0578 10.028
18.0729 9.813
18.0881 9.916
18.1033 9.973
18.1185 9.986
18.1336 10.098
18.1488 10.125
18.1640 9.944
18.1792 9.874
18.1943 10.086
18.2095 10.248
18.2247 10.112
18.2399 9.937
18.2550 9.918
18.2702 9.753
18.2854 9.870
18.3006 10.046
18.3157 9.866
18.3309 10.071
18.3461 10.026
18.3613 9.971
18.3764 10.124
18.3916 9.840
18.4068 9.696
18.4220 9.847
18.4371 9.762
18.4523 9.722
18.4675 9.796
18.4827 10.041
18.4978 9.933
18.5130 9.961
18.5282 9.797
18.5434 9.427
18.5585 9.604
18.5737 9.736
18.5889 9.818
18.6041 9.769
18.6192 9.698
18.6344 9.704
18.6496 9.891
18.6648 9.868
18.6799 9.831
18.6951 9.881
18.7103 9.608
18.7255 9.702
18.7406 9.823
18.7558 9.847
18.7710 9.880
18.7862 10.018
18.8013 9.897
18.8165 9.767
18.8317 9.999
18.8469 10.046
18.8620 9.786
18.8772 9.935
18.8924 10.199
18.9076 10.090
18.9227 9.893
18.9379 10.023
18.9531 10.079
18.9683 10.096
18.9834 10.069
18.9986 10.196
19.0138 10.067
19.0290 10.106
19.0441 10.272
19.0593 10.237
19.0745 10.341
19.0897 10.392
19.1048 10.364
19.1200 10.403
19.1352 10.634
19.1504 10.431
19.1655 10.274
19.1807 10.540
19.1959 10.798
19.2111 10.887
19.2262 10.835
19.2414 11.000
19.2566 10.825
19.2718 10.774
19.2869 10.968
19.3021 11.126
19.3173 11.055
19.3325 10.865
19.3476 10.942
19.3628 11.290
19.3780 11.396
19.3932 11.171
19.4083 11.216
19.4235 11.179
19.4387 11.028
19.4539 11.313
19.4690 11.464
19.4842 11.441
19.4994 11.470
19.5146 11.404
19.5297 11.539
19.5449 11.697
19.5601 11.655
19.5753 11.562
19.5904 11.635
19.6056 11.829
19.6208 11.787
19.6360 11.498
19.6511 11.555
19.6663 11.573
19.6815 11.722
19.6967 11.895
19.7118 11.800
19.7270 11.855
19.7422 11.874
19.7574 11.686
19.7725 11.763
19.7877 11.919
19.8029 11.782
19.8180 11.895
19.8332 12.147
19.8484 12.315
19.8636 12.486
19.8787 12.415
19.8939 12.675
19.9091 13.028
19.9243 13.396
19.9394 13.905
19.9546 14.226
19.9698 14.467
19.9850 14.648
20.0001 14.609
20.0153 14.312
20.0305 14.087
20.0457 13.969
20.0608 13.721
20.0760 13.675
20.0912 13.813
20.1064 13.468
20.1215 12.982
20.1367 12.966
20.1519 12.905
20.1671 12.939
20.1822 12.775
20.1974 12.812
20.2126 12.778
20.2278 12.586
20.2429 12.130
20.2581 12.014
20.2733 11.887
20.2885 11.870
20.3036 11.741
20.3188 11.403
20.3340 11.502
20.3492 11.488
20.3643 11.538
20.3795 11.376
20.3947 11.344
20.4099 11.054
20.4250 11.045
20.4402 10.958
20.4554 10.563
20.4706 10.655
20.4857 10.810
20.5009 10.706
20.5161 10.681
20.5313 10.663
20.5464 10.669
20.5616 10.676
20.5768 10.532
20.5920 10.615
20.6071 10.653
20.6223 10.632
20.6375 10.616
20.6527 10.714
20.6678 10.518
20.6830 10.542
20.6982 10.636
20.7134 10.294
20.7285 10.179
20.7437 10.680
20.7589 10.539
20.7741 10.477
20.7892 10.510
20.8044 10.408
20.8196 10.411
20.8348 10.506
20.8499 10.179
20.8651 10.133
20.8803 10.294
20.8955 10.441
20.9106 10.290
20.9258 10.020
20.9410 10.580
20.9562 10.443
20.9713 10.411
20.9865 10.553
21.0017 10.197
21.0169 10.283
21.0320 10.462
21.0472 10.208
21.0624 10.177
21.0776 10.408
21.0927 10.234
21.1079 10.019
21.1231 10.176
21.1383 9.940
21.1534 9.970
21.1686 10.126
21.1838 9.842
21.1990 9.887
21.2141 10.040
21.2293 9.609
21.2445 9.861
21.2597 9.732
21.2748 9.561
21.2900 9.663
21.3052 9.398
21.3204 9.887
21.3355 9.411
21.3507 9.381
21.3659 9.499
21.3811 9.887
21.3962 9.866
21.4114 9.666
21.4266 9.529
21.4418 9.563
21.4569 9.435
21.4721 9.425
21.4873 9.496
21.5025 9.131
21.5176 9.151
21.5328 9.213
21.5480 9.323
21.5632 9.240
21.5783 9.277
21.5935 9.160
21.6087 9.259
21.6239 9.018
21.6390 9.115
21.6542 9.231
21.6694 9.225
21.6846 9.005
21.6997 9.089
21.7149 9.166
21.7301 9.115
21.7453 9.155
21.7604 8.940
21.7756 9.011
21.7908 9.028
21.8060 9.049
21.8211 8.913
21.8363 8.962
21.8515 9.145
21.8667 9.040
21.8818 9.168
21.8970 9.032
21.9122 8.938
21.9274 9.026
21.9425 9.025
21.9577 8.771
21.9729 8.872
21.9881 9.075
22.0032 8.939
22.0184 8.859
22.0336 8.744
22.0488 8.636
22.0639 8.637
22.0791 8.714
22.0943 8.584
22.1095 8.604
22.1246 8.878
22.1398 8.862
22.1550 8.528
22.1702 8.467
22.1853 8.598
22.2005 8.683
22.2157 8.571
22.2309 8.653
22.2460 8.730
22.2612 8.621
22.2764 8.831
22.2916 8.772
22.3067 8.464
22.3219 8.500
22.3371 8.793
22.3523 8.446
22.3674 8.581
22.3826 8.372
22.3978 8.387
22.4130 8.658
22.4281 8.344
22.4433 8.437
22.4585 8.488
22.4737 8.532
22.4888 8.423
22.5040 8.353
22.5192 8.568
22.5344 8.388
22.5495 8.699
22.5647 8.619
22.5799 8.697
22.5951 8.688
22.6102 8.742
22.6254 8.624
22.6406 8.375
22.6558 8.435
22.6709 8.215
22.6861 8.286
22.7013 8.196
22.7165 7.863
22.7316 6.396
