'Id: "" Comment: "" Operator: "Lab Manager" Anode: "Mo" Scantype: "Still (Eiger2R_500K (1D mode))" TimePerStep: "300" X: "11.8" Y: "9.4" Z: "11.284" 
7.2532 18.953
7.2684 18.571
7.2836 18.568
7.2987 18.747
7.3139 19.074
7.3291 18.923
7.3443 18.775
7.3594 19.182
7.3746 19.082
7.3898 19.012
7.4050 18.884
7.4201 18.590
7.4353 19.239
7.4505 19.637
7.4657 19.668
7.4808 19.485
7.4960 19.213
7.5112 19.786
7.5264 19.725
7.5415 19.685
7.5567 19.632
7.5719 19.692
7.5871 19.871
7.6022 19.750
7.6174 19.586
7.6326 19.710
7.6478 19.985
7.6629 20.155
7.6781 20.126
7.6933 19.900
7.7085 20.009
7.7236 20.341
7.7388 20.491
7.7540 20.314
7.7692 20.462
7.7843 20.550
7.7995 20.322
7.8147 20.087
7.8299 20.032
7.8450 20.441
7.8602 20.604
7.8754 21.006
7.8905 20.984
7.9057 20.799
7.9209 20.605
7.9361 20.725
7.9512 20.848
7.9664 20.635
7.9816 20.724
7.9968 20.598
8.0119 20.480
8.0271 20.676
8.0423 21.081
8.0575 21.194
8.0726 21.140
8.0878 21.204
8.1030 20.957
8.1182 20.917
8.1333 21.148
8.1485 21.294
8.1637 21.070
8.1789 21.348
8.1940 21.147
8.2092 21.313
8.2244 21.204
8.2396 21.297
8.2547 21.254
8.2699 21.487
8.2851 21.433
8.3003 21.425
8.3154 21.571
8.3306 21.570
8.3458 21.687
8.3610 21.529
8.3761 21.851
8.3913 21.629
8.4065 21.667
8.4217 21.993
8.4368 21.381
8.4520 21.903
8.4672 21.765
8.4824 21.574
8.4975 21.999
8.5127 22.005
8.5279 21.838
8.5431 21.948
8.5582 21.925
8.5734 22.245
8.5886 22.627
8.6038 22.077
8.6189 22.342
8.6341 22.025
8.6493 22.636
8.6645 22.349
8.6796 21.655
8.6948 22.644
8.7100 22.119
8.7252 21.960
8.7403 22.000
8.7555 22.256
8.7707 22.474
8.7859 22.321
8.8010 22.701
8.8162 22.445
8.8314 22.452
8.8466 23.096
8.8617 22.629
8.8769 22.695
8.8921 22.356
8.9073 22.820
8.9224 22.313
8.9376 22.493
8.9528 22.440
8.9680 22.715
8.9831 22.600
8.9983 22.288
9.0135 22.663
9.0287 22.553
9.0438 22.661
9.0590 22.736
9.0742 22.953
9.0894 22.568
9.1045 22.663
9.1197 22.684
9.1349 22.926
9.1501 22.800
9.1652 22.675
9.1804 23.041
9.1956 22.955
9.2108 22.789
9.2259 22.917
9.2411 22.899
9.2563 22.762
9.2715 23.007
9.2866 22.739
9.3018 22.827
9.3170 23.031
9.3322 23.015
9.3473 23.245
9.3625 22.980
9.3777 22.823
9.3929 22.735
9.4080 22.832
9.4232 23.116
9.4384 23.232
9.4536 22.946
9.4687 22.685
9.4839 22.878
9.4991 23.060
9.5143 23.088
9.5294 23.162
9.5446 22.896
9.5598 22.806
9.5750 23.216
9.5901 23.366
9.6053 23.306
9.6205 23.308
9.6357 23.399
9.6508 23.100
9.6660 23.104
9.6812 23.314
9.6964 23.483
9.7115 23.799
9.7267 23.960
9.7419 23.911
9.7571 23.904
9.7722 24.118
9.7874 23.576
9.8026 23.022
9.8178 23.050
9.8329 23.147
9.8481 23.197
9.8633 23.068
9.8785 22.978
9.8936 23.333
9.9088 23.671
9.9240 23.413
9.9392 23.156
9.9543 23.372
9.9695 23.178
9.9847 22.983
9.9999 23.183
10.0150 23.293
10.0302 23.045
10.0454 23.083
10.0606 22.984
10.0757 23.161
10.0909 23.464
10.1061 23.300
10.1213 23.244
10.1364 23.430
10.1516 23.519
10.1668 23.680
10.1820 23.498
10.1971 23.074
10.2123 23.172
10.2275 23.407
10.2427 23.154
10.2578 22.859
10.2730 22.614
10.2882 22.493
10.3034 22.712
10.3185 22.809
10.3337 22.543
10.3489 22.427
10.3641 22.347
10.3792 22.636
10.3944 23.007
10.4096 22.697
10.4248 22.503
10.4399 22.486
10.4551 22.237
10.4703 22.326
10.4855 22.397
10.5006 22.779
10.5158 22.930
10.5310 22.948
10.5462 22.800
10.5613 22.883
10.5765 22.281
10.5917 21.786
10.6069 22.179
10.6220 22.719
10.6372 22.403
10.6524 22.125
10.6676 22.230
10.6827 22.571
10.6979 22.380
10.7131 22.339
10.7283 22.372
10.7434 22.356
10.7586 22.184
10.7738 22.115
10.7890 22.356
10.8041 22.494
10.8193 22.486
10.8345 21.920
10.8497 22.018
10.8648 22.435
10.8800 22.183
10.8952 21.962
10.9104 22.251
10.9255 21.963
10.9407 21.730
10.9559 21.634
10.9711 21.883
10.9862 22.122
11.0014 22.155
11.0166 22.108
11.0318 22.231
11.0469 22.102
11.0621 21.961
11.0773 21.828
11.0925 22.006
11.1076 21.960
11.1228 21.986
11.1380 21.981
11.1532 21.848
11.1683 21.675
11.1835 21.542
11.1987 21.735
11.2139 21.546
11.2290 21.337
11.2442 21.503
11.2594 21.702
11.2746 21.592
11.2897 21.521
11.3049 21.710
11.3201 21.306
11.3353 21.300
11.3504 21.426
11.3656 21.224
11.3808 21.253
11.3960 21.152
11.4111 21.273
11.4263 20.891
11.4415 21.082
11.4567 21.238
11.4718 21.483
11.4870 20.928
11.5022 21.123
11.5174 21.038
11.5325 21.156
11.5477 21.206
11.5629 21.301
11.5781 21.273
11.5932 20.887
11.6084 20.223
11.6236 20.213
11.6388 20.581
11.6539 20.500
11.6691 20.476
11.6843 20.572
11.6995 20.490
11.7146 20.274
11.7298 20.143
11.7450 20.123
11.7602 19.985
11.7753 20.298
11.7905 20.331
11.8057 20.308
11.8209 19.962
11.8360 19.899
11.8512 20.131
11.8664 19.829
11.8816 20.079
11.8967 19.756
11.9119 19.508
11.9271 19.372
11.9423 19.057
11.9574 19.238
11.9726 19.343
11.9878 19.247
12.0030 19.264
12.0181 18.948
12.0333 18.857
12.0485 19.032
12.0637 18.854
12.0788 18.829
12.0940 18.861
12.1092 18.932
12.1244 18.661
12.1395 18.645
12.1547 18.471
12.1699 18.339
12.1851 18.266
12.2002 18.073
12.2154 17.939
12.2306 17.900
12.2458 18.019
12.2609 17.817
12.2761 17.574
12.2913 17.612
12.3065 17.387
12.3216 17.369
12.3368 17.552
12.3520 17.448
12.3672 17.339
12.3823 17.323
12.3975 17.211
12.4127 17.462
12.4279 17.320
12.4430 16.965
12.4582 16.638
12.4734 16.712
12.4886 16.785
12.5037 16.308
12.5189 16.163
12.5341 16.397
12.5493 16.752
12.5644 16.617
12.5796 16.334
12.5948 16.139
12.6100 16.102
12.6251 15.906
12.6403 15.656
12.6555 15.857
12.6707 16.000
12.6858 15.785
12.7010 15.534
12.7162 15.416
12.7314 15.497
12.7465 15.494
12.7617 15.517
12.7769 15.334
12.7921 15.046
12.8072 15.196
12.8224 15.430
12.8376 15.169
12.8528 14.911
12.8679 14.802
12.8831 14.639
12.8983 14.424
12.9135 14.605
12.9286 14.701
12.9438 14.504
12.9590 14.403
12.9742 14.219
12.9893 14.046
13.0045 14.201
13.0197 14.264
13.0349 14.023
13.0500 14.205
13.0652 14.197
13.0804 13.798
13.0956 13.804
13.1107 13.740
13.1259 13.761
13.1411 13.857
13.1563 13.748
13.1714 13.730
13.1866 13.697
13.2018 13.529
13.2170 13.535
13.2321 13.484
13.2473 13.455
13.2625 13.323
13.2777 13.063
13.2928 13.156
13.3080 13.185
13.3232 13.194
13.3384 12.945
13.3535 12.986
13.3687 13.060
13.3839 13.003
13.3991 13.007
13.4142 12.865
13.4294 12.860
13.4446 12.596
13.4598 12.660
13.4749 12.956
13.4901 12.760
13.5053 12.385
13.5205 12.247
13.5356 12.249
13.5508 12.476
13.5660 12.748
13.5812 12.392
13.5963 12.135
13.6115 12.027
13.6267 12.062
13.6419 12.291
13.6570 12.184
13.6722 11.909
13.6874 11.774
13.7026 11.847
13.7177 12.125
13.7329 12.111
13.7481 12.154
13.7633 12.069
13.7784 12.050
13.7936 12.092
13.8088 12.127
13.8239 12.285
13.8391 12.360
13.8543 12.243
13.8695 12.425
13.8846 12.211
13.8998 12.115
13.9150 12.290
13.9302 12.289
13.9453 11.955
13.9605 11.741
13.9757 11.701
13.9909 11.809
14.0060 11.616
14.0212 11.735
14.0364 11.635
14.0516 11.561
14.0667 11.504
14.0819 11.520
14.0971 11.399
14.1123 11.538
14.1274 11.393
14.1426 11.481
14.1578 11.506
14.1730 11.341
14.1881 11.078
14.2033 11.395
14.2185 11.262
14.2337 11.175
14.2488 11.398
14.2640 11.628
14.2792 11.688
14.2944 11.932
14.3095 12.058
14.3247 12.020
14.3399 12.214
14.3551 12.513
14.3702 12.804
14.3854 12.931
14.4006 13.377
14.4158 13.231
14.4309 13.195
14.4461 13.303
14.4613 13.008
14.4765 12.668
14.4916 12.431
14.5068 12.214
14.5220 11.889
14.5372 11.787
14.5523 11.456
14.5675 11.184
14.5827 11.204
14.5979 11.151
14.6130 10.833
14.6282 10.730
14.6434 10.639
14.6586 10.828
14.6737 10.725
14.6889 10.726
14.7041 10.701
14.7193 10.646
14.7344 10.598
14.7496 10.801
14.7648 10.766
14.7800 10.566
14.7951 10.461
14.8103 10.633
14.8255 10.619
14.8407 10.911
14.8558 10.525
14.8710 10.260
14.8862 10.343
14.9014 9.915
14.9165 10.615
14.9317 10.891
14.9469 10.211
14.9621 10.152
14.9772 10.243
14.9924 10.307
15.0076 9.891
15.0228 10.232
15.0379 10.478
15.0531 10.532
15.0683 10.306
15.0835 10.339
15.0986 10.402
15.1138 10.256
15.1290 10.201
15.1442 10.148
15.1593 10.031
15.1745 10.162
15.1897 10.111
15.2049 10.035
15.2200 10.286
15.2352 10.040
15.2504 10.312
15.2656 10.153
15.2807 9.914
15.2959 10.310
15.3111 10.138
15.3263 10.252
15.3414 9.916
15.3566 9.884
15.3718 10.022
15.3870 10.078
15.4021 10.114
15.4173 10.151
15.4325 10.017
15.4477 10.301
15.4628 10.174
15.4780 10.039
15.4932 10.147
15.5084 9.993
15.5235 10.217
15.5387 10.005
15.5539 10.076
15.5691 10.032
15.5842 9.728
15.5994 9.694
15.6146 9.907
15.6298 10.104
15.6449 9.854
15.6601 9.601
15.6753 9.746
15.6905 9.925
15.7056 9.755
15.7208 9.464
15.7360 9.559
15.7512 9.795
15.7663 9.583
15.7815 9.508
15.7967 9.635
15.8119 9.744
15.8270 9.704
15.8422 9.312
15.8574 9.478
15.8726 9.624
15.8877 9.644
15.9029 9.644
15.9181 9.549
15.9333 9.565
15.9484 9.680
15.9636 9.857
15.9788 9.451
15.9940 9.701
16.0091 9.593
16.0243 9.545
16.0395 9.738
16.0547 9.560
16.0698 9.586
16.0850 9.648
16.1002 9.741
16.1154 9.690
16.1305 9.347
16.1457 9.335
16.1609 9.360
16.1761 9.582
16.1912 9.345
16.2064 9.767
16.2216 9.691
16.2368 9.797
16.2519 9.629
16.2671 9.556
16.2823 9.530
16.2975 9.756
16.3126 9.887
16.3278 9.941
16.3430 9.853
16.3582 9.892
16.3733 10.024
16.3885 9.966
16.4037 9.974
16.4189 9.716
16.4340 9.518
16.4492 9.419
16.4644 9.416
16.4796 9.604
16.4947 9.788
16.5099 9.457
16.5251 9.511
16.5403 9.578
16.5554 9.355
16.5706 9.510
16.5858 9.439
16.6010 9.599
16.6161 9.495
16.6313 9.518
16.6465 9.750
16.6617 9.841
16.6768 9.696
16.6920 9.423
16.7072 9.573
16.7224 9.861
16.7375 9.826
16.7527 9.761
16.7679 9.657
16.7831 9.761
16.7982 9.808
16.8134 9.825
16.8286 9.749
16.8438 9.589
16.8589 9.618
16.8741 9.509
16.8893 9.476
16.9045 9.538
16.9196 9.619
16.9348 9.543
16.9500 9.436
16.9652 9.753
16.9803 9.829
16.9955 9.786
17.0107 9.961
17.0259 10.018
17.0410 9.925
17.0562 10.049
17.0714 10.146
17.0866 10.288
17.1017 10.259
17.1169 10.475
17.1321 10.913
17.1473 11.141
17.1624 11.521
17.1776 12.189
17.1928 12.915
17.2080 13.687
17.2231 14.882
17.2383 16.316
17.2535 17.358
17.2687 18.346
17.2838 18.562
17.2990 17.800
17.3142 16.935
17.3294 16.190
17.3445 16.077
17.3597 16.289
17.3749 16.099
17.3901 15.062
17.4052 14.115
17.4204 13.270
17.4356 12.243
17.4508 11.855
17.4659 11.610
17.4811 11.353
17.4963 11.218
17.5115 11.066
17.5266 10.780
17.5418 10.738
17.5570 11.182
17.5722 11.283
17.5873 10.990
17.6025 11.020
17.6177 11.152
17.6329 11.210
17.6480 11.266
17.6632 11.351
17.6784 11.597
17.6936 11.722
17.7087 11.696
17.7239 11.718
17.7391 11.580
17.7543 11.355
17.7694 11.136
17.7846 11.053
17.7998 11.305
17.8150 11.291
17.8301 10.782
17.8453 10.539
17.8605 10.671
17.8757 10.600
17.8908 10.566
17.9060 10.626
17.9212 10.527
17.9364 10.336
17.9515 10.083
17.9667 10.054
17.9819 10.128
17.9971 10.189
18.0122 10.230
18.0274 10.149
18.0426 10.315
18.0578 10.292
18.0729 10.129
18.0881 10.117
18.1033 10.067
18.1185 10.174
18.1336 10.051
18.1488 9.901
18.1640 9.949
18.1792 10.112
18.1943 9.989
18.2095 9.802
18.2247 9.664
18.2399 9.771
18.2550 9.903
18.2702 9.802
18.2854 9.883
18.3006 9.944
18.3157 9.872
18.3309 9.847
18.3461 9.663
18.3613 9.753
18.3764 9.903
18.3916 9.793
18.4068 9.713
18.4220 9.726
18.4371 9.613
18.4523 9.720
18.4675 9.800
18.4827 9.801
18.4978 9.775
18.5130 9.909
18.5282 9.815
18.5434 9.594
18.5585 9.762
18.5737 9.616
18.5889 9.422
18.6041 9.908
18.6192 9.924
18.6344 9.711
18.6496 9.716
18.6648 9.758
18.6799 9.855
18.6951 9.702
18.7103 9.639
18.7255 9.524
18.7406 9.577
18.7558 9.642
18.7710 9.771
18.7862 9.979
18.8013 9.788
18.8165 9.687
18.8317 9.879
18.8469 9.965
18.8620 10.188
18.8772 9.959
18.8924 9.869
18.9076 9.893
18.9227 9.795
18.9379 9.664
18.9531 9.759
18.9683 9.835
18.9834 9.895
18.9986 9.974
19.0138 10.026
19.0290 10.077
19.0441 10.010
19.0593 10.140
19.0745 10.102
19.0897 10.169
19.1048 10.339
19.1200 10.243
19.1352 10.471
19.1504 10.508
19.1655 10.557
19.1807 10.604
19.1959 10.530
19.2111 10.658
19.2262 10.668
19.2414 10.764
19.2566 11.079
19.2718 11.152
19.2869 10.965
19.3021 10.809
19.3173 10.850
19.3325 10.817
19.3476 10.991
19.3628 11.101
19.3780 10.883
19.3932 10.942
19.4083 11.154
19.4235 11.148
19.4387 11.063
19.4539 11.173
19.4690 11.217
19.4842 11.409
19.4994 11.495
19.5146 11.488
19.5297 11.670
19.5449 11.517
19.5601 11.411
19.5753 11.478
19.5904 11.385
19.6056 11.635
19.6208 11.599
19.6360 11.726
19.6511 12.071
19.6663 11.857
19.6815 11.622
19.6967 11.611
19.7118 11.853
19.7270 12.068
19.7422 12.105
19.7574 11.806
19.7725 11.700
19.7877 12.049
19.8029 12.044
19.8180 11.809
19.8332 11.966
19.8484 12.275
19.8636 12.442
19.8787 12.533
19.8939 12.740
19.9091 13.150
19.9243 13.566
19.9394 13.867
19.9546 14.184
19.9698 14.529
19.9850 14.514
20.0001 14.305
20.0153 14.205
20.0305 14.035
20.0457 14.020
20.0608 13.764
20.0760 13.705
20.0912 13.625
20.1064 13.639
20.1215 13.512
20.1367 13.154
20.1519 13.140
20.1671 12.884
20.1822 12.680
20.1974 12.896
20.2126 13.247
20.2278 12.761
20.2429 12.599
20.2581 12.308
20.2733 12.102
20.2885 12.181
20.3036 11.950
20.3188 12.002
20.3340 12.001
20.3492 11.916
20.3643 11.933
20.3795 12.038
20.3947 11.710
20.4099 11.552
20.4250 11.725
20.4402 12.107
20.4554 12.261
20.4706 12.015
20.4857 12.076
20.5009 12.185
20.5161 11.870
20.5313 11.947
20.5464 11.717
20.5616 11.618
20.5768 11.514
20.5920 11.331
20.6071 11.200
20.6223 11.168
20.6375 11.295
20.6527 10.982
20.6678 10.646
20.6830 10.679
20.6982 10.554
20.7134 10.804
20.7285 10.503
20.7437 10.696
20.7589 10.311
20.7741 10.568
20.7892 10.391
20.8044 10.338
20.8196 10.204
20.8348 9.815
20.8499 10.423
20.8651 10.094
20.8803 10.150
20.8955 10.169
20.9106 9.887
20.9258 9.845
20.9410 9.957
20.9562 10.130
20.9713 10.300
20.9865 9.737
21.0017 10.064
21.0169 10.169
21.0320 10.050
21.0472 10.252
21.0624 9.975
21.0776 9.991
21.0927 9.848
21.1079 10.006
21.1231 9.526
21.1383 10.070
21.1534 9.901
21.1686 9.807
21.1838 9.780
21.1990 9.621
21.2141 9.640
21.2293 9.946
21.2445 9.499
21.2597 10.014
21.2748 9.371
21.2900 9.702
21.3052 9.677
21.3204 9.467
21.3355 9.495
21.3507 9.728
21.3659 9.734
21.3811 9.637
21.3962 9.527
21.4114 9.550
21.4266 9.570
21.4418 9.740
21.4569 9.662
21.4721 9.290
21.4873 9.264
21.5025 9.287
21.5176 9.277
21.5328 9.159
21.5480 9.297
21.5632 9.362
21.5783 9.380
21.5935 9.369
21.6087 9.191
21.6239 9.192
21.6390 9.082
21.6542 9.164
21.6694 9.144
21.6846 8.972
21.6997 9.010
21.7149 9.124
21.7301 9.045
21.7453 9.115
21.7604 9.084
21.7756 9.225
21.7908 9.031
21.8060 8.911
21.8211 8.928
21.8363 9.102
21.8515 9.202
21.8667 9.226
21.8818 9.305
21.8970 9.096
21.9122 8.943
21.9274 8.769
21.9425 8.814
21.9577 9.083
21.9729 9.091
21.9881 8.931
22.0032 8.986
22.0184 9.069
22.0336 8.915
22.0488 8.776
22.0639 8.789
22.0791 8.642
22.0943 8.624
22.1095 8.814
22.1246 8.804
22.1398 8.790
22.1550 8.812
22.1702 8.781
22.1853 8.519
22.2005 8.621
22.2157 8.707
22.2309 8.689
22.2460 8.518
22.2612 8.284
22.2764 8.454
22.2916 8.667
22.3067 8.594
22.3219 8.380
22.3371 8.521
22.3523 8.396
22.3674 8.380
22.3826 8.422
22.3978 8.341
22.4130 8.348
22.4281 8.248
22.4433 8.388
22.4585 8.492
22.4737 8.412
22.4888 8.303
22.5040 8.262
22.5192 8.256
22.5344 8.344
22.5495 8.536
22.5647 8.407
22.5799 8.226
22.5951 8.424
22.6102 8.572
22.6254 8.428
22.6406 8.393
22.6558 8.469
22.6709 8.579
22.6861 7.909
22.7013 8.066
22.7165 7.784
22.7316 6.575
