'Id: "" Comment: "" Operator: "Lab Manager" Anode: "Mo" Scantype: "Still (Eiger2R_500K (1D mode))" TimePerStep: "300" X: "11.8" Y: "9.4" Z: "11.284" 
7.2532 18.789
7.2684 18.519
7.2836 18.610
7.2987 18.870
7.3139 19.159
7.3291 19.015
7.3443 18.896
7.3594 18.834
7.3746 19.280
7.3898 19.391
7.4050 19.426
7.4201 19.400
7.4353 19.437
7.4505 19.432
7.4657 19.154
7.4808 19.502
7.4960 19.394
7.5112 19.693
7.5264 19.817
7.5415 19.958
7.5567 19.940
7.5719 20.131
7.5871 19.725
7.6022 19.840
7.6174 19.981
7.6326 19.960
7.6478 19.936
7.6629 20.119
7.6781 19.900
7.6933 19.727
7.7085 19.778
7.7236 20.175
7.7388 20.372
7.7540 20.549
7.7692 20.651
7.7843 20.874
7.7995 20.838
7.8147 20.672
7.8299 20.618
7.8450 20.558
7.8602 20.529
7.8754 20.550
7.8905 20.588
7.9057 20.468
7.9209 20.521
7.9361 20.695
7.9512 20.688
7.9664 20.761
7.9816 21.081
7.9968 21.149
8.0119 21.154
8.0271 21.140
8.0423 20.685
8.0575 20.718
8.0726 20.827
8.0878 20.865
8.1030 21.386
8.1182 20.999
8.1333 21.156
8.1485 21.384
8.1637 21.548
8.1789 21.293
8.1940 21.244
8.2092 21.344
8.2244 21.368
8.2396 21.330
8.2547 21.130
8.2699 21.450
8.2851 21.360
8.3003 21.434
8.3154 21.216
8.3306 21.562
8.3458 21.613
8.3610 21.681
8.3761 21.775
8.3913 21.458
8.4065 21.898
8.4217 22.071
8.4368 22.032
8.4520 21.301
8.4672 22.237
8.4824 21.872
8.4975 22.321
8.5127 22.061
8.5279 22.378
8.5431 22.408
8.5582 22.144
8.5734 21.735
8.5886 22.308
8.6038 21.460
8.6189 21.908
8.6341 22.317
8.6493 22.064
8.6645 22.184
8.6796 22.353
8.6948 22.097
8.7100 22.276
8.7252 22.470
8.7403 22.445
8.7555 22.341
8.7707 22.573
8.7859 22.004
8.8010 22.383
8.8162 22.417
8.8314 22.235
8.8466 22.508
8.8617 22.669
8.8769 22.766
8.8921 22.158
8.9073 22.244
8.9224 22.656
8.9376 22.289
8.9528 22.273
8.9680 22.720
8.9831 22.714
8.9983 23.068
9.0135 22.094
9.0287 22.270
9.0438 22.647
9.0590 22.770
9.0742 22.727
9.0894 22.730
9.1045 22.566
9.1197 22.654
9.1349 22.971
9.1501 22.674
9.1652 22.562
9.1804 22.844
9.1956 22.783
9.2108 22.848
9.2259 22.527
9.2411 22.477
9.2563 22.981
9.2715 23.049
9.2866 22.922
9.3018 22.781
9.3170 22.905
9.3322 22.881
9.3473 22.891
9.3625 23.004
9.3777 22.985
9.3929 22.738
9.4080 22.744
9.4232 22.967
9.4384 23.028
9.4536 22.922
9.4687 23.122
9.4839 22.958
9.4991 22.831
9.5143 22.822
9.5294 22.760
9.5446 22.539
9.5598 22.935
9.5750 23.375
9.5901 23.024
9.6053 22.946
9.6205 23.195
9.6357 23.251
9.6508 23.277
9.6660 23.286
9.6812 23.245
9.6964 23.408
9.7115 23.693
9.7267 23.894
9.7419 23.931
9.7571 24.067
9.7722 24.041
9.7874 23.800
9.8026 23.654
9.8178 23.514
9.8329 23.256
9.8481 23.215
9.8633 23.040
9.8785 23.022
9.8936 23.209
9.9088 23.114
9.9240 23.133
9.9392 23.480
9.9543 23.349
9.9695 23.103
9.9847 23.032
9.9999 23.076
10.0150 23.163
10.0302 23.136
10.0454 23.211
10.0606 23.034
10.0757 22.943
10.0909 22.985
10.1061 23.137
10.1213 23.543
10.1364 23.420
10.1516 23.158
10.1668 23.074
10.1820 23.165
10.1971 22.964
10.2123 22.803
10.2275 23.184
10.2427 22.825
10.2578 22.447
10.2730 22.794
10.2882 22.621
10.3034 22.553
10.3185 22.738
10.3337 22.578
10.3489 22.982
10.3641 23.157
10.3792 22.928
10.3944 22.826
10.4096 22.466
10.4248 22.440
10.4399 22.603
10.4551 22.461
10.4703 22.569
10.4855 22.570
10.5006 22.521
10.5158 22.907
10.5310 22.681
10.5462 22.343
10.5613 22.238
10.5765 22.744
10.5917 22.526
10.6069 22.201
10.6220 21.848
10.6372 22.414
10.6524 22.322
10.6676 22.143
10.6827 22.296
10.6979 22.230
10.7131 21.916
10.7283 22.177
10.7434 22.421
10.7586 22.084
10.7738 22.115
10.7890 22.324
10.8041 22.043
10.8193 21.909
10.8345 21.778
10.8497 21.758
10.8648 21.901
10.8800 22.316
10.8952 22.395
10.9104 22.010
10.9255 22.143
10.9407 22.381
10.9559 22.357
10.9711 21.843
10.9862 21.549
11.0014 21.696
11.0166 21.842
11.0318 22.078
11.0469 22.016
11.0621 21.888
11.0773 21.786
11.0925 21.357
11.1076 21.732
11.1228 21.589
11.1380 21.320
11.1532 21.752
11.1683 21.760
11.1835 21.451
11.1987 21.344
11.2139 21.311
11.2290 21.552
11.2442 21.355
11.2594 21.619
11.2746 21.355
11.2897 21.160
11.3049 21.397
11.3201 21.238
11.3353 21.239
11.3504 21.054
11.3656 21.233
11.3808 21.420
11.3960 21.363
11.4111 20.894
11.4263 21.014
11.4415 21.167
11.4567 21.245
11.4718 21.098
11.4870 21.199
11.5022 21.225
11.5174 20.853
11.5325 20.838
11.5477 20.947
11.5629 20.908
11.5781 20.869
11.5932 20.726
11.6084 20.835
11.6236 20.569
11.6388 20.604
11.6539 20.302
11.6691 20.201
11.6843 20.200
11.6995 20.494
11.7146 20.699
11.7298 20.665
11.7450 20.651
11.7602 20.569
11.7753 20.316
11.7905 20.099
11.8057 19.987
11.8209 19.665
11.8360 19.593
11.8512 19.580
11.8664 19.680
11.8816 19.565
11.8967 19.323
11.9119 19.436
11.9271 19.357
11.9423 19.807
11.9574 19.277
11.9726 19.291
11.9878 19.029
12.0030 19.154
12.0181 18.991
12.0333 18.534
12.0485 18.931
12.0637 18.850
12.0788 18.821
12.0940 18.857
12.1092 18.843
12.1244 18.750
12.1395 18.617
12.1547 18.569
12.1699 18.294
12.1851 18.304
12.2002 18.321
12.2154 17.916
12.2306 17.817
12.2458 17.807
12.2609 17.902
12.2761 17.810
12.2913 17.587
12.3065 17.118
12.3216 17.335
12.3368 17.849
12.3520 17.615
12.3672 17.435
12.3823 17.340
12.3975 17.110
12.4127 16.869
12.4279 16.830
12.4430 16.898
12.4582 16.787
12.4734 16.816
12.4886 16.534
12.5037 16.509
12.5189 16.420
12.5341 16.278
12.5493 16.209
12.5644 16.358
12.5796 16.558
12.5948 16.128
12.6100 15.954
12.6251 16.269
12.6403 16.120
12.6555 15.875
12.6707 15.711
12.6858 15.543
12.7010 15.729
12.7162 15.633
12.7314 15.404
12.7465 15.294
12.7617 15.332
12.7769 15.330
12.7921 15.390
12.8072 15.194
12.8224 14.910
12.8376 14.769
12.8528 14.936
12.8679 15.026
12.8831 14.726
12.8983 14.716
12.9135 14.733
12.9286 14.347
12.9438 14.424
12.9590 14.434
12.9742 14.145
12.9893 14.321
13.0045 14.369
13.0197 13.997
13.0349 13.974
13.0500 14.130
13.0652 13.981
13.0804 13.918
13.0956 13.987
13.1107 13.944
13.1259 13.715
13.1411 13.539
13.1563 13.605
13.1714 13.455
13.1866 13.445
13.2018 13.673
13.2170 13.418
13.2321 13.257
13.2473 13.174
13.2625 13.152
13.2777 13.332
13.2928 13.227
13.3080 13.114
13.3232 13.189
13.3384 13.321
13.3535 13.250
13.3687 13.247
13.3839 13.115
13.3991 12.948
13.4142 12.980
13.4294 13.014
13.4446 12.869
13.4598 12.678
13.4749 12.928
13.4901 13.085
13.5053 12.852
13.5205 12.476
13.5356 12.337
13.5508 12.257
13.5660 12.229
13.5812 12.178
13.5963 12.144
13.6115 12.276
13.6267 12.310
13.6419 12.420
13.6570 12.560
13.6722 12.293
13.6874 12.007
13.7026 11.947
13.7177 11.943
13.7329 11.842
13.7481 12.037
13.7633 11.933
13.7784 12.195
13.7936 12.112
13.8088 11.924
13.8239 12.029
13.8391 12.100
13.8543 12.288
13.8695 12.252
13.8846 12.261
13.8998 12.415
13.9150 12.144
13.9302 11.814
13.9453 11.558
13.9605 11.685
13.9757 11.598
13.9909 11.727
14.0060 11.647
14.0212 11.454
14.0364 11.490
14.0516 11.590
14.0667 11.637
14.0819 11.674
14.0971 11.642
14.1123 11.672
14.1274 11.641
14.1426 11.627
14.1578 11.601
14.1730 11.722
14.1881 11.857
14.2033 11.669
14.2185 11.774
14.2337 11.722
14.2488 12.004
14.2640 12.029
14.2792 11.941
14.2944 11.876
14.3095 12.212
14.3247 12.687
14.3399 12.522
14.3551 12.671
14.3702 12.592
14.3854 12.622
14.4006 12.943
14.4158 12.721
14.4309 13.048
14.4461 12.536
14.4613 12.265
14.4765 12.456
14.4916 12.232
14.5068 11.990
14.5220 11.682
14.5372 11.324
14.5523 11.258
14.5675 11.258
14.5827 10.943
14.5979 10.892
14.6130 10.672
14.6282 10.394
14.6434 11.063
14.6586 10.665
14.6737 10.550
14.6889 10.513
14.7041 10.529
14.7193 10.791
14.7344 10.605
14.7496 10.574
14.7648 10.477
14.7800 10.380
14.7951 10.407
14.8103 10.296
14.8255 10.480
14.8407 10.507
14.8558 10.547
14.8710 10.488
14.8862 10.621
14.9014 10.365
14.9165 10.937
14.9317 10.831
14.9469 10.525
14.9621 10.377
14.9772 10.517
14.9924 10.179
15.0076 10.053
15.0228 10.413
15.0379 10.190
15.0531 10.244
15.0683 10.329
15.0835 10.608
15.0986 10.306
15.1138 10.004
15.1290 10.365
15.1442 10.324
15.1593 10.361
15.1745 9.927
15.1897 10.225
15.2049 10.208
15.2200 10.424
15.2352 10.158
15.2504 10.385
15.2656 9.699
15.2807 9.933
15.2959 9.975
15.3111 10.193
15.3263 10.136
15.3414 10.216
15.3566 9.927
15.3718 9.947
15.3870 10.196
15.4021 10.172
15.4173 10.372
15.4325 9.894
15.4477 10.189
15.4628 10.142
15.4780 10.318
15.4932 10.154
15.5084 10.014
15.5235 9.926
15.5387 9.747
15.5539 9.856
15.5691 9.913
15.5842 9.877
15.5994 9.696
15.6146 9.794
15.6298 9.605
15.6449 9.559
15.6601 9.958
15.6753 9.912
15.6905 9.688
15.7056 9.921
15.7208 9.712
15.7360 9.584
15.7512 9.773
15.7663 9.775
15.7815 9.700
15.7967 9.912
15.8119 9.950
15.8270 9.468
15.8422 9.670
15.8574 9.486
15.8726 9.662
15.8877 9.560
15.9029 9.451
15.9181 9.506
15.9333 9.292
15.9484 9.716
15.9636 9.686
15.9788 9.646
15.9940 9.885
16.0091 9.966
16.0243 10.012
16.0395 9.523
16.0547 9.567
16.0698 9.656
16.0850 9.636
16.1002 9.801
16.1154 9.610
16.1305 9.661
16.1457 9.667
16.1609 9.597
16.1761 9.674
16.1912 9.546
16.2064 9.656
16.2216 9.794
16.2368 9.684
16.2519 9.637
16.2671 9.732
16.2823 9.915
16.2975 9.680
16.3126 9.608
16.3278 9.588
16.3430 9.736
16.3582 9.867
16.3733 9.752
16.3885 9.881
16.4037 10.009
16.4189 9.765
16.4340 9.707
16.4492 9.718
16.4644 9.710
16.4796 9.690
16.4947 9.515
16.5099 9.673
16.5251 9.842
16.5403 9.953
16.5554 9.744
16.5706 9.616
16.5858 9.515
16.6010 9.512
16.6161 9.553
16.6313 9.761
16.6465 9.916
16.6617 10.048
16.6768 9.951
16.6920 9.945
16.7072 9.952
16.7224 9.954
16.7375 10.052
16.7527 9.906
16.7679 9.928
16.7831 9.995
16.7982 9.886
16.8134 9.701
16.8286 9.683
16.8438 9.840
16.8589 9.808
16.8741 9.852
16.8893 9.981
16.9045 9.890
16.9196 9.749
16.9348 9.875
16.9500 9.897
16.9652 9.697
16.9803 9.660
16.9955 9.926
17.0107 10.014
17.0259 9.742
17.0410 9.805
17.0562 10.015
17.0714 10.159
17.0866 10.222
17.1017 10.386
17.1169 10.637
17.1321 10.762
17.1473 11.177
17.1624 11.863
17.1776 12.266
17.1928 12.906
17.2080 13.997
17.2231 14.928
17.2383 16.278
17.2535 17.601
17.2687 18.406
17.2838 18.625
17.2990 17.957
17.3142 16.987
17.3294 16.260
17.3445 16.228
17.3597 16.403
17.3749 16.005
17.3901 15.225
17.4052 14.425
17.4204 13.460
17.4356 12.575
17.4508 12.017
17.4659 11.811
17.4811 11.773
17.4963 11.724
17.5115 11.479
17.5266 10.930
17.5418 11.003
17.5570 11.194
17.5722 10.906
17.5873 11.006
17.6025 11.042
17.6177 11.026
17.6329 11.307
17.6480 11.231
17.6632 11.382
17.6784 11.485
17.6936 11.351
17.7087 11.496
17.7239 11.494
17.7391 11.279
17.7543 11.006
17.7694 10.828
17.7846 10.831
17.7998 10.809
17.8150 10.738
17.8301 10.637
17.8453 10.427
17.8605 10.056
17.8757 9.960
17.8908 9.974
17.9060 10.180
17.9212 10.257
17.9364 10.156
17.9515 10.052
17.9667 9.948
17.9819 10.112
17.9971 10.278
18.0122 10.234
18.0274 10.219
18.0426 10.201
18.0578 10.154
18.0729 10.206
18.0881 10.098
18.1033 10.073
18.1185 9.986
18.1336 9.811
18.1488 10.023
18.1640 9.899
18.1792 9.803
18.1943 9.948
18.2095 9.854
18.2247 9.837
18.2399 9.927
18.2550 9.782
18.2702 9.749
18.2854 9.802
18.3006 9.884
18.3157 9.774
18.3309 9.770
18.3461 9.777
18.3613 9.685
18.3764 9.725
18.3916 9.844
18.4068 9.969
18.4220 9.837
18.4371 9.643
18.4523 9.635
18.4675 9.859
18.4827 9.838
18.4978 9.767
18.5130 9.675
18.5282 9.637
18.5434 9.672
18.5585 9.710
18.5737 9.662
18.5889 9.714
18.6041 9.748
18.6192 9.560
18.6344 9.662
18.6496 9.826
18.6648 9.935
18.6799 9.838
18.6951 9.559
18.7103 9.684
18.7255 9.525
18.7406 9.484
18.7558 9.643
18.7710 9.857
18.7862 9.822
18.8013 9.687
18.8165 9.641
18.8317 9.957
18.8469 10.014
18.8620 10.041
18.8772 10.092
18.8924 10.040
18.9076 10.183
18.9227 9.917
18.9379 9.851
18.9531 9.977
18.9683 9.820
18.9834 9.807
18.9986 9.828
19.0138 9.957
19.0290 10.124
19.0441 10.024
19.0593 10.267
19.0745 10.399
19.0897 10.224
19.1048 10.235
19.1200 10.358
19.1352 10.425
19.1504 10.384
19.1655 10.390
19.1807 10.532
19.1959 10.580
19.2111 10.678
19.2262 10.788
19.2414 10.709
19.2566 10.688
19.2718 10.846
19.2869 10.932
19.3021 10.844
19.3173 10.837
19.3325 10.955
19.3476 11.008
19.3628 11.136
19.3780 11.044
19.3932 11.130
19.4083 11.344
19.4235 11.308
19.4387 11.368
19.4539 11.331
19.4690 11.364
19.4842 11.448
19.4994 11.549
19.5146 11.578
19.5297 11.397
19.5449 11.498
19.5601 11.555
19.5753 11.595
19.5904 11.417
19.6056 11.563
19.6208 11.614
19.6360 11.586
19.6511 11.521
19.6663 11.619
19.6815 11.694
19.6967 11.565
19.7118 11.662
19.7270 11.658
19.7422 11.779
19.7574 11.849
19.7725 11.839
19.7877 11.836
19.8029 11.675
19.8180 11.984
19.8332 12.201
19.8484 12.306
19.8636 12.609
19.8787 12.722
19.8939 13.016
19.9091 13.166
19.9243 13.333
19.9394 13.889
19.9546 14.206
19.9698 14.432
19.9850 14.663
20.0001 14.409
20.0153 14.094
20.0305 13.895
20.0457 13.740
20.0608 13.968
20.0760 13.995
20.0912 13.736
20.1064 13.492
20.1215 13.437
20.1367 13.106
20.1519 12.663
20.1671 12.689
20.1822 12.911
20.1974 12.934
20.2126 12.774
20.2278 12.714
20.2429 12.697
20.2581 12.347
20.2733 12.161
20.2885 12.180
20.3036 11.951
20.3188 12.049
20.3340 11.974
20.3492 11.784
20.3643 12.044
20.3795 12.005
20.3947 11.680
20.4099 11.551
20.4250 11.733
20.4402 11.881
20.4554 11.972
20.4706 12.109
20.4857 11.673
20.5009 11.501
20.5161 11.652
20.5313 11.594
20.5464 11.381
20.5616 11.323
20.5768 11.187
20.5920 11.204
20.6071 11.073
20.6223 11.167
20.6375 11.039
20.6527 10.740
20.6678 10.629
20.6830 10.499
20.6982 10.801
20.7134 10.978
20.7285 11.001
20.7437 10.515
20.7589 10.431
20.7741 10.268
20.7892 10.269
20.8044 10.189
20.8196 10.426
20.8348 10.275
20.8499 10.276
20.8651 10.287
20.8803 10.063
20.8955 10.213
20.9106 10.021
20.9258 10.074
20.9410 10.054
20.9562 10.024
20.9713 10.059
20.9865 9.946
21.0017 10.009
21.0169 9.954
21.0320 9.807
21.0472 9.830
21.0624 10.480
21.0776 10.145
21.0927 9.981
21.1079 9.995
21.1231 9.693
21.1383 9.943
21.1534 9.821
21.1686 9.740
21.1838 9.978
21.1990 9.684
21.2141 9.839
21.2293 9.799
21.2445 9.744
21.2597 9.566
21.2748 9.864
21.2900 9.596
21.3052 10.011
21.3204 9.479
21.3355 9.491
21.3507 9.668
21.3659 9.426
21.3811 9.473
21.3962 9.541
21.4114 9.400
21.4266 9.500
21.4418 9.337
21.4569 9.428
21.4721 9.264
21.4873 9.329
21.5025 9.700
21.5176 9.653
21.5328 9.446
21.5480 9.228
21.5632 9.238
21.5783 9.232
21.5935 9.161
21.6087 9.219
21.6239 9.117
21.6390 9.153
21.6542 8.988
21.6694 9.227
21.6846 9.193
21.6997 9.063
21.7149 9.051
21.7301 8.997
21.7453 9.076
21.7604 9.014
21.7756 8.984
21.7908 9.008
21.8060 9.097
21.8211 8.990
21.8363 8.968
21.8515 9.042
21.8667 9.035
21.8818 9.147
21.8970 9.138
21.9122 9.011
21.9274 8.871
21.9425 8.784
21.9577 8.928
21.9729 9.093
21.9881 8.867
22.0032 8.836
22.0184 8.956
22.0336 8.983
22.0488 8.854
22.0639 8.815
22.0791 8.674
22.0943 8.538
22.1095 8.386
22.1246 8.402
22.1398 8.468
22.1550 8.596
22.1702 8.627
22.1853 8.413
22.2005 8.398
22.2157 8.617
22.2309 8.602
22.2460 8.449
22.2612 8.424
22.2764 8.513
22.2916 8.525
22.3067 8.293
22.3219 8.232
22.3371 8.389
22.3523 8.227
22.3674 8.482
22.3826 8.292
22.3978 8.297
22.4130 8.261
22.4281 8.323
22.4433 8.323
22.4585 8.290
22.4737 8.542
22.4888 8.569
22.5040 8.449
22.5192 8.291
22.5344 8.407
22.5495 8.222
22.5647 8.386
22.5799 8.368
22.5951 8.340
22.6102 8.523
22.6254 8.229
22.6406 8.520
22.6558 8.358
22.6709 8.293
22.6861 8.272
22.7013 8.281
22.7165 7.971
22.7316 6.454
