'Id: "" Comment: "" Operator: "Lab Manager" Anode: "Mo" Scantype: "Still (Eiger2R_500K (1D mode))" TimePerStep: "300" X: "11.8" Y: "9.4" Z: "11.284" 
7.2532 19.148
7.2684 18.758
7.2836 18.427
7.2987 19.031
7.3139 18.716
7.3291 19.289
7.3443 19.382
7.3594 19.286
7.3746 19.513
7.3898 19.290
7.4050 19.539
7.4201 19.271
7.4353 19.635
7.4505 19.784
7.4657 19.947
7.4808 19.923
7.4960 20.178
7.5112 20.165
7.5264 20.168
7.5415 19.789
7.5567 19.920
7.5719 20.373
7.5871 20.199
7.6022 20.033
7.6174 20.331
7.6326 20.231
7.6478 20.175
7.6629 20.101
7.6781 20.114
7.6933 20.025
7.7085 20.376
7.7236 20.311
7.7388 20.358
7.7540 20.573
7.7692 20.453
7.7843 20.277
7.7995 20.363
7.8147 20.671
7.8299 20.783
7.8450 20.463
7.8602 20.454
7.8754 20.804
7.8905 20.863
7.9057 20.889
7.9209 20.919
7.9361 20.902
7.9512 20.918
7.9664 20.514
7.9816 20.851
7.9968 21.154
8.0119 21.166
8.0271 21.344
8.0423 21.341
8.0575 21.216
8.0726 21.389
8.0878 21.409
8.1030 21.208
8.1182 21.068
8.1333 21.368
8.1485 21.396
8.1637 22.000
8.1789 21.731
8.1940 21.669
8.2092 21.725
8.2244 21.643
8.2396 21.505
8.2547 21.511
8.2699 21.724
8.2851 21.731
8.3003 21.765
8.3154 21.945
8.3306 21.673
8.3458 21.741
8.3610 21.969
8.3761 21.909
8.3913 22.288
8.4065 22.056
8.4217 21.783
8.4368 21.761
8.4520 22.227
8.4672 22.358
8.4824 21.932
8.4975 21.937
8.5127 22.305
8.5279 22.077
8.5431 22.286
8.5582 22.121
8.5734 22.423
8.5886 22.321
8.6038 22.484
8.6189 22.280
8.6341 22.151
8.6493 22.476
8.6645 21.949
8.6796 22.208
8.6948 22.471
8.7100 22.009
8.7252 22.277
8.7403 22.635
8.7555 22.441
8.7707 22.833
8.7859 22.531
8.8010 22.595
8.8162 22.703
8.8314 22.236
8.8466 22.569
8.8617 22.627
8.8769 22.492
8.8921 22.406
8.9073 22.989
8.9224 22.554
8.9376 22.542
8.9528 22.484
8.9680 22.500
8.9831 22.637
8.9983 22.865
9.0135 22.733
9.0287 22.593
9.0438 22.613
9.0590 22.917
9.0742 22.620
9.0894 23.145
9.1045 23.194
9.1197 23.305
9.1349 23.090
9.1501 22.815
9.1652 22.992
9.1804 23.054
9.1956 22.921
9.2108 22.998
9.2259 23.000
9.2411 23.019
9.2563 22.787
9.2715 22.478
9.2866 22.940
9.3018 23.009
9.3170 22.869
9.3322 22.781
9.3473 22.925
9.3625 23.018
9.3777 23.276
9.3929 22.749
9.4080 22.879
9.4232 23.038
9.4384 22.904
9.4536 23.017
9.4687 22.982
9.4839 23.035
9.4991 23.474
9.5143 23.395
9.5294 23.425
9.5446 23.443
9.5598 23.500
9.5750 23.432
9.5901 23.274
9.6053 23.108
9.6205 23.117
9.6357 23.393
9.6508 23.615
9.6660 23.472
9.6812 23.552
9.6964 23.816
9.7115 24.101
9.7267 24.378
9.7419 24.465
9.7571 24.446
9.7722 24.315
9.7874 24.044
9.8026 23.749
9.8178 23.778
9.8329 23.863
9.8481 23.801
9.8633 23.881
9.8785 23.868
9.8936 23.717
9.9088 23.959
9.9240 23.941
9.9392 23.725
9.9543 23.643
9.9695 23.780
9.9847 23.736
9.9999 23.547
10.0150 23.294
10.0302 23.256
10.0454 23.215
10.0606 23.138
10.0757 23.152
10.0909 23.264
10.1061 22.896
10.1213 22.763
10.1364 23.263
10.1516 23.519
10.1668 22.981
10.1820 22.872
10.1971 23.072
10.2123 23.227
10.2275 23.198
10.2427 23.395
10.2578 23.537
10.2730 23.454
10.2882 22.984
10.3034 23.043
10.3185 23.080
10.3337 22.789
10.3489 23.267
10.3641 23.282
10.3792 23.239
10.3944 23.228
10.4096 23.221
10.4248 22.981
10.4399 22.888
10.4551 22.568
10.4703 22.724
10.4855 23.022
10.5006 22.782
10.5158 22.769
10.5310 22.782
10.5462 22.611
10.5613 22.456
10.5765 22.526
10.5917 22.816
10.6069 22.553
10.6220 22.173
10.6372 22.195
10.6524 22.319
10.6676 22.603
10.6827 22.699
10.6979 22.850
10.7131 22.286
10.7283 22.444
10.7434 22.701
10.7586 22.587
10.7738 22.449
10.7890 22.085
10.8041 22.080
10.8193 22.497
10.8345 22.516
10.8497 22.262
10.8648 22.228
10.8800 22.342
10.8952 22.295
10.9104 22.251
10.9255 21.963
10.9407 22.106
10.9559 22.269
10.9711 22.165
10.9862 21.858
11.0014 22.125
11.0166 22.190
11.0318 21.993
11.0469 22.073
11.0621 21.722
11.0773 21.935
11.0925 21.864
11.1076 21.588
11.1228 21.681
11.1380 21.665
11.1532 21.885
11.1683 22.048
11.1835 21.786
11.1987 21.799
11.2139 21.543
11.2290 21.584
11.2442 21.629
11.2594 21.570
11.2746 21.528
11.2897 21.710
11.3049 21.537
11.3201 21.502
11.3353 21.581
11.3504 21.699
11.3656 21.671
11.3808 21.467
11.3960 21.336
11.4111 21.132
11.4263 21.403
11.4415 21.305
11.4567 21.115
11.4718 21.178
11.4870 21.453
11.5022 21.411
11.5174 21.513
11.5325 21.520
11.5477 21.442
11.5629 21.263
11.5781 21.053
11.5932 21.039
11.6084 20.598
11.6236 20.532
11.6388 21.056
11.6539 21.271
11.6691 20.656
11.6843 20.168
11.6995 20.097
11.7146 20.491
11.7298 20.735
11.7450 20.079
11.7602 20.160
11.7753 20.177
11.7905 20.059
11.8057 19.740
11.8209 19.986
11.8360 20.187
11.8512 20.272
11.8664 20.147
11.8816 19.957
11.8967 19.944
11.9119 19.541
11.9271 20.003
11.9423 20.000
11.9574 19.512
11.9726 19.161
11.9878 19.057
12.0030 18.911
12.0181 19.120
12.0333 19.192
12.0485 19.471
12.0637 19.206
12.0788 18.806
12.0940 18.893
12.1092 18.848
12.1244 18.693
12.1395 18.918
12.1547 18.674
12.1699 18.581
12.1851 18.413
12.2002 18.140
12.2154 18.062
12.2306 17.923
12.2458 18.025
12.2609 18.067
12.2761 17.952
12.2913 17.811
12.3065 17.565
12.3216 17.579
12.3368 17.489
12.3520 17.711
12.3672 17.529
12.3823 17.319
12.3975 17.221
12.4127 17.142
12.4279 17.014
12.4430 16.773
12.4582 16.965
12.4734 17.109
12.4886 17.068
12.5037 17.164
12.5189 16.706
12.5341 16.453
12.5493 16.470
12.5644 16.266
12.5796 16.111
12.5948 16.038
12.6100 16.049
12.6251 16.042
12.6403 16.038
12.6555 16.055
12.6707 15.784
12.6858 15.584
12.7010 15.719
12.7162 15.756
12.7314 15.637
12.7465 15.669
12.7617 15.560
12.7769 15.542
12.7921 15.503
12.8072 15.104
12.8224 15.038
12.8376 15.133
12.8528 15.089
12.8679 14.883
12.8831 14.948
12.8983 15.001
12.9135 14.901
12.9286 14.767
12.9438 14.425
12.9590 14.325
12.9742 14.398
12.9893 14.384
13.0045 14.410
13.0197 14.386
13.0349 14.116
13.0500 14.078
13.0652 14.141
13.0804 13.959
13.0956 13.744
13.1107 13.691
13.1259 13.838
13.1411 13.731
13.1563 13.674
13.1714 13.692
13.1866 13.626
13.2018 13.553
13.2170 13.466
13.2321 13.640
13.2473 13.562
13.2625 13.395
13.2777 13.309
13.2928 13.136
13.3080 13.212
13.3232 13.357
13.3384 13.210
13.3535 13.151
13.3687 13.297
13.3839 13.187
13.3991 13.117
13.4142 12.913
13.4294 12.831
13.4446 12.897
13.4598 12.814
13.4749 12.801
13.4901 12.697
13.5053 12.494
13.5205 12.552
13.5356 12.635
13.5508 12.553
13.5660 12.551
13.5812 12.503
13.5963 12.480
13.6115 12.122
13.6267 11.932
13.6419 12.015
13.6570 12.047
13.6722 12.145
13.6874 12.156
13.7026 11.924
13.7177 12.175
13.7329 12.385
13.7481 12.246
13.7633 12.121
13.7784 12.301
13.7936 12.569
13.8088 12.244
13.8239 12.303
13.8391 12.603
13.8543 12.661
13.8695 12.440
13.8846 12.347
13.8998 12.338
13.9150 12.186
13.9302 12.192
13.9453 12.136
13.9605 12.149
13.9757 11.948
13.9909 11.893
14.0060 11.714
14.0212 11.552
14.0364 11.609
14.0516 11.805
14.0667 11.459
14.0819 11.565
14.0971 11.283
14.1123 11.357
14.1274 11.562
14.1426 11.418
14.1578 11.487
14.1730 11.225
14.1881 11.288
14.2033 11.423
14.2185 11.335
14.2337 11.486
14.2488 11.675
14.2640 11.369
14.2792 11.327
14.2944 11.332
14.3095 11.373
14.3247 11.658
14.3399 11.639
14.3551 11.581
14.3702 11.719
14.3854 12.328
14.4006 12.395
14.4158 12.415
14.4309 12.464
14.4461 12.458
14.4613 12.397
14.4765 12.506
14.4916 12.043
14.5068 12.148
14.5220 12.108
14.5372 11.882
14.5523 11.596
14.5675 11.310
14.5827 11.398
14.5979 11.491
14.6130 11.077
14.6282 11.282
14.6434 11.024
14.6586 10.861
14.6737 11.086
14.6889 10.842
14.7041 11.126
14.7193 11.144
14.7344 11.308
14.7496 11.087
14.7648 11.174
14.7800 10.902
14.7951 10.899
14.8103 10.850
14.8255 10.988
14.8407 10.816
14.8558 10.762
14.8710 10.798
14.8862 10.723
14.9014 10.797
14.9165 10.976
14.9317 11.053
14.9469 10.621
14.9621 10.568
14.9772 10.259
14.9924 10.704
15.0076 10.295
15.0228 10.907
15.0379 10.559
15.0531 10.457
15.0683 10.161
15.0835 10.157
15.0986 10.457
15.1138 10.245
15.1290 10.254
15.1442 10.305
15.1593 10.400
15.1745 10.146
15.1897 10.149
15.2049 10.178
15.2200 10.058
15.2352 10.395
15.2504 10.177
15.2656 10.531
15.2807 10.563
15.2959 10.178
15.3111 10.176
15.3263 10.490
15.3414 10.465
15.3566 10.398
15.3718 10.393
15.3870 10.256
15.4021 10.228
15.4173 10.275
15.4325 10.548
15.4477 10.429
15.4628 10.580
15.4780 10.528
15.4932 10.408
15.5084 10.584
15.5235 10.477
15.5387 10.431
15.5539 10.313
15.5691 9.822
15.5842 10.449
15.5994 10.078
15.6146 10.031
15.6298 10.125
15.6449 9.898
15.6601 9.962
15.6753 10.138
15.6905 10.206
15.7056 10.116
15.7208 10.006
15.7360 9.958
15.7512 9.833
15.7663 9.828
15.7815 10.126
15.7967 10.103
15.8119 10.104
15.8270 10.174
15.8422 9.764
15.8574 9.557
15.8726 9.718
15.8877 9.587
15.9029 9.510
15.9181 9.829
15.9333 10.139
15.9484 9.854
15.9636 9.805
15.9788 9.794
15.9940 9.931
16.0091 9.641
16.0243 9.833
16.0395 9.943
16.0547 9.723
16.0698 9.871
16.0850 9.776
16.1002 9.666
16.1154 9.733
16.1305 9.896
16.1457 10.203
16.1609 9.803
16.1761 9.462
16.1912 9.901
16.2064 9.828
16.2216 9.575
16.2368 10.054
16.2519 10.242
16.2671 9.959
16.2823 10.024
16.2975 9.993
16.3126 9.966
16.3278 10.002
16.3430 10.109
16.3582 10.190
16.3733 10.173
16.3885 10.139
16.4037 10.160
16.4189 9.845
16.4340 9.916
16.4492 10.039
16.4644 10.111
16.4796 9.844
16.4947 9.852
16.5099 9.809
16.5251 9.959
16.5403 10.004
16.5554 9.748
16.5706 9.877
16.5858 10.043
16.6010 9.947
16.6161 9.787
16.6313 9.538
16.6465 9.535
16.6617 9.891
16.6768 10.178
16.6920 10.064
16.7072 10.050
16.7224 10.006
16.7375 10.074
16.7527 10.274
16.7679 10.282
16.7831 9.963
16.7982 9.693
16.8134 9.919
16.8286 10.048
16.8438 9.842
16.8589 9.787
16.8741 9.997
16.8893 9.971
16.9045 9.924
16.9196 10.022
16.9348 9.905
16.9500 9.828
16.9652 9.906
16.9803 10.038
16.9955 9.982
17.0107 10.131
17.0259 10.315
17.0410 10.387
17.0562 10.522
17.0714 10.635
17.0866 10.698
17.1017 10.826
17.1169 11.108
17.1321 11.064
17.1473 11.412
17.1624 11.997
17.1776 12.396
17.1928 13.317
17.2080 14.364
17.2231 15.418
17.2383 16.391
17.2535 17.588
17.2687 18.508
17.2838 18.990
17.2990 18.642
17.3142 17.386
17.3294 16.615
17.3445 16.367
17.3597 16.164
17.3749 15.861
17.3901 15.271
17.4052 14.335
17.4204 13.419
17.4356 12.688
17.4508 12.096
17.4659 11.584
17.4811 11.426
17.4963 11.306
17.5115 10.825
17.5266 10.546
17.5418 10.511
17.5570 10.455
17.5722 10.500
17.5873 10.553
17.6025 10.527
17.6177 10.467
17.6329 10.289
17.6480 10.247
17.6632 10.326
17.6784 10.281
17.6936 10.228
17.7087 10.229
17.7239 10.277
17.7391 10.514
17.7543 10.668
17.7694 10.797
17.7846 10.706
17.7998 10.584
17.8150 10.743
17.8301 10.821
17.8453 10.955
17.8605 10.856
17.8757 10.939
17.8908 10.992
17.9060 11.138
17.9212 11.159
17.9364 11.005
17.9515 10.763
17.9667 10.681
17.9819 10.827
17.9971 10.754
18.0122 10.592
18.0274 10.355
18.0426 10.246
18.0578 10.260
18.0729 10.371
18.0881 10.231
18.1033 10.219
18.1185 10.098
18.1336 10.167
18.1488 10.133
18.1640 9.920
18.1792 9.970
18.1943 10.019
18.2095 10.029
18.2247 9.886
18.2399 10.064
18.2550 10.106
18.2702 9.880
18.2854 9.683
18.3006 10.054
18.3157 10.027
18.3309 9.853
18.3461 9.809
18.3613 9.783
18.3764 9.900
18.3916 9.904
18.4068 9.809
18.4220 9.792
18.4371 9.753
18.4523 9.938
18.4675 9.792
18.4827 9.840
18.4978 9.821
18.5130 9.816
18.5282 9.736
18.5434 9.708
18.5585 9.841
18.5737 9.576
18.5889 9.630
18.6041 9.954
18.6192 9.986
18.6344 9.638
18.6496 9.711
18.6648 9.829
18.6799 9.757
18.6951 9.837
18.7103 9.781
18.7255 9.880
18.7406 9.875
18.7558 10.042
18.7710 9.740
18.7862 9.730
18.8013 9.845
18.8165 9.569
18.8317 9.624
18.8469 9.896
18.8620 9.999
18.8772 9.935
18.8924 9.938
18.9076 10.103
18.9227 10.017
18.9379 9.953
18.9531 10.145
18.9683 10.087
18.9834 9.905
18.9986 10.135
19.0138 10.410
19.0290 10.223
19.0441 9.881
19.0593 9.881
19.0745 10.147
19.0897 10.189
19.1048 10.170
19.1200 10.251
19.1352 10.375
19.1504 10.342
19.1655 10.402
19.1807 10.570
19.1959 10.709
19.2111 10.984
19.2262 10.822
19.2414 10.749
19.2566 10.642
19.2718 10.836
19.2869 10.996
19.3021 10.788
19.3173 10.787
19.3325 11.138
19.3476 11.180
19.3628 11.056
19.3780 11.050
19.3932 11.026
19.4083 11.135
19.4235 11.025
19.4387 11.175
19.4539 11.548
19.4690 11.508
19.4842 11.354
19.4994 11.269
19.5146 11.372
19.5297 11.503
19.5449 11.652
19.5601 11.682
19.5753 11.625
19.5904 11.731
19.6056 11.582
19.6208 11.604
19.6360 11.640
19.6511 11.750
19.6663 11.673
19.6815 11.573
19.6967 11.840
19.7118 11.783
19.7270 11.686
19.7422 11.785
19.7574 11.635
19.7725 11.658
19.7877 11.742
19.8029 11.785
19.8180 11.929
19.8332 12.111
19.8484 12.363
19.8636 12.439
19.8787 12.557
19.8939 12.906
19.9091 13.049
19.9243 13.247
19.9394 13.646
19.9546 13.999
19.9698 14.286
19.9850 14.393
20.0001 14.465
20.0153 14.442
20.0305 14.164
20.0457 14.114
20.0608 13.940
20.0760 13.813
20.0912 13.658
20.1064 13.523
20.1215 13.388
20.1367 13.318
20.1519 13.267
20.1671 12.857
20.1822 12.668
20.1974 12.480
20.2126 12.368
20.2278 12.627
20.2429 12.455
20.2581 11.918
20.2733 11.782
20.2885 11.868
20.3036 11.738
20.3188 11.593
20.3340 11.705
20.3492 11.520
20.3643 11.347
20.3795 11.131
20.3947 11.079
20.4099 11.106
20.4250 11.033
20.4402 10.957
20.4554 10.838
20.4706 10.785
20.4857 10.763
20.5009 10.564
20.5161 10.452
20.5313 10.320
20.5464 10.525
20.5616 10.742
20.5768 10.698
20.5920 10.554
20.6071 10.277
20.6223 10.318
20.6375 10.384
20.6527 10.632
20.6678 10.680
20.6830 10.674
20.6982 10.631
20.7134 10.466
20.7285 10.303
20.7437 10.221
20.7589 10.475
20.7741 10.318
20.7892 10.128
20.8044 10.083
20.8196 10.099
20.8348 9.981
20.8499 10.330
20.8651 10.122
20.8803 10.407
20.8955 10.327
20.9106 10.182
20.9258 10.473
20.9410 10.487
20.9562 10.292
20.9713 10.348
20.9865 10.427
21.0017 10.526
21.0169 10.393
21.0320 10.480
21.0472 10.236
21.0624 10.080
21.0776 10.035
21.0927 10.105
21.1079 9.930
21.1231 9.951
21.1383 9.946
21.1534 9.734
21.1686 9.551
21.1838 10.081
21.1990 9.855
21.2141 9.743
21.2293 9.827
21.2445 9.755
21.2597 9.550
21.2748 10.036
21.2900 9.843
21.3052 9.531
21.3204 9.551
21.3355 9.292
21.3507 9.388
21.3659 9.373
21.3811 9.407
21.3962 9.219
21.4114 9.091
21.4266 9.336
21.4418 9.112
21.4569 9.606
21.4721 9.394
21.4873 9.396
21.5025 9.460
21.5176 8.931
21.5328 9.304
21.5480 9.332
21.5632 9.181
21.5783 9.333
21.5935 9.455
21.6087 9.126
21.6239 9.373
21.6390 9.392
21.6542 9.152
21.6694 9.041
21.6846 9.111
21.6997 9.040
21.7149 9.156
21.7301 8.969
21.7453 8.835
21.7604 8.855
21.7756 9.000
21.7908 9.102
21.8060 9.155
21.8211 9.049
21.8363 9.140
21.8515 9.185
21.8667 8.966
21.8818 8.887
21.8970 8.970
21.9122 9.022
21.9274 8.934
21.9425 8.895
21.9577 8.878
21.9729 8.976
21.9881 9.015
22.0032 8.981
22.0184 8.793
22.0336 8.766
22.0488 8.880
22.0639 8.820
22.0791 8.738
22.0943 8.915
22.1095 8.993
22.1246 8.700
22.1398 8.678
22.1550 8.606
22.1702 8.489
22.1853 8.461
22.2005 8.593
22.2157 8.685
22.2309 8.556
22.2460 8.694
22.2612 8.864
22.2764 8.539
22.2916 8.633
22.3067 8.471
22.3219 8.460
22.3371 8.812
22.3523 8.665
22.3674 8.517
22.3826 8.381
22.3978 8.501
22.4130 8.713
22.4281 8.388
22.4433 8.464
22.4585 8.638
22.4737 8.271
22.4888 8.604
22.5040 8.624
22.5192 8.592
22.5344 8.402
22.5495 8.341
22.5647 8.470
22.5799 8.435
22.5951 8.625
22.6102 8.560
22.6254 8.522
22.6406 8.600
22.6558 8.496
22.6709 8.472
22.6861 8.453
22.7013 8.216
22.7165 8.143
22.7316 6.353
