'Id: "" Comment: "" Operator: "Lab Manager" Anode: "Mo" Scantype: "Still (Eiger2R_500K (1D mode))" TimePerStep: "300" X: "11.8" Y: "9.4" Z: "11.284" 
7.2532 19.077
7.2684 18.440
7.2836 18.668
7.2987 19.103
7.3139 18.737
7.3291 19.174
7.3443 18.845
7.3594 18.867
7.3746 19.261
7.3898 19.166
7.4050 19.200
7.4201 19.264
7.4353 19.470
7.4505 19.368
7.4657 19.183
7.4808 19.797
7.4960 19.865
7.5112 19.597
7.5264 19.822
7.5415 19.510
7.5567 19.859
7.5719 19.622
7.5871 19.468
7.6022 19.782
7.6174 19.873
7.6326 19.707
7.6478 19.895
7.6629 19.902
7.6781 19.914
7.6933 20.074
7.7085 20.206
7.7236 20.173
7.7388 20.480
7.7540 20.568
7.7692 20.172
7.7843 20.320
7.7995 20.280
7.8147 20.504
7.8299 20.710
7.8450 20.662
7.8602 20.930
7.8754 20.933
7.8905 20.822
7.9057 20.612
7.9209 20.792
7.9361 20.832
7.9512 20.850
7.9664 20.865
7.9816 20.777
7.9968 20.753
8.0119 21.028
8.0271 21.053
8.0423 20.988
8.0575 21.135
8.0726 21.291
8.0878 21.490
8.1030 21.493
8.1182 21.031
8.1333 21.264
8.1485 21.373
8.1637 21.307
8.1789 20.999
8.1940 21.462
8.2092 21.541
8.2244 21.646
8.2396 21.381
8.2547 21.587
8.2699 21.650
8.2851 21.759
8.3003 21.591
8.3154 21.770
8.3306 21.440
8.3458 21.286
8.3610 21.498
8.3761 21.560
8.3913 21.791
8.4065 21.684
8.4217 21.677
8.4368 21.696
8.4520 21.809
8.4672 21.667
8.4824 22.173
8.4975 21.708
8.5127 21.344
8.5279 22.010
8.5431 22.240
8.5582 21.898
8.5734 22.119
8.5886 21.713
8.6038 22.477
8.6189 22.080
8.6341 22.597
8.6493 21.778
8.6645 22.323
8.6796 22.310
8.6948 22.405
8.7100 22.540
8.7252 22.034
8.7403 22.443
8.7555 22.768
8.7707 22.034
8.7859 22.568
8.8010 22.574
8.8162 22.333
8.8314 22.549
8.8466 22.394
8.8617 22.500
8.8769 22.591
8.8921 22.301
8.9073 22.592
8.9224 22.617
8.9376 22.809
8.9528 22.480
8.9680 22.702
8.9831 22.258
8.9983 22.217
9.0135 22.573
9.0287 22.348
9.0438 22.606
9.0590 22.847
9.0742 22.832
9.0894 22.980
9.1045 22.910
9.1197 22.951
9.1349 22.556
9.1501 22.490
9.1652 22.526
9.1804 23.003
9.1956 22.797
9.2108 22.597
9.2259 22.774
9.2411 22.901
9.2563 22.894
9.2715 22.904
9.2866 22.676
9.3018 22.707
9.3170 22.590
9.3322 22.818
9.3473 22.826
9.3625 22.857
9.3777 22.806
9.3929 22.949
9.4080 23.145
9.4232 22.946
9.4384 23.004
9.4536 23.023
9.4687 23.332
9.4839 23.125
9.4991 23.135
9.5143 23.445
9.5294 23.256
9.5446 22.899
9.5598 23.212
9.5750 23.174
9.5901 23.108
9.6053 23.151
9.6205 23.243
9.6357 23.355
9.6508 23.096
9.6660 23.168
9.6812 23.640
9.6964 23.621
9.7115 23.656
9.7267 24.161
9.7419 23.831
9.7571 23.620
9.7722 23.792
9.7874 23.639
9.8026 23.464
9.8178 23.285
9.8329 23.339
9.8481 23.279
9.8633 23.023
9.8785 23.188
9.8936 23.219
9.9088 23.209
9.9240 23.090
9.9392 23.025
9.9543 23.009
9.9695 23.043
9.9847 23.139
9.9999 23.191
10.0150 22.991
10.0302 22.660
10.0454 23.032
10.0606 23.202
10.0757 23.496
10.0909 23.382
10.1061 23.192
10.1213 23.561
10.1364 23.690
10.1516 23.551
10.1668 23.217
10.1820 23.050
10.1971 23.228
10.2123 23.518
10.2275 23.344
10.2427 23.221
10.2578 22.787
10.2730 22.727
10.2882 22.541
10.3034 22.594
10.3185 22.598
10.3337 22.574
10.3489 22.792
10.3641 22.473
10.3792 22.720
10.3944 22.679
10.4096 22.825
10.4248 22.760
10.4399 22.708
10.4551 22.648
10.4703 22.437
10.4855 22.587
10.5006 22.560
10.5158 22.613
10.5310 22.842
10.5462 22.683
10.5613 22.619
10.5765 22.717
10.5917 22.437
10.6069 22.675
10.6220 22.490
10.6372 22.232
10.6524 22.722
10.6676 22.911
10.6827 22.742
10.6979 22.613
10.7131 22.573
10.7283 22.175
10.7434 21.962
10.7586 22.105
10.7738 22.118
10.7890 22.205
10.8041 21.980
10.8193 21.923
10.8345 22.152
10.8497 21.882
10.8648 21.829
10.8800 21.993
10.8952 21.889
10.9104 22.020
10.9255 21.766
10.9407 21.978
10.9559 22.095
10.9711 21.731
10.9862 21.886
11.0014 21.869
11.0166 22.083
11.0318 22.283
11.0469 21.668
11.0621 21.425
11.0773 21.694
11.0925 21.797
11.1076 21.805
11.1228 21.529
11.1380 21.767
11.1532 21.567
11.1683 21.530
11.1835 21.494
11.1987 21.508
11.2139 21.491
11.2290 21.821
11.2442 21.751
11.2594 21.512
11.2746 21.273
11.2897 21.405
11.3049 21.629
11.3201 21.526
11.3353 21.386
11.3504 21.340
11.3656 21.295
11.3808 21.296
11.3960 21.552
11.4111 21.253
11.4263 21.097
11.4415 20.813
11.4567 21.133
11.4718 21.178
11.4870 20.893
11.5022 20.850
11.5174 21.075
11.5325 20.948
11.5477 20.771
11.5629 20.437
11.5781 20.884
11.5932 20.850
11.6084 20.820
11.6236 20.239
11.6388 20.127
11.6539 20.400
11.6691 20.491
11.6843 20.598
11.6995 20.385
11.7146 20.286
11.7298 20.232
11.7450 20.237
11.7602 19.811
11.7753 20.109
11.7905 20.072
11.8057 19.937
11.8209 20.127
11.8360 19.924
11.8512 19.722
11.8664 19.719
11.8816 19.895
11.8967 19.770
11.9119 19.490
11.9271 19.589
11.9423 19.183
11.9574 19.034
11.9726 19.307
11.9878 19.367
12.0030 19.338
12.0181 18.941
12.0333 18.963
12.0485 19.073
12.0637 18.585
12.0788 18.606
12.0940 18.819
12.1092 18.586
12.1244 18.472
12.1395 18.842
12.1547 18.753
12.1699 18.387
12.1851 18.110
12.2002 18.061
12.2154 18.231
12.2306 18.324
12.2458 17.875
12.2609 17.713
12.2761 17.604
12.2913 17.420
12.3065 17.234
12.3216 17.492
12.3368 17.491
12.3520 17.359
12.3672 17.230
12.3823 17.211
12.3975 17.079
12.4127 16.993
12.4279 17.340
12.4430 17.221
12.4582 16.958
12.4734 16.974
12.4886 16.858
12.5037 16.549
12.5189 16.637
12.5341 16.523
12.5493 16.308
12.5644 15.903
12.5796 16.265
12.5948 16.203
12.6100 15.845
12.6251 15.845
12.6403 15.810
12.6555 16.107
12.6707 16.000
12.6858 15.480
12.7010 15.608
12.7162 15.672
12.7314 15.293
12.7465 15.417
12.7617 15.430
12.7769 15.336
12.7921 15.173
12.8072 14.725
12.8224 14.703
12.8376 15.247
12.8528 15.033
12.8679 14.893
12.8831 14.767
12.8983 14.596
12.9135 14.639
12.9286 14.486
12.9438 14.325
12.9590 14.348
12.9742 14.334
12.9893 13.909
13.0045 14.022
13.0197 14.161
13.0349 14.070
13.0500 14.324
13.0652 14.209
13.0804 13.794
13.0956 13.788
13.1107 13.892
13.1259 13.523
13.1411 13.349
13.1563 13.621
13.1714 13.682
13.1866 13.474
13.2018 13.349
13.2170 13.307
13.2321 13.185
13.2473 13.205
13.2625 13.204
13.2777 13.296
13.2928 13.448
13.3080 13.110
13.3232 12.855
13.3384 12.837
13.3535 12.774
13.3687 12.810
13.3839 12.980
13.3991 13.121
13.4142 12.923
13.4294 12.661
13.4446 12.734
13.4598 12.586
13.4749 12.409
13.4901 12.634
13.5053 12.402
13.5205 12.266
13.5356 12.478
13.5508 12.582
13.5660 12.307
13.5812 12.171
13.5963 12.224
13.6115 12.036
13.6267 12.113
13.6419 11.966
13.6570 11.885
13.6722 11.939
13.6874 12.152
13.7026 11.891
13.7177 11.715
13.7329 12.129
13.7481 12.270
13.7633 12.260
13.7784 12.055
13.7936 12.085
13.8088 12.258
13.8239 12.262
13.8391 12.168
13.8543 12.097
13.8695 12.157
13.8846 12.358
13.8998 11.998
13.9150 11.798
13.9302 11.897
13.9453 11.889
13.9605 12.050
13.9757 11.922
13.9909 11.716
14.0060 11.643
14.0212 11.512
14.0364 11.738
14.0516 11.576
14.0667 11.294
14.0819 11.165
14.0971 11.387
14.1123 11.271
14.1274 11.632
14.1426 11.648
14.1578 11.688
14.1730 11.263
14.1881 11.361
14.2033 11.470
14.2185 11.464
14.2337 11.739
14.2488 11.476
14.2640 11.553
14.2792 11.956
14.2944 11.752
14.3095 12.116
14.3247 11.756
14.3399 12.279
14.3551 12.522
14.3702 12.763
14.3854 13.159
14.4006 13.187
14.4158 13.302
14.4309 13.251
14.4461 13.139
14.4613 12.638
14.4765 12.709
14.4916 12.501
14.5068 12.282
14.5220 11.894
14.5372 11.546
14.5523 11.282
14.5675 11.333
14.5827 11.093
14.5979 10.953
14.6130 10.899
14.6282 10.751
14.6434 10.846
14.6586 10.718
14.6737 10.585
14.6889 10.607
14.7041 10.847
14.7193 10.527
14.7344 10.814
14.7496 10.499
14.7648 10.684
14.7800 10.689
14.7951 10.659
14.8103 10.537
14.8255 10.588
14.8407 10.407
14.8558 10.179
14.8710 10.427
14.8862 10.219
14.9014 10.680
14.9165 10.929
14.9317 10.618
14.9469 10.352
14.9621 10.710
14.9772 10.298
14.9924 10.154
15.0076 10.360
15.0228 10.464
15.0379 10.291
15.0531 10.496
15.0683 10.190
15.0835 10.253
15.0986 10.114
15.1138 10.252
15.1290 10.338
15.1442 10.419
15.1593 9.767
15.1745 9.997
15.1897 10.275
15.2049 10.206
15.2200 10.155
15.2352 10.288
15.2504 10.124
15.2656 10.159
15.2807 10.057
15.2959 10.282
15.3111 10.002
15.3263 10.374
15.3414 10.043
15.3566 10.138
15.3718 10.190
15.3870 9.925
15.4021 10.214
15.4173 10.409
15.4325 10.132
15.4477 10.330
15.4628 10.114
15.4780 10.034
15.4932 10.164
15.5084 9.950
15.5235 9.809
15.5387 9.826
15.5539 10.158
15.5691 9.591
15.5842 10.018
15.5994 10.037
15.6146 9.909
15.6298 9.583
15.6449 9.815
15.6601 9.715
15.6753 9.913
15.6905 9.811
15.7056 9.579
15.7208 9.890
15.7360 9.798
15.7512 9.687
15.7663 9.541
15.7815 9.419
15.7967 9.650
15.8119 9.754
15.8270 9.822
15.8422 9.493
15.8574 9.455
15.8726 9.565
15.8877 9.482
15.9029 9.458
15.9181 9.531
15.9333 9.458
15.9484 9.677
15.9636 9.718
15.9788 9.474
15.9940 9.543
16.0091 9.755
16.0243 9.654
16.0395 9.570
16.0547 9.411
16.0698 9.424
16.0850 9.550
16.1002 9.422
16.1154 9.427
16.1305 9.513
16.1457 9.502
16.1609 9.446
16.1761 9.650
16.1912 9.632
16.2064 9.741
16.2216 9.885
16.2368 9.876
16.2519 9.628
16.2671 9.618
16.2823 9.684
16.2975 9.659
16.3126 9.849
16.3278 10.000
16.3430 9.731
16.3582 9.786
16.3733 9.933
16.3885 9.982
16.4037 9.838
16.4189 9.796
16.4340 9.916
16.4492 9.776
16.4644 9.520
16.4796 9.535
16.4947 9.615
16.5099 9.597
16.5251 9.539
16.5403 9.772
16.5554 9.623
16.5706 9.461
16.5858 9.446
16.6010 9.589
16.6161 9.703
16.6313 9.472
16.6465 9.616
16.6617 9.564
16.6768 9.712
16.6920 9.785
16.7072 9.785
16.7224 9.768
16.7375 9.725
16.7527 9.845
16.7679 10.063
16.7831 9.901
16.7982 9.851
16.8134 10.037
16.8286 9.919
16.8438 9.920
16.8589 9.723
16.8741 9.689
16.8893 9.559
16.9045 9.561
16.9196 9.674
16.9348 9.543
16.9500 9.724
16.9652 9.676
16.9803 9.625
16.9955 9.768
17.0107 9.954
17.0259 10.099
17.0410 9.921
17.0562 9.955
17.0714 10.235
17.0866 10.250
17.1017 10.519
17.1169 10.704
17.1321 10.916
17.1473 11.272
17.1624 11.676
17.1776 12.318
17.1928 12.815
17.2080 13.556
17.2231 14.686
17.2383 16.015
17.2535 17.357
17.2687 18.298
17.2838 18.448
17.2990 17.786
17.3142 16.803
17.3294 16.089
17.3445 15.714
17.3597 15.645
17.3749 15.814
17.3901 15.108
17.4052 14.006
17.4204 13.327
17.4356 12.354
17.4508 11.681
17.4659 11.466
17.4811 11.202
17.4963 11.045
17.5115 11.037
17.5266 10.922
17.5418 10.826
17.5570 10.947
17.5722 10.994
17.5873 10.863
17.6025 10.908
17.6177 11.004
17.6329 10.833
17.6480 11.047
17.6632 11.505
17.6784 11.826
17.6936 12.019
17.7087 12.265
17.7239 12.170
17.7391 11.807
17.7543 11.491
17.7694 11.295
17.7846 11.295
17.7998 11.406
17.8150 11.267
17.8301 10.886
17.8453 10.586
17.8605 10.442
17.8757 10.402
17.8908 10.365
17.9060 10.333
17.9212 10.433
17.9364 10.279
17.9515 10.065
17.9667 10.261
17.9819 10.354
17.9971 10.190
18.0122 10.029
18.0274 9.932
18.0426 9.972
18.0578 10.395
18.0729 10.212
18.0881 10.132
18.1033 10.051
18.1185 10.086
18.1336 10.182
18.1488 9.998
18.1640 9.900
18.1792 9.581
18.1943 9.464
18.2095 9.777
18.2247 9.904
18.2399 9.640
18.2550 9.824
18.2702 9.900
18.2854 9.749
18.3006 9.673
18.3157 9.760
18.3309 9.638
18.3461 9.688
18.3613 9.745
18.3764 9.800
18.3916 9.704
18.4068 9.802
18.4220 9.808
18.4371 9.639
18.4523 9.515
18.4675 9.786
18.4827 9.799
18.4978 9.766
18.5130 9.714
18.5282 9.628
18.5434 9.615
18.5585 9.563
18.5737 9.506
18.5889 9.473
18.6041 9.674
18.6192 9.777
18.6344 9.949
18.6496 9.846
18.6648 9.784
18.6799 9.728
18.6951 9.680
18.7103 9.660
18.7255 9.352
18.7406 9.500
18.7558 9.743
18.7710 9.767
18.7862 9.908
18.8013 9.830
18.8165 9.697
18.8317 9.816
18.8469 9.870
18.8620 9.702
18.8772 9.743
18.8924 9.830
18.9076 9.900
18.9227 10.002
18.9379 9.961
18.9531 9.852
18.9683 9.860
18.9834 9.952
18.9986 10.098
19.0138 10.076
19.0290 9.827
19.0441 9.781
19.0593 9.960
19.0745 10.250
19.0897 10.307
19.1048 10.355
19.1200 10.423
19.1352 10.230
19.1504 10.383
19.1655 10.660
19.1807 10.613
19.1959 10.564
19.2111 10.550
19.2262 10.787
19.2414 10.923
19.2566 10.757
19.2718 10.694
19.2869 10.848
19.3021 10.928
19.3173 11.048
19.3325 11.034
19.3476 10.687
19.3628 10.895
19.3780 11.305
19.3932 11.166
19.4083 10.976
19.4235 11.242
19.4387 11.099
19.4539 11.093
19.4690 11.133
19.4842 11.149
19.4994 11.328
19.5146 11.251
19.5297 11.326
19.5449 11.178
19.5601 11.100
19.5753 11.460
19.5904 11.571
19.6056 11.668
19.6208 11.601
19.6360 11.717
19.6511 11.737
19.6663 11.734
19.6815 11.706
19.6967 11.476
19.7118 11.645
19.7270 11.870
19.7422 11.776
19.7574 11.582
19.7725 11.734
19.7877 11.774
19.8029 11.786
19.8180 12.201
19.8332 12.219
19.8484 12.037
19.8636 12.311
19.8787 12.663
19.8939 12.938
19.9091 13.334
19.9243 13.198
19.9394 13.536
19.9546 14.178
19.9698 14.259
19.9850 14.352
20.0001 14.339
20.0153 14.130
20.0305 13.848
20.0457 13.647
20.0608 13.691
20.0760 13.773
20.0912 13.781
20.1064 13.686
20.1215 13.482
20.1367 13.407
20.1519 13.094
20.1671 12.669
20.1822 12.615
20.1974 12.756
20.2126 12.790
20.2278 12.833
20.2429 12.588
20.2581 12.563
20.2733 12.383
20.2885 11.856
20.3036 11.792
20.3188 11.832
20.3340 11.983
20.3492 12.156
20.3643 12.119
20.3795 11.875
20.3947 11.963
20.4099 11.577
20.4250 11.457
20.4402 11.947
20.4554 12.235
20.4706 11.990
20.4857 12.169
20.5009 11.908
20.5161 11.793
20.5313 11.543
20.5464 11.683
20.5616 11.572
20.5768 11.578
20.5920 11.384
20.6071 11.381
20.6223 11.205
20.6375 10.998
20.6527 11.084
20.6678 10.704
20.6830 10.439
20.6982 10.702
20.7134 10.613
20.7285 10.512
20.7437 10.361
20.7589 10.383
20.7741 10.527
20.7892 10.714
20.8044 10.314
20.8196 10.112
20.8348 10.142
20.8499 10.563
20.8651 10.472
20.8803 10.181
20.8955 10.026
20.9106 10.217
20.9258 9.789
20.9410 9.959
20.9562 10.069
20.9713 10.035
20.9865 10.037
21.0017 10.228
21.0169 10.153
21.0320 10.078
21.0472 9.849
21.0624 9.664
21.0776 10.051
21.0927 9.973
21.1079 9.847
21.1231 9.954
21.1383 9.992
21.1534 9.972
21.1686 10.029
21.1838 9.972
21.1990 9.462
21.2141 9.843
21.2293 9.832
21.2445 9.645
21.2597 9.713
21.2748 9.741
21.2900 9.496
21.3052 9.395
21.3204 9.730
21.3355 9.675
21.3507 9.128
21.3659 9.464
21.3811 9.254
21.3962 9.574
21.4114 9.247
21.4266 9.415
21.4418 9.078
21.4569 9.313
21.4721 9.564
21.4873 9.437
21.5025 9.342
21.5176 9.359
21.5328 9.220
21.5480 9.142
21.5632 8.970
21.5783 9.324
21.5935 9.161
21.6087 8.995
21.6239 9.056
21.6390 9.239
21.6542 8.957
21.6694 9.070
21.6846 9.171
21.6997 8.904
21.7149 9.113
21.7301 9.138
21.7453 9.196
21.7604 9.112
21.7756 9.039
21.7908 9.183
21.8060 9.253
21.8211 9.035
21.8363 8.938
21.8515 9.159
21.8667 9.158
21.8818 8.990
21.8970 8.962
21.9122 9.032
21.9274 8.768
21.9425 8.727
21.9577 8.833
21.9729 8.665
21.9881 8.697
22.0032 8.894
22.0184 8.765
22.0336 8.760
22.0488 8.820
22.0639 8.738
22.0791 8.816
22.0943 8.739
22.1095 8.621
22.1246 8.537
22.1398 8.562
22.1550 8.465
22.1702 8.603
22.1853 8.562
22.2005 8.843
22.2157 8.706
22.2309 8.414
22.2460 8.623
22.2612 8.694
22.2764 8.527
22.2916 8.338
22.3067 8.476
22.3219 8.434
22.3371 8.571
22.3523 8.728
22.3674 8.729
22.3826 8.579
22.3978 8.478
22.4130 8.483
22.4281 8.393
22.4433 8.383
22.4585 8.369
22.4737 8.373
22.4888 8.457
22.5040 8.675
22.5192 8.442
22.5344 8.557
22.5495 8.436
22.5647 8.296
22.5799 8.174
22.5951 8.436
22.6102 8.380
22.6254 8.101
22.6406 8.332
22.6558 8.259
22.6709 8.498
22.6861 8.191
22.7013 7.953
22.7165 7.891
22.7316 6.299
