'Id: "" Comment: "" Operator: "Lab Manager" Anode: "Mo" Scantype: "Still (Eiger2R_500K (1D mode))" TimePerStep: "300" X: "11.8" Y: "9.4" Z: "11.284" 
7.2532 18.664
7.2684 18.662
7.2836 19.165
7.2987 18.962
7.3139 19.024
7.3291 18.984
7.3443 18.998
7.3594 18.627
7.3746 19.103
7.3898 18.981
7.4050 19.360
7.4201 19.205
7.4353 19.461
7.4505 19.729
7.4657 19.252
7.4808 19.232
7.4960 19.270
7.5112 19.433
7.5264 19.683
7.5415 19.816
7.5567 19.900
7.5719 20.107
7.5871 20.136
7.6022 19.922
7.6174 20.210
7.6326 20.191
7.6478 20.297
7.6629 20.105
7.6781 20.380
7.6933 20.457
7.7085 20.254
7.7236 20.563
7.7388 20.673
7.7540 20.875
7.7692 20.530
7.7843 20.555
7.7995 20.696
7.8147 20.538
7.8299 20.657
7.8450 20.783
7.8602 21.013
7.8754 21.214
7.8905 21.388
7.9057 20.968
7.9209 20.833
7.9361 21.301
7.9512 21.277
7.9664 21.247
7.9816 21.063
7.9968 21.088
8.0119 21.291
8.0271 21.135
8.0423 21.232
8.0575 21.191
8.0726 21.283
8.0878 21.565
8.1030 21.259
8.1182 21.376
8.1333 21.457
8.1485 21.141
8.1637 21.292
8.1789 21.318
8.1940 21.638
8.2092 21.585
8.2244 21.927
8.2396 21.873
8.2547 21.963
8.2699 21.896
8.2851 22.316
8.3003 21.518
8.3154 22.115
8.3306 21.904
8.3458 21.595
8.3610 21.684
8.3761 22.056
8.3913 22.082
8.4065 22.259
8.4217 22.185
8.4368 21.993
8.4520 22.167
8.4672 22.251
8.4824 22.009
8.4975 21.842
8.5127 22.579
8.5279 22.185
8.5431 22.417
8.5582 21.989
8.5734 22.126
8.5886 22.382
8.6038 22.538
8.6189 22.545
8.6341 22.718
8.6493 22.438
8.6645 22.260
8.6796 22.306
8.6948 22.527
8.7100 22.579
8.7252 23.151
8.7403 22.798
8.7555 22.854
8.7707 22.841
8.7859 22.942
8.8010 22.906
8.8162 22.691
8.8314 22.783
8.8466 22.353
8.8617 22.668
8.8769 22.546
8.8921 22.885
8.9073 22.916
8.9224 22.811
8.9376 22.791
8.9528 22.486
8.9680 22.945
8.9831 22.894
8.9983 22.550
9.0135 23.032
9.0287 22.903
9.0438 22.733
9.0590 22.975
9.0742 22.444
9.0894 22.804
9.1045 22.988
9.1197 23.008
9.1349 22.861
9.1501 22.857
9.1652 22.936
9.1804 22.785
9.1956 23.019
9.2108 23.015
9.2259 22.933
9.2411 22.983
9.2563 22.832
9.2715 23.176
9.2866 23.137
9.3018 23.101
9.3170 23.117
9.3322 23.165
9.3473 23.165
9.3625 22.802
9.3777 22.975
9.3929 23.258
9.4080 23.203
9.4232 23.003
9.4384 23.593
9.4536 23.316
9.4687 22.976
9.4839 23.232
9.4991 23.304
9.5143 23.624
9.5294 23.319
9.5446 23.157
9.5598 23.055
9.5750 23.199
9.5901 23.641
9.6053 23.757
9.6205 23.604
9.6357 23.855
9.6508 24.016
9.6660 23.764
9.6812 23.622
9.6964 23.684
9.7115 23.965
9.7267 24.025
9.7419 24.278
9.7571 24.098
9.7722 23.890
9.7874 23.885
9.8026 23.902
9.8178 23.852
9.8329 23.518
9.8481 23.329
9.8633 23.347
9.8785 23.281
9.8936 23.147
9.9088 23.147
9.9240 23.132
9.9392 22.943
9.9543 23.063
9.9695 23.234
9.9847 23.372
9.9999 23.449
10.0150 23.545
10.0302 23.529
10.0454 23.601
10.0606 23.460
10.0757 23.200
10.0909 23.394
10.1061 23.770
10.1213 23.642
10.1364 23.116
10.1516 23.095
10.1668 23.234
10.1820 23.329
10.1971 23.780
10.2123 23.762
10.2275 23.781
10.2427 23.646
10.2578 23.980
10.2730 23.907
10.2882 23.668
10.3034 23.622
10.3185 23.518
10.3337 23.486
10.3489 23.359
10.3641 22.976
10.3792 22.607
10.3944 22.559
10.4096 23.029
10.4248 23.090
10.4399 23.110
10.4551 22.965
10.4703 22.961
10.4855 22.646
10.5006 22.940
10.5158 22.877
10.5310 22.693
10.5462 22.766
10.5613 22.600
10.5765 22.803
10.5917 23.234
10.6069 22.664
10.6220 22.653
10.6372 22.842
10.6524 22.694
10.6676 22.600
10.6827 22.745
10.6979 22.507
10.7131 22.672
10.7283 22.522
10.7434 22.304
10.7586 22.165
10.7738 22.355
10.7890 22.546
10.8041 22.274
10.8193 22.130
10.8345 22.335
10.8497 22.610
10.8648 22.557
10.8800 22.554
10.8952 22.534
10.9104 22.456
10.9255 22.287
10.9407 22.439
10.9559 22.160
10.9711 22.343
10.9862 22.276
11.0014 22.215
11.0166 22.307
11.0318 22.423
11.0469 22.087
11.0621 22.236
11.0773 22.213
11.0925 21.706
11.1076 21.475
11.1228 21.676
11.1380 21.705
11.1532 22.066
11.1683 22.315
11.1835 22.431
11.1987 22.093
11.2139 22.209
11.2290 22.045
11.2442 21.550
11.2594 22.097
11.2746 22.189
11.2897 21.724
11.3049 21.762
11.3201 21.706
11.3353 21.486
11.3504 21.545
11.3656 21.248
11.3808 21.289
11.3960 21.156
11.4111 21.247
11.4263 21.182
11.4415 21.095
11.4567 21.392
11.4718 21.612
11.4870 21.388
11.5022 21.043
11.5174 20.773
11.5325 20.932
11.5477 21.066
11.5629 21.259
11.5781 21.294
11.5932 21.146
11.6084 20.832
11.6236 20.866
11.6388 20.502
11.6539 20.748
11.6691 20.713
11.6843 20.927
11.6995 20.712
11.7146 20.576
11.7298 20.290
11.7450 20.543
11.7602 20.826
11.7753 20.290
11.7905 19.931
11.8057 20.169
11.8209 20.117
11.8360 19.939
11.8512 20.035
11.8664 20.145
11.8816 19.913
11.8967 19.574
11.9119 19.528
11.9271 19.621
11.9423 19.694
11.9574 19.456
11.9726 19.671
11.9878 19.756
12.0030 19.445
12.0181 19.129
12.0333 19.162
12.0485 19.170
12.0637 18.936
12.0788 18.758
12.0940 18.944
12.1092 18.946
12.1244 18.978
12.1395 18.973
12.1547 18.590
12.1699 18.310
12.1851 18.247
12.2002 18.438
12.2154 18.457
12.2306 18.353
12.2458 18.096
12.2609 18.169
12.2761 17.990
12.2913 17.785
12.3065 17.778
12.3216 17.741
12.3368 17.595
12.3520 17.513
12.3672 17.605
12.3823 17.702
12.3975 17.402
12.4127 17.277
12.4279 17.151
12.4430 17.455
12.4582 17.165
12.4734 16.871
12.4886 17.018
12.5037 16.965
12.5189 16.818
12.5341 16.755
12.5493 16.863
12.5644 16.635
12.5796 16.417
12.5948 16.356
12.6100 16.512
12.6251 16.208
12.6403 16.119
12.6555 16.076
12.6707 15.774
12.6858 15.694
12.7010 15.564
12.7162 15.698
12.7314 15.857
12.7465 15.648
12.7617 15.494
12.7769 15.334
12.7921 15.631
12.8072 15.513
12.8224 15.314
12.8376 15.544
12.8528 15.181
12.8679 14.862
12.8831 14.885
12.8983 14.901
12.9135 14.572
12.9286 14.439
12.9438 14.642
12.9590 14.657
12.9742 14.647
12.9893 14.782
13.0045 14.529
13.0197 14.380
13.0349 14.388
13.0500 14.333
13.0652 14.412
13.0804 14.158
13.0956 14.042
13.1107 14.060
13.1259 14.038
13.1411 13.856
13.1563 13.613
13.1714 13.833
13.1866 13.813
13.2018 13.707
13.2170 13.715
13.2321 13.495
13.2473 13.208
13.2625 13.133
13.2777 13.356
13.2928 13.671
13.3080 13.673
13.3232 13.292
13.3384 13.155
13.3535 13.136
13.3687 13.157
13.3839 13.189
13.3991 13.061
13.4142 12.820
13.4294 12.886
13.4446 13.188
13.4598 13.001
13.4749 12.569
13.4901 12.679
13.5053 12.785
13.5205 12.695
13.5356 12.354
13.5508 12.399
13.5660 12.448
13.5812 12.368
13.5963 12.325
13.6115 12.428
13.6267 12.374
13.6419 12.293
13.6570 12.056
13.6722 12.136
13.6874 12.260
13.7026 12.241
13.7177 12.307
13.7329 12.204
13.7481 12.097
13.7633 12.026
13.7784 12.314
13.7936 12.605
13.8088 12.310
13.8239 12.405
13.8391 12.310
13.8543 12.205
13.8695 12.313
13.8846 12.239
13.8998 12.144
13.9150 12.100
13.9302 12.095
13.9453 11.876
13.9605 11.922
13.9757 11.942
13.9909 11.868
14.0060 11.742
14.0212 11.688
14.0364 11.531
14.0516 11.349
14.0667 11.589
14.0819 11.588
14.0971 11.412
14.1123 11.442
14.1274 11.539
14.1426 11.509
14.1578 11.391
14.1730 11.520
14.1881 11.485
14.2033 11.597
14.2185 11.830
14.2337 11.768
14.2488 12.172
14.2640 11.866
14.2792 12.166
14.2944 11.729
14.3095 12.001
14.3247 12.005
14.3399 12.032
14.3551 12.329
14.3702 12.560
14.3854 12.623
14.4006 12.720
14.4158 12.359
14.4309 12.339
14.4461 12.548
14.4613 12.346
14.4765 12.078
14.4916 11.878
14.5068 11.684
14.5220 11.759
14.5372 11.570
14.5523 11.195
14.5675 11.277
14.5827 11.562
14.5979 11.304
14.6130 11.171
14.6282 11.045
14.6434 10.720
14.6586 10.926
14.6737 11.053
14.6889 10.999
14.7041 10.807
14.7193 10.837
14.7344 11.038
14.7496 11.003
14.7648 10.948
14.7800 10.648
14.7951 10.841
14.8103 10.885
14.8255 10.730
14.8407 10.803
14.8558 10.681
14.8710 10.664
14.8862 10.773
14.9014 10.456
14.9165 11.110
14.9317 11.042
14.9469 10.784
14.9621 10.803
14.9772 10.438
14.9924 10.301
15.0076 10.636
15.0228 10.744
15.0379 10.673
15.0531 10.619
15.0683 10.599
15.0835 10.977
15.0986 10.550
15.1138 10.386
15.1290 10.744
15.1442 10.609
15.1593 10.649
15.1745 10.224
15.1897 10.475
15.2049 10.538
15.2200 10.475
15.2352 10.175
15.2504 10.317
15.2656 10.399
15.2807 10.268
15.2959 10.058
15.3111 10.181
15.3263 10.116
15.3414 10.205
15.3566 10.400
15.3718 10.631
15.3870 10.487
15.4021 10.604
15.4173 10.908
15.4325 10.699
15.4477 10.420
15.4628 10.721
15.4780 10.521
15.4932 10.321
15.5084 10.276
15.5235 10.574
15.5387 10.648
15.5539 10.249
15.5691 10.514
15.5842 10.338
15.5994 10.280
15.6146 10.286
15.6298 9.961
15.6449 9.908
15.6601 10.140
15.6753 10.154
15.6905 9.726
15.7056 10.120
15.7208 9.911
15.7360 10.153
15.7512 9.815
15.7663 9.634
15.7815 9.754
15.7967 9.698
15.8119 10.086
15.8270 10.104
15.8422 9.965
15.8574 9.900
15.8726 10.029
15.8877 9.878
15.9029 9.877
15.9181 9.751
15.9333 9.793
15.9484 9.929
15.9636 9.927
15.9788 10.151
15.9940 9.877
16.0091 9.641
16.0243 9.760
16.0395 9.641
16.0547 9.578
16.0698 9.723
16.0850 9.597
16.1002 9.703
16.1154 9.892
16.1305 9.754
16.1457 9.909
16.1609 9.736
16.1761 9.558
16.1912 9.718
16.2064 9.712
16.2216 9.724
16.2368 9.741
16.2519 9.933
16.2671 9.981
16.2823 9.881
16.2975 10.104
16.3126 10.051
16.3278 10.022
16.3430 9.807
16.3582 10.037
16.3733 9.990
16.3885 10.056
16.4037 10.051
16.4189 10.191
16.4340 10.178
16.4492 9.918
16.4644 10.064
16.4796 10.098
16.4947 9.876
16.5099 9.952
16.5251 9.685
16.5403 9.861
16.5554 9.759
16.5706 9.858
16.5858 10.001
16.6010 9.860
16.6161 9.684
16.6313 9.834
16.6465 9.684
16.6617 9.736
16.6768 9.911
16.6920 9.893
16.7072 9.941
16.7224 9.904
16.7375 10.076
16.7527 10.184
16.7679 10.158
16.7831 10.047
16.7982 10.049
16.8134 10.076
16.8286 9.914
16.8438 9.837
16.8589 10.015
16.8741 10.029
16.8893 9.835
16.9045 9.938
16.9196 9.833
16.9348 9.757
16.9500 9.689
16.9652 9.759
16.9803 9.785
16.9955 9.984
17.0107 10.156
17.0259 9.848
17.0410 9.821
17.0562 10.083
17.0714 10.233
17.0866 10.290
17.1017 10.544
17.1169 10.910
17.1321 10.949
17.1473 11.230
17.1624 11.930
17.1776 12.400
17.1928 13.013
17.2080 13.974
17.2231 15.139
17.2383 16.425
17.2535 17.771
17.2687 18.606
17.2838 18.892
17.2990 18.243
17.3142 17.047
17.3294 16.503
17.3445 16.348
17.3597 16.342
17.3749 16.109
17.3901 15.326
17.4052 14.429
17.4204 13.465
17.4356 12.526
17.4508 11.905
17.4659 11.599
17.4811 11.511
17.4963 11.472
17.5115 11.179
17.5266 10.925
17.5418 11.086
17.5570 11.097
17.5722 11.119
17.5873 11.204
17.6025 11.219
17.6177 11.092
17.6329 11.133
17.6480 11.077
17.6632 10.648
17.6784 10.519
17.6936 10.373
17.7087 10.354
17.7239 10.543
17.7391 10.438
17.7543 10.257
17.7694 10.324
17.7846 10.173
17.7998 10.182
17.8150 10.282
17.8301 10.176
17.8453 9.931
17.8605 10.017
17.8757 10.228
17.8908 10.264
17.9060 10.343
17.9212 10.396
17.9364 10.253
17.9515 9.931
17.9667 10.017
17.9819 10.357
17.9971 10.415
18.0122 10.224
18.0274 10.054
18.0426 10.042
18.0578 10.158
18.0729 10.394
18.0881 10.312
18.1033 10.082
18.1185 10.058
18.1336 9.982
18.1488 9.989
18.1640 10.059
18.1792 10.000
18.1943 9.905
18.2095 9.885
18.2247 10.028
18.2399 10.125
18.2550 9.949
18.2702 9.713
18.2854 9.787
18.3006 9.861
18.3157 9.925
18.3309 9.931
18.3461 9.920
18.3613 9.820
18.3764 9.689
18.3916 9.849
18.4068 9.944
18.4220 9.925
18.4371 9.706
18.4523 9.771
18.4675 9.957
18.4827 10.091
18.4978 10.081
18.5130 9.778
18.5282 9.808
18.5434 9.950
18.5585 9.681
18.5737 10.035
18.5889 10.032
18.6041 9.732
18.6192 9.672
18.6344 9.699
18.6496 9.924
18.6648 9.838
18.6799 9.851
18.6951 9.849
18.7103 9.796
18.7255 9.690
18.7406 9.782
18.7558 9.834
18.7710 9.712
18.7862 9.894
18.8013 9.819
18.8165 9.720
18.8317 9.952
18.8469 9.959
18.8620 9.864
18.8772 9.955
18.8924 10.110
18.9076 10.233
18.9227 10.091
18.9379 9.841
18.9531 10.051
18.9683 10.281
18.9834 10.272
18.9986 10.453
19.0138 10.126
19.0290 10.028
19.0441 10.294
19.0593 10.157
19.0745 10.292
19.0897 10.498
19.1048 10.345
19.1200 10.464
19.1352 10.542
19.1504 10.530
19.1655 10.484
19.1807 10.563
19.1959 10.559
19.2111 10.815
19.2262 10.746
19.2414 10.715
19.2566 10.884
19.2718 10.756
19.2869 10.911
19.3021 10.987
19.3173 10.776
19.3325 10.658
19.3476 10.928
19.3628 11.104
19.3780 11.192
19.3932 11.291
19.4083 11.244
19.4235 11.264
19.4387 11.273
19.4539 11.307
19.4690 11.348
19.4842 11.518
19.4994 11.500
19.5146 11.624
19.5297 11.613
19.5449 11.493
19.5601 11.727
19.5753 11.803
19.5904 11.809
19.6056 11.875
19.6208 11.789
19.6360 11.780
19.6511 11.665
19.6663 11.430
19.6815 11.530
19.6967 11.559
19.7118 11.662
19.7270 11.853
19.7422 11.701
19.7574 11.627
19.7725 11.727
19.7877 11.820
19.8029 11.772
19.8180 11.745
19.8332 12.018
19.8484 12.174
19.8636 12.404
19.8787 12.721
19.8939 12.940
19.9091 13.078
19.9243 13.443
19.9394 13.787
19.9546 14.140
19.9698 14.421
19.9850 14.537
20.0001 14.481
20.0153 14.261
20.0305 14.047
20.0457 13.947
20.0608 13.931
20.0760 13.687
20.0912 13.519
20.1064 13.538
20.1215 13.425
20.1367 13.303
20.1519 13.065
20.1671 12.921
20.1822 12.912
20.1974 12.762
20.2126 12.830
20.2278 12.941
20.2429 12.742
20.2581 12.343
20.2733 12.186
20.2885 11.752
20.3036 11.795
20.3188 11.991
20.3340 11.820
20.3492 11.745
20.3643 11.574
20.3795 11.186
20.3947 11.296
20.4099 11.116
20.4250 11.020
20.4402 11.077
20.4554 11.073
20.4706 10.832
20.4857 10.797
20.5009 10.779
20.5161 10.908
20.5313 10.858
20.5464 10.426
20.5616 10.521
20.5768 10.370
20.5920 10.708
20.6071 10.733
20.6223 10.616
20.6375 10.618
20.6527 10.575
20.6678 10.560
20.6830 10.585
20.6982 10.785
20.7134 10.701
20.7285 10.441
20.7437 10.435
20.7589 10.491
20.7741 10.197
20.7892 10.246
20.8044 10.362
20.8196 10.152
20.8348 10.106
20.8499 10.241
20.8651 10.227
20.8803 10.002
20.8955 9.923
20.9106 9.991
20.9258 9.964
20.9410 9.885
20.9562 10.163
20.9713 10.170
20.9865 10.108
21.0017 10.043
21.0169 9.934
21.0320 10.119
21.0472 10.093
21.0624 9.782
21.0776 9.958
21.0927 10.016
21.1079 10.071
21.1231 9.879
21.1383 9.695
21.1534 9.817
21.1686 9.811
21.1838 9.582
21.1990 9.613
21.2141 9.326
21.2293 9.700
21.2445 9.587
21.2597 9.554
21.2748 9.598
21.2900 9.577
21.3052 9.611
21.3204 9.803
21.3355 9.785
21.3507 9.399
21.3659 9.603
21.3811 9.799
21.3962 9.394
21.4114 9.244
21.4266 9.216
21.4418 9.567
21.4569 9.521
21.4721 9.452
21.4873 9.544
21.5025 9.585
21.5176 9.450
21.5328 9.401
21.5480 9.225
21.5632 9.008
21.5783 9.118
21.5935 9.247
21.6087 9.515
21.6239 9.155
21.6390 8.931
21.6542 9.258
21.6694 8.954
21.6846 8.852
21.6997 8.929
21.7149 8.901
21.7301 8.800
21.7453 9.034
21.7604 9.067
21.7756 9.097
21.7908 8.958
21.8060 9.110
21.8211 9.190
21.8363 9.052
21.8515 9.043
21.8667 9.258
21.8818 9.191
21.8970 9.050
21.9122 9.036
21.9274 8.912
21.9425 8.923
21.9577 9.024
21.9729 8.937
21.9881 9.009
22.0032 8.845
22.0184 8.770
22.0336 8.981
22.0488 8.923
22.0639 8.664
22.0791 8.621
22.0943 8.604
22.1095 8.507
22.1246 8.757
22.1398 8.862
22.1550 8.787
22.1702 8.638
22.1853 8.690
22.2005 8.721
22.2157 8.629
22.2309 8.517
22.2460 8.730
22.2612 8.710
22.2764 8.866
22.2916 8.643
22.3067 8.325
22.3219 8.711
22.3371 8.682
22.3523 8.630
22.3674 8.652
22.3826 8.594
22.3978 8.542
22.4130 8.465
22.4281 8.664
22.4433 8.522
22.4585 8.518
22.4737 8.318
22.4888 8.538
22.5040 8.372
22.5192 8.695
22.5344 8.336
22.5495 8.300
22.5647 8.565
22.5799 8.389
22.5951 8.592
22.6102 8.630
22.6254 8.481
22.6406 8.399
22.6558 8.379
22.6709 8.458
22.6861 8.542
22.7013 8.442
22.7165 8.279
22.7316 6.678
