'Id: "" Comment: "" Operator: "Lab Manager" Anode: "Mo" Scantype: "Still (Eiger2R_500K (1D mode))" TimePerStep: "300" X: "11.8" Y: "9.4" Z: "11.284" 
7.2532 18.751
7.2684 18.657
7.2836 19.310
7.2987 19.020
7.3139 18.826
7.3291 18.960
7.3443 19.624
7.3594 19.248
7.3746 19.326
7.3898 19.302
7.4050 19.508
7.4201 19.363
7.4353 19.252
7.4505 19.200
7.4657 19.742
7.4808 19.766
7.4960 19.552
7.5112 19.755
7.5264 19.458
7.5415 19.571
7.5567 19.822
7.5719 19.951
7.5871 19.906
7.6022 19.801
7.6174 19.797
7.6326 20.106
7.6478 19.924
7.6629 19.997
7.6781 20.290
7.6933 20.351
7.7085 20.534
7.7236 20.548
7.7388 20.082
7.7540 20.204
7.7692 20.246
7.7843 20.123
7.7995 20.307
7.8147 20.723
7.8299 20.678
7.8450 20.652
7.8602 20.579
7.8754 21.004
7.8905 21.371
7.9057 20.991
7.9209 20.674
7.9361 20.750
7.9512 20.746
7.9664 20.793
7.9816 20.983
7.9968 21.150
8.0119 21.064
8.0271 21.153
8.0423 21.584
8.0575 21.392
8.0726 21.084
8.0878 21.218
8.1030 21.115
8.1182 21.027
8.1333 21.161
8.1485 21.202
8.1637 21.483
8.1789 21.576
8.1940 21.505
8.2092 21.166
8.2244 21.259
8.2396 21.591
8.2547 21.634
8.2699 21.430
8.2851 21.515
8.3003 21.326
8.3154 21.439
8.3306 21.683
8.3458 21.805
8.3610 21.972
8.3761 21.900
8.3913 22.003
8.4065 22.030
8.4217 22.298
8.4368 22.154
8.4520 21.686
8.4672 21.969
8.4824 21.758
8.4975 22.105
8.5127 22.278
8.5279 21.689
8.5431 22.027
8.5582 22.099
8.5734 21.776
8.5886 22.007
8.6038 22.163
8.6189 21.914
8.6341 22.161
8.6493 22.509
8.6645 22.802
8.6796 22.305
8.6948 22.253
8.7100 22.774
8.7252 22.739
8.7403 22.526
8.7555 22.312
8.7707 22.387
8.7859 22.969
8.8010 22.477
8.8162 22.791
8.8314 22.789
8.8466 22.919
8.8617 22.581
8.8769 22.504
8.8921 22.610
8.9073 22.760
8.9224 22.767
8.9376 23.006
8.9528 22.970
8.9680 22.826
8.9831 23.103
8.9983 22.872
9.0135 22.752
9.0287 23.017
9.0438 23.116
9.0590 22.684
9.0742 22.997
9.0894 23.044
9.1045 22.785
9.1197 22.967
9.1349 22.962
9.1501 22.817
9.1652 22.969
9.1804 23.021
9.1956 23.221
9.2108 22.762
9.2259 22.971
9.2411 22.920
9.2563 23.246
9.2715 23.360
9.2866 23.303
9.3018 22.997
9.3170 23.016
9.3322 22.977
9.3473 23.369
9.3625 23.345
9.3777 23.213
9.3929 23.342
9.4080 23.399
9.4232 23.201
9.4384 22.938
9.4536 22.947
9.4687 23.194
9.4839 23.219
9.4991 23.382
9.5143 23.046
9.5294 23.140
9.5446 23.078
9.5598 22.994
9.5750 23.116
9.5901 23.270
9.6053 23.369
9.6205 23.742
9.6357 23.700
9.6508 23.633
9.6660 23.857
9.6812 23.871
9.6964 23.991
9.7115 24.235
9.7267 24.265
9.7419 24.432
9.7571 24.111
9.7722 23.682
9.7874 23.557
9.8026 23.764
9.8178 23.821
9.8329 23.782
9.8481 23.644
9.8633 23.133
9.8785 23.180
9.8936 23.465
9.9088 23.556
9.9240 23.599
9.9392 23.467
9.9543 23.453
9.9695 23.253
9.9847 23.206
9.9999 23.382
10.0150 23.370
10.0302 23.461
10.0454 23.435
10.0606 23.405
10.0757 22.982
10.0909 22.792
10.1061 23.306
10.1213 23.371
10.1364 23.158
10.1516 23.307
10.1668 23.392
10.1820 23.433
10.1971 23.295
10.2123 23.136
10.2275 23.274
10.2427 23.161
10.2578 22.960
10.2730 23.419
10.2882 23.321
10.3034 23.104
10.3185 23.235
10.3337 23.026
10.3489 23.019
10.3641 22.724
10.3792 22.901
10.3944 23.133
10.4096 22.754
10.4248 22.411
10.4399 22.517
10.4551 22.895
10.4703 22.787
10.4855 23.138
10.5006 23.201
10.5158 22.705
10.5310 22.382
10.5462 22.578
10.5613 22.498
10.5765 22.754
10.5917 22.699
10.6069 22.758
10.6220 22.874
10.6372 22.864
10.6524 22.678
10.6676 22.644
10.6827 22.198
10.6979 22.323
10.7131 22.424
10.7283 22.492
10.7434 22.535
10.7586 22.602
10.7738 22.586
10.7890 22.405
10.8041 22.253
10.8193 21.809
10.8345 22.102
10.8497 22.181
10.8648 22.414
10.8800 22.432
10.8952 22.212
10.9104 22.058
10.9255 22.286
10.9407 22.437
10.9559 22.394
10.9711 22.276
10.9862 21.896
11.0014 22.014
11.0166 22.085
11.0318 22.294
11.0469 22.174
11.0621 21.837
11.0773 21.617
11.0925 21.750
11.1076 22.266
11.1228 21.944
11.1380 21.882
11.1532 22.045
11.1683 21.823
11.1835 21.774
11.1987 21.635
11.2139 21.705
11.2290 21.869
11.2442 21.643
11.2594 21.344
11.2746 21.294
11.2897 21.492
11.3049 21.507
11.3201 21.649
11.3353 21.745
11.3504 21.574
11.3656 21.702
11.3808 21.902
11.3960 21.349
11.4111 21.311
11.4263 21.458
11.4415 21.126
11.4567 20.944
11.4718 21.361
11.4870 21.340
11.5022 21.001
11.5174 20.829
11.5325 21.039
11.5477 21.501
11.5629 21.147
11.5781 20.594
11.5932 20.972
11.6084 20.874
11.6236 20.708
11.6388 20.514
11.6539 20.602
11.6691 20.804
11.6843 20.678
11.6995 20.678
11.7146 20.596
11.7298 20.232
11.7450 20.281
11.7602 20.342
11.7753 19.947
11.7905 20.243
11.8057 20.262
11.8209 20.195
11.8360 19.816
11.8512 20.061
11.8664 20.065
11.8816 19.868
11.8967 19.615
11.9119 19.368
11.9271 19.415
11.9423 19.470
11.9574 19.277
11.9726 19.184
11.9878 19.222
12.0030 19.352
12.0181 19.080
12.0333 19.043
12.0485 19.099
12.0637 19.186
12.0788 18.957
12.0940 18.922
12.1092 18.637
12.1244 18.685
12.1395 18.866
12.1547 18.266
12.1699 18.402
12.1851 18.630
12.2002 18.285
12.2154 18.367
12.2306 18.463
12.2458 18.331
12.2609 17.985
12.2761 17.972
12.2913 17.867
12.3065 17.674
12.3216 17.870
12.3368 17.484
12.3520 17.481
12.3672 17.606
12.3823 17.338
12.3975 17.351
12.4127 17.413
12.4279 17.205
12.4430 17.314
12.4582 17.421
12.4734 17.181
12.4886 16.990
12.5037 16.701
12.5189 16.805
12.5341 16.821
12.5493 16.543
12.5644 16.523
12.5796 16.486
12.5948 16.159
12.6100 16.121
12.6251 16.273
12.6403 16.180
12.6555 15.869
12.6707 15.911
12.6858 15.665
12.7010 15.664
12.7162 15.516
12.7314 15.263
12.7465 15.404
12.7617 15.557
12.7769 15.579
12.7921 15.472
12.8072 15.315
12.8224 15.108
12.8376 15.079
12.8528 15.117
12.8679 14.988
12.8831 14.955
12.8983 14.840
12.9135 14.582
12.9286 14.589
12.9438 14.731
12.9590 14.539
12.9742 14.374
12.9893 14.398
13.0045 14.525
13.0197 14.617
13.0349 14.516
13.0500 14.092
13.0652 13.925
13.0804 14.190
13.0956 14.134
13.1107 13.966
13.1259 13.911
13.1411 13.866
13.1563 13.781
13.1714 13.656
13.1866 13.578
13.2018 13.528
13.2170 13.353
13.2321 13.083
13.2473 13.181
13.2625 13.184
13.2777 13.172
13.2928 13.230
13.3080 13.186
13.3232 13.393
13.3384 13.248
13.3535 13.297
13.3687 13.339
13.3839 13.089
13.3991 13.137
13.4142 13.114
13.4294 12.935
13.4446 12.902
13.4598 13.008
13.4749 13.044
13.4901 12.930
13.5053 12.737
13.5205 12.506
13.5356 12.197
13.5508 12.315
13.5660 12.464
13.5812 12.451
13.5963 12.513
13.6115 12.383
13.6267 12.283
13.6419 12.152
13.6570 12.262
13.6722 12.312
13.6874 12.228
13.7026 12.175
13.7177 12.228
13.7329 12.347
13.7481 12.254
13.7633 11.972
13.7784 11.988
13.7936 12.116
13.8088 12.179
13.8239 12.308
13.8391 12.324
13.8543 12.352
13.8695 12.486
13.8846 12.385
13.8998 11.952
13.9150 11.975
13.9302 12.164
13.9453 12.096
13.9605 11.994
13.9757 11.825
13.9909 11.728
14.0060 11.528
14.0212 11.540
14.0364 11.418
14.0516 11.456
14.0667 11.683
14.0819 11.698
14.0971 11.373
14.1123 11.408
14.1274 11.208
14.1426 11.474
14.1578 11.682
14.1730 11.323
14.1881 11.491
14.2033 11.647
14.2185 11.610
14.2337 11.865
14.2488 11.519
14.2640 11.502
14.2792 11.789
14.2944 11.816
14.3095 11.740
14.3247 11.443
14.3399 11.855
14.3551 11.872
14.3702 12.117
14.3854 12.246
14.4006 12.243
14.4158 12.476
14.4309 12.455
14.4461 12.353
14.4613 12.196
14.4765 11.982
14.4916 12.192
14.5068 11.963
14.5220 11.709
14.5372 11.594
14.5523 11.456
14.5675 11.204
14.5827 11.148
14.5979 11.059
14.6130 11.398
14.6282 11.177
14.6434 11.121
14.6586 11.064
14.6737 10.759
14.6889 11.073
14.7041 11.620
14.7193 11.092
14.7344 10.822
14.7496 10.960
14.7648 11.125
14.7800 10.896
14.7951 10.846
14.8103 11.105
14.8255 10.955
14.8407 10.792
14.8558 10.859
14.8710 10.804
14.8862 10.666
14.9014 10.683
14.9165 11.000
14.9317 10.872
14.9469 10.632
14.9621 10.683
14.9772 10.580
14.9924 10.444
15.0076 10.661
15.0228 10.936
15.0379 10.587
15.0531 10.735
15.0683 10.844
15.0835 10.476
15.0986 10.455
15.1138 10.573
15.1290 10.363
15.1442 10.119
15.1593 10.606
15.1745 10.317
15.1897 10.701
15.2049 10.206
15.2200 10.568
15.2352 10.391
15.2504 10.394
15.2656 10.261
15.2807 10.104
15.2959 10.177
15.3111 10.310
15.3263 10.273
15.3414 10.264
15.3566 10.429
15.3718 10.292
15.3870 10.329
15.4021 10.164
15.4173 10.329
15.4325 10.285
15.4477 10.391
15.4628 10.366
15.4780 10.438
15.4932 9.986
15.5084 10.015
15.5235 10.207
15.5387 10.318
15.5539 9.997
15.5691 10.163
15.5842 10.104
15.5994 10.015
15.6146 10.264
15.6298 9.904
15.6449 10.008
15.6601 10.103
15.6753 10.150
15.6905 9.969
15.7056 9.884
15.7208 9.952
15.7360 9.972
15.7512 9.802
15.7663 9.825
15.7815 10.128
15.7967 9.822
15.8119 9.849
15.8270 10.279
15.8422 10.221
15.8574 9.937
15.8726 9.938
15.8877 9.821
15.9029 9.498
15.9181 9.799
15.9333 10.055
15.9484 9.792
15.9636 9.791
15.9788 9.725
15.9940 10.020
16.0091 9.752
16.0243 9.901
16.0395 9.632
16.0547 9.918
16.0698 9.873
16.0850 9.689
16.1002 9.661
16.1154 9.632
16.1305 9.751
16.1457 9.803
16.1609 9.784
16.1761 9.669
16.1912 9.712
16.2064 9.702
16.2216 9.598
16.2368 9.829
16.2519 10.255
16.2671 10.295
16.2823 10.227
16.2975 10.169
16.3126 10.142
16.3278 10.204
16.3430 10.017
16.3582 9.745
16.3733 9.991
16.3885 10.181
16.4037 9.939
16.4189 9.855
16.4340 9.745
16.4492 9.767
16.4644 9.806
16.4796 9.971
16.4947 9.998
16.5099 9.941
16.5251 9.856
16.5403 9.953
16.5554 9.814
16.5706 9.705
16.5858 9.785
16.6010 9.935
16.6161 10.050
16.6313 9.981
16.6465 9.973
16.6617 9.919
16.6768 9.908
16.6920 10.206
16.7072 10.148
16.7224 10.065
16.7375 9.973
16.7527 10.126
16.7679 10.052
16.7831 9.916
16.7982 9.984
16.8134 9.903
16.8286 9.904
16.8438 9.881
16.8589 10.011
16.8741 10.032
16.8893 9.813
16.9045 9.726
16.9196 9.633
16.9348 9.649
16.9500 9.682
16.9652 9.798
16.9803 9.896
16.9955 10.061
17.0107 10.093
17.0259 10.048
17.0410 10.018
17.0562 10.049
17.0714 10.313
17.0866 10.603
17.1017 10.846
17.1169 10.855
17.1321 10.964
17.1473 11.276
17.1624 11.906
17.1776 12.555
17.1928 13.146
17.2080 14.222
17.2231 15.269
17.2383 16.582
17.2535 18.008
17.2687 18.580
17.2838 18.700
17.2990 18.310
17.3142 17.139
17.3294 16.237
17.3445 16.147
17.3597 16.174
17.3749 15.810
17.3901 15.176
17.4052 14.393
17.4204 13.290
17.4356 12.512
17.4508 12.024
17.4659 11.440
17.4811 11.280
17.4963 11.394
17.5115 11.260
17.5266 11.004
17.5418 10.980
17.5570 10.763
17.5722 10.635
17.5873 10.898
17.6025 10.998
17.6177 10.835
17.6329 10.479
17.6480 10.262
17.6632 10.285
17.6784 10.324
17.6936 10.284
17.7087 10.151
17.7239 10.344
17.7391 10.389
17.7543 10.235
17.7694 10.334
17.7846 10.355
17.7998 10.333
17.8150 10.219
17.8301 10.172
17.8453 10.240
17.8605 10.362
17.8757 10.583
17.8908 10.691
17.9060 10.688
17.9212 10.467
17.9364 10.453
17.9515 10.565
17.9667 10.468
17.9819 10.410
17.9971 10.536
18.0122 10.503
18.0274 10.399
18.0426 10.250
18.0578 10.026
18.0729 10.141
18.0881 10.161
18.1033 10.206
18.1185 10.373
18.1336 10.100
18.1488 10.206
18.1640 10.456
18.1792 10.024
18.1943 9.811
18.2095 9.804
18.2247 9.983
18.2399 10.058
18.2550 9.792
18.2702 9.788
18.2854 9.856
18.3006 9.906
18.3157 9.992
18.3309 10.002
18.3461 9.870
18.3613 9.811
18.3764 9.840
18.3916 9.991
18.4068 9.853
18.4220 9.725
18.4371 9.800
18.4523 9.869
18.4675 9.722
18.4827 9.696
18.4978 9.798
18.5130 9.876
18.5282 9.857
18.5434 9.687
18.5585 9.722
18.5737 9.835
18.5889 9.923
18.6041 9.786
18.6192 9.798
18.6344 9.706
18.6496 9.540
18.6648 9.712
18.6799 9.673
18.6951 9.635
18.7103 9.414
18.7255 9.393
18.7406 9.716
18.7558 9.777
18.7710 9.786
18.7862 9.821
18.8013 9.593
18.8165 9.531
18.8317 9.720
18.8469 9.970
18.8620 9.974
18.8772 9.936
18.8924 10.015
18.9076 10.105
18.9227 10.228
18.9379 10.199
18.9531 9.927
18.9683 9.820
18.9834 9.730
18.9986 9.867
19.0138 10.067
19.0290 9.988
19.0441 10.063
19.0593 10.182
19.0745 10.222
19.0897 10.240
19.1048 10.421
19.1200 10.516
19.1352 10.600
19.1504 10.824
19.1655 10.897
19.1807 10.750
19.1959 10.856
19.2111 10.920
19.2262 10.765
19.2414 10.706
19.2566 10.946
19.2718 10.675
19.2869 10.810
19.3021 11.005
19.3173 10.756
19.3325 10.803
19.3476 11.249
19.3628 11.262
19.3780 11.129
19.3932 11.108
19.4083 11.042
19.4235 11.069
19.4387 11.246
19.4539 11.293
19.4690 11.158
19.4842 11.350
19.4994 11.625
19.5146 11.743
19.5297 11.640
19.5449 11.609
19.5601 11.564
19.5753 11.349
19.5904 11.394
19.6056 11.735
19.6208 11.790
19.6360 11.672
19.6511 11.615
19.6663 11.601
19.6815 11.644
19.6967 11.684
19.7118 11.786
19.7270 11.755
19.7422 11.757
19.7574 11.736
19.7725 11.740
19.7877 12.026
19.8029 11.967
19.8180 11.946
19.8332 12.083
19.8484 11.911
19.8636 12.239
19.8787 12.611
19.8939 12.792
19.9091 13.095
19.9243 13.381
19.9394 13.762
19.9546 14.207
19.9698 14.717
19.9850 14.657
20.0001 14.559
20.0153 14.500
20.0305 14.218
20.0457 13.997
20.0608 13.632
20.0760 13.737
20.0912 13.626
20.1064 13.459
20.1215 13.419
20.1367 13.074
20.1519 12.737
20.1671 12.962
20.1822 12.954
20.1974 12.645
20.2126 12.614
20.2278 12.549
20.2429 12.407
20.2581 12.213
20.2733 11.961
20.2885 11.829
20.3036 11.724
20.3188 11.629
20.3340 11.593
20.3492 11.616
20.3643 11.518
20.3795 11.490
20.3947 10.978
20.4099 10.706
20.4250 11.035
20.4402 11.028
20.4554 10.799
20.4706 10.769
20.4857 10.768
20.5009 10.725
20.5161 10.501
20.5313 10.435
20.5464 10.529
20.5616 10.507
20.5768 10.504
20.5920 10.552
20.6071 10.692
20.6223 10.478
20.6375 10.483
20.6527 10.549
20.6678 10.720
20.6830 10.574
20.6982 10.489
20.7134 10.559
20.7285 10.305
20.7437 10.512
20.7589 10.426
20.7741 10.249
20.7892 10.368
20.8044 10.272
20.8196 10.406
20.8348 10.429
20.8499 10.198
20.8651 10.341
20.8803 10.313
20.8955 10.206
20.9106 9.964
20.9258 10.004
20.9410 10.462
20.9562 10.031
20.9713 10.113
20.9865 10.345
21.0017 10.415
21.0169 10.179
21.0320 10.072
21.0472 10.104
21.0624 10.071
21.0776 9.848
21.0927 10.123
21.1079 9.715
21.1231 9.996
21.1383 10.157
21.1534 10.050
21.1686 9.627
21.1838 9.720
21.1990 9.745
21.2141 9.544
21.2293 9.819
21.2445 9.536
21.2597 9.834
21.2748 9.612
21.2900 9.293
21.3052 9.813
21.3204 9.371
21.3355 9.526
21.3507 9.436
21.3659 9.382
21.3811 9.505
21.3962 9.528
21.4114 9.370
21.4266 9.626
21.4418 9.769
21.4569 9.609
21.4721 9.704
21.4873 9.450
21.5025 9.241
21.5176 9.520
21.5328 9.330
21.5480 9.611
21.5632 9.339
21.5783 9.158
21.5935 9.040
21.6087 9.265
21.6239 9.094
21.6390 9.245
21.6542 9.009
21.6694 8.981
21.6846 9.321
21.6997 9.256
21.7149 9.159
21.7301 8.925
21.7453 8.798
21.7604 8.738
21.7756 8.978
21.7908 8.950
21.8060 9.232
21.8211 9.284
21.8363 8.858
21.8515 8.886
21.8667 8.969
21.8818 9.022
21.8970 9.115
21.9122 9.090
21.9274 9.013
21.9425 8.748
21.9577 8.848
21.9729 8.967
21.9881 8.890
22.0032 8.693
22.0184 8.684
22.0336 8.843
22.0488 8.783
22.0639 8.676
22.0791 8.666
22.0943 8.719
22.1095 8.779
22.1246 8.740
22.1398 8.679
22.1550 8.773
22.1702 8.731
22.1853 8.797
22.2005 8.920
22.2157 8.857
22.2309 8.636
22.2460 8.603
22.2612 8.615
22.2764 8.652
22.2916 8.804
22.3067 8.703
22.3219 8.603
22.3371 8.668
22.3523 8.613
22.3674 8.641
22.3826 8.819
22.3978 8.480
22.4130 8.443
22.4281 8.745
22.4433 8.871
22.4585 8.458
22.4737 8.258
22.4888 8.345
22.5040 8.538
22.5192 8.777
22.5344 8.724
22.5495 8.471
22.5647 8.564
22.5799 8.589
22.5951 8.568
22.6102 8.263
22.6254 8.426
22.6406 8.600
22.6558 8.661
22.6709 8.463
22.6861 8.603
22.7013 8.154
22.7165 7.980
22.7316 6.565
