'Id: "" Comment: "" Operator: "Lab Manager" Anode: "Mo" Scantype: "Still (Eiger2R_500K (1D mode))" TimePerStep: "300" X: "11.8" Y: "9.4" Z: "11.284" 
7.2532 19.096
7.2684 19.019
7.2836 19.490
7.2987 19.165
7.3139 19.260
7.3291 19.443
7.3443 19.277
7.3594 19.214
7.3746 19.618
7.3898 19.537
7.4050 19.113
7.4201 19.374
7.4353 19.456
7.4505 19.979
7.4657 19.730
7.4808 19.495
7.4960 19.532
7.5112 19.691
7.5264 19.771
7.5415 19.877
7.5567 19.581
7.5719 19.603
7.5871 19.809
7.6022 19.644
7.6174 19.858
7.6326 20.314
7.6478 20.349
7.6629 19.920
7.6781 20.081
7.6933 20.392
7.7085 20.411
7.7236 20.297
7.7388 20.489
7.7540 20.677
7.7692 20.646
7.7843 20.694
7.7995 20.735
7.8147 20.462
7.8299 20.360
7.8450 20.881
7.8602 21.258
7.8754 21.203
7.8905 21.064
7.9057 20.752
7.9209 20.765
7.9361 20.976
7.9512 21.153
7.9664 21.140
7.9816 20.917
7.9968 20.946
8.0119 21.276
8.0271 21.385
8.0423 21.224
8.0575 21.057
8.0726 21.146
8.0878 21.455
8.1030 21.113
8.1182 21.500
8.1333 21.622
8.1485 21.534
8.1637 21.707
8.1789 21.180
8.1940 21.536
8.2092 21.540
8.2244 21.769
8.2396 22.004
8.2547 21.857
8.2699 21.673
8.2851 21.807
8.3003 21.612
8.3154 21.336
8.3306 21.993
8.3458 21.777
8.3610 21.606
8.3761 22.028
8.3913 22.037
8.4065 22.215
8.4217 21.993
8.4368 21.910
8.4520 22.200
8.4672 22.075
8.4824 22.269
8.4975 22.009
8.5127 22.333
8.5279 22.197
8.5431 22.653
8.5582 21.587
8.5734 21.688
8.5886 21.921
8.6038 22.441
8.6189 22.628
8.6341 22.657
8.6493 22.000
8.6645 22.568
8.6796 22.163
8.6948 22.504
8.7100 22.743
8.7252 22.604
8.7403 22.567
8.7555 22.509
8.7707 22.867
8.7859 22.527
8.8010 22.974
8.8162 22.411
8.8314 22.441
8.8466 22.775
8.8617 23.076
8.8769 22.803
8.8921 22.565
8.9073 22.450
8.9224 22.660
8.9376 22.649
8.9528 22.579
8.9680 23.067
8.9831 22.710
8.9983 22.810
9.0135 22.664
9.0287 22.697
9.0438 22.678
9.0590 22.872
9.0742 22.966
9.0894 23.221
9.1045 23.051
9.1197 23.066
9.1349 22.719
9.1501 22.758
9.1652 23.070
9.1804 22.851
9.1956 22.702
9.2108 22.584
9.2259 22.727
9.2411 23.013
9.2563 23.054
9.2715 22.900
9.2866 22.722
9.3018 23.024
9.3170 22.986
9.3322 22.994
9.3473 23.139
9.3625 23.115
9.3777 23.039
9.3929 23.197
9.4080 23.025
9.4232 23.192
9.4384 23.311
9.4536 23.204
9.4687 22.862
9.4839 23.102
9.4991 23.222
9.5143 23.245
9.5294 23.104
9.5446 23.358
9.5598 23.291
9.5750 23.043
9.5901 23.021
9.6053 23.285
9.6205 23.370
9.6357 23.648
9.6508 23.725
9.6660 23.591
9.6812 23.839
9.6964 23.953
9.7115 24.421
9.7267 24.519
9.7419 24.257
9.7571 24.209
9.7722 24.274
9.7874 24.344
9.8026 24.100
9.8178 23.865
9.8329 23.498
9.8481 23.413
9.8633 23.581
9.8785 23.733
9.8936 23.786
9.9088 23.687
9.9240 23.720
9.9392 23.557
9.9543 23.623
9.9695 23.644
9.9847 23.649
9.9999 23.448
10.0150 23.393
10.0302 23.383
10.0454 23.209
10.0606 22.841
10.0757 22.990
10.0909 22.984
10.1061 23.021
10.1213 23.267
10.1364 22.992
10.1516 23.094
10.1668 23.169
10.1820 23.155
10.1971 23.182
10.2123 23.248
10.2275 23.070
10.2427 22.895
10.2578 22.752
10.2730 23.116
10.2882 23.110
10.3034 23.258
10.3185 23.205
10.3337 23.186
10.3489 23.153
10.3641 23.243
10.3792 23.414
10.3944 23.023
10.4096 22.973
10.4248 23.205
10.4399 23.011
10.4551 22.888
10.4703 22.916
10.4855 22.874
10.5006 22.573
10.5158 22.483
10.5310 22.554
10.5462 22.846
10.5613 22.611
10.5765 22.643
10.5917 22.805
10.6069 22.358
10.6220 22.210
10.6372 22.565
10.6524 22.445
10.6676 22.467
10.6827 22.696
10.6979 22.409
10.7131 22.188
10.7283 22.349
10.7434 22.267
10.7586 22.314
10.7738 22.547
10.7890 22.619
10.8041 22.784
10.8193 22.677
10.8345 22.238
10.8497 22.183
10.8648 22.127
10.8800 22.388
10.8952 22.411
10.9104 22.327
10.9255 22.482
10.9407 22.374
10.9559 22.243
10.9711 22.478
10.9862 22.259
11.0014 22.306
11.0166 22.541
11.0318 22.676
11.0469 22.415
11.0621 22.187
11.0773 22.181
11.0925 21.849
11.1076 21.772
11.1228 21.785
11.1380 21.886
11.1532 21.830
11.1683 21.596
11.1835 21.796
11.1987 21.520
11.2139 21.675
11.2290 21.577
11.2442 21.460
11.2594 21.546
11.2746 21.543
11.2897 21.792
11.3049 21.820
11.3201 21.650
11.3353 21.457
11.3504 21.249
11.3656 21.428
11.3808 21.292
11.3960 21.318
11.4111 21.303
11.4263 21.386
11.4415 21.377
11.4567 21.106
11.4718 21.114
11.4870 21.376
11.5022 21.148
11.5174 21.443
11.5325 21.595
11.5477 21.592
11.5629 21.171
11.5781 21.040
11.5932 21.309
11.6084 20.950
11.6236 20.905
11.6388 20.773
11.6539 20.844
11.6691 20.580
11.6843 20.494
11.6995 20.566
11.7146 20.767
11.7298 20.696
11.7450 20.635
11.7602 20.429
11.7753 20.260
11.7905 20.318
11.8057 19.998
11.8209 19.923
11.8360 20.052
11.8512 19.604
11.8664 19.403
11.8816 19.742
11.8967 19.580
11.9119 19.305
11.9271 19.089
11.9423 19.323
11.9574 19.500
11.9726 19.183
11.9878 19.154
12.0030 19.227
12.0181 19.097
12.0333 19.448
12.0485 19.259
12.0637 19.016
12.0788 18.916
12.0940 18.786
12.1092 18.593
12.1244 18.529
12.1395 18.364
12.1547 18.251
12.1699 18.533
12.1851 18.482
12.2002 18.233
12.2154 18.089
12.2306 18.041
12.2458 17.950
12.2609 17.952
12.2761 18.130
12.2913 18.094
12.3065 17.765
12.3216 17.579
12.3368 17.410
12.3520 17.493
12.3672 17.564
12.3823 17.269
12.3975 17.131
12.4127 17.230
12.4279 17.328
12.4430 17.293
12.4582 17.104
12.4734 16.893
12.4886 16.637
12.5037 16.422
12.5189 16.140
12.5341 16.352
12.5493 16.366
12.5644 16.010
12.5796 16.064
12.5948 16.190
12.6100 16.181
12.6251 16.065
12.6403 15.682
12.6555 15.676
12.6707 15.927
12.6858 15.880
12.7010 15.696
12.7162 15.214
12.7314 15.367
12.7465 15.483
12.7617 15.364
12.7769 15.268
12.7921 15.309
12.8072 15.146
12.8224 15.216
12.8376 15.191
12.8528 14.965
12.8679 14.841
12.8831 14.853
12.8983 14.959
12.9135 14.790
12.9286 14.722
12.9438 14.954
12.9590 14.638
12.9742 14.546
12.9893 14.639
13.0045 14.562
13.0197 14.493
13.0349 14.181
13.0500 14.135
13.0652 14.132
13.0804 14.089
13.0956 14.125
13.1107 13.856
13.1259 13.606
13.1411 13.606
13.1563 13.403
13.1714 13.281
13.1866 13.396
13.2018 13.750
13.2170 13.784
13.2321 13.380
13.2473 13.389
13.2625 13.389
13.2777 13.512
13.2928 13.504
13.3080 13.210
13.3232 13.213
13.3384 13.221
13.3535 13.258
13.3687 13.163
13.3839 13.071
13.3991 13.242
13.4142 13.043
13.4294 12.773
13.4446 12.843
13.4598 12.921
13.4749 12.835
13.4901 12.611
13.5053 12.490
13.5205 12.539
13.5356 12.704
13.5508 12.701
13.5660 12.550
13.5812 12.578
13.5963 12.464
13.6115 12.072
13.6267 12.054
13.6419 12.160
13.6570 12.111
13.6722 11.904
13.6874 11.981
13.7026 12.096
13.7177 12.079
13.7329 12.041
13.7481 11.985
13.7633 12.093
13.7784 12.238
13.7936 12.097
13.8088 12.049
13.8239 12.378
13.8391 12.282
13.8543 12.290
13.8695 12.275
13.8846 12.389
13.8998 11.980
13.9150 11.912
13.9302 11.931
13.9453 12.058
13.9605 11.870
13.9757 11.927
13.9909 12.000
14.0060 11.962
14.0212 11.867
14.0364 11.513
14.0516 11.775
14.0667 11.730
14.0819 11.532
14.0971 11.591
14.1123 11.759
14.1274 11.508
14.1426 11.251
14.1578 11.480
14.1730 11.417
14.1881 11.493
14.2033 11.643
14.2185 11.278
14.2337 11.070
14.2488 11.351
14.2640 11.430
14.2792 11.410
14.2944 11.244
14.3095 11.360
14.3247 11.755
14.3399 11.761
14.3551 11.962
14.3702 12.167
14.3854 12.342
14.4006 12.272
14.4158 12.270
14.4309 12.475
14.4461 12.847
14.4613 12.246
14.4765 12.279
14.4916 11.936
14.5068 11.992
14.5220 11.931
14.5372 11.842
14.5523 11.389
14.5675 11.047
14.5827 10.940
14.5979 11.443
14.6130 11.405
14.6282 11.290
14.6434 11.022
14.6586 11.252
14.6737 11.431
14.6889 11.448
14.7041 11.297
14.7193 11.313
14.7344 11.057
14.7496 11.100
14.7648 10.687
14.7800 11.101
14.7951 11.183
14.8103 11.567
14.8255 11.156
14.8407 11.193
14.8558 10.669
14.8710 10.776
14.8862 10.976
14.9014 10.774
14.9165 11.027
14.9317 10.917
14.9469 10.703
14.9621 10.772
14.9772 10.435
14.9924 11.093
15.0076 10.703
15.0228 10.734
15.0379 10.559
15.0531 10.682
15.0683 11.023
15.0835 10.283
15.0986 10.576
15.1138 10.318
15.1290 10.447
15.1442 10.266
15.1593 10.476
15.1745 10.454
15.1897 10.036
15.2049 10.456
15.2200 10.457
15.2352 10.538
15.2504 10.493
15.2656 10.575
15.2807 10.236
15.2959 10.117
15.3111 10.266
15.3263 10.418
15.3414 10.191
15.3566 10.379
15.3718 10.340
15.3870 10.553
15.4021 10.272
15.4173 10.348
15.4325 10.322
15.4477 10.410
15.4628 10.049
15.4780 10.296
15.4932 10.353
15.5084 10.379
15.5235 10.295
15.5387 10.431
15.5539 10.397
15.5691 10.579
15.5842 10.279
15.5994 10.144
15.6146 10.001
15.6298 10.220
15.6449 10.193
15.6601 10.165
15.6753 10.223
15.6905 10.236
15.7056 9.950
15.7208 10.028
15.7360 10.074
15.7512 10.100
15.7663 9.725
15.7815 9.950
15.7967 9.907
15.8119 9.904
15.8270 10.084
15.8422 10.042
15.8574 9.830
15.8726 9.736
15.8877 9.966
15.9029 9.781
15.9181 9.610
15.9333 9.623
15.9484 9.707
15.9636 9.687
15.9788 9.387
15.9940 9.833
16.0091 9.874
16.0243 9.756
16.0395 9.876
16.0547 9.835
16.0698 9.855
16.0850 9.974
16.1002 9.741
16.1154 9.835
16.1305 9.861
16.1457 9.817
16.1609 9.699
16.1761 9.715
16.1912 9.736
16.2064 9.540
16.2216 9.560
16.2368 9.988
16.2519 9.997
16.2671 10.134
16.2823 10.037
16.2975 9.915
16.3126 9.974
16.3278 9.891
16.3430 9.894
16.3582 10.191
16.3733 10.115
16.3885 10.053
16.4037 9.799
16.4189 9.852
16.4340 9.932
16.4492 10.112
16.4644 9.894
16.4796 9.814
16.4947 9.876
16.5099 9.899
16.5251 9.846
16.5403 9.905
16.5554 9.794
16.5706 9.744
16.5858 9.965
16.6010 9.920
16.6161 9.857
16.6313 9.812
16.6465 9.911
16.6617 9.930
16.6768 9.852
16.6920 9.937
16.7072 10.016
16.7224 10.053
16.7375 10.144
16.7527 10.198
16.7679 10.154
16.7831 10.157
16.7982 10.086
16.8134 9.985
16.8286 9.875
16.8438 9.882
16.8589 9.864
16.8741 9.809
16.8893 9.950
16.9045 10.029
16.9196 9.883
16.9348 10.081
16.9500 9.994
16.9652 9.964
16.9803 9.911
16.9955 9.694
17.0107 10.066
17.0259 10.247
17.0410 10.221
17.0562 10.420
17.0714 10.738
17.0866 10.725
17.1017 10.862
17.1169 11.148
17.1321 11.399
17.1473 11.447
17.1624 11.873
17.1776 12.590
17.1928 13.487
17.2080 14.174
17.2231 15.123
17.2383 16.370
17.2535 17.655
17.2687 18.796
17.2838 18.916
17.2990 18.028
17.3142 17.037
17.3294 16.410
17.3445 16.161
17.3597 16.090
17.3749 15.885
17.3901 15.209
17.4052 14.141
17.4204 13.259
17.4356 12.453
17.4508 11.935
17.4659 11.669
17.4811 11.449
17.4963 11.086
17.5115 10.654
17.5266 10.633
17.5418 10.533
17.5570 10.347
17.5722 10.358
17.5873 10.412
17.6025 10.399
17.6177 10.187
17.6329 10.218
17.6480 10.214
17.6632 9.936
17.6784 9.936
17.6936 10.107
17.7087 10.202
17.7239 10.308
17.7391 10.376
17.7543 10.457
17.7694 10.455
17.7846 10.421
17.7998 10.517
17.8150 10.719
17.8301 10.818
17.8453 10.779
17.8605 10.609
17.8757 10.773
17.8908 10.865
17.9060 10.881
17.9212 11.053
17.9364 11.030
17.9515 10.733
17.9667 10.704
17.9819 10.709
17.9971 10.538
18.0122 10.727
18.0274 10.838
18.0426 10.554
18.0578 10.309
18.0729 10.321
18.0881 10.188
18.1033 10.071
18.1185 9.942
18.1336 9.843
18.1488 9.911
18.1640 10.066
18.1792 10.140
18.1943 10.013
18.2095 9.790
18.2247 10.079
18.2399 10.228
18.2550 10.134
18.2702 10.136
18.2854 10.012
18.3006 9.798
18.3157 9.814
18.3309 9.887
18.3461 9.806
18.3613 9.849
18.3764 9.959
18.3916 9.953
18.4068 9.688
18.4220 9.624
18.4371 9.841
18.4523 9.924
18.4675 9.932
18.4827 9.942
18.4978 9.821
18.5130 9.899
18.5282 9.788
18.5434 9.527
18.5585 9.619
18.5737 9.750
18.5889 9.794
18.6041 9.826
18.6192 9.899
18.6344 9.996
18.6496 9.925
18.6648 9.681
18.6799 9.699
18.6951 9.857
18.7103 9.637
18.7255 9.416
18.7406 9.512
18.7558 9.660
18.7710 9.676
18.7862 9.872
18.8013 9.779
18.8165 9.565
18.8317 9.878
18.8469 9.941
18.8620 9.850
18.8772 10.150
18.8924 10.017
18.9076 9.950
18.9227 9.962
18.9379 10.152
18.9531 10.140
18.9683 9.852
18.9834 10.172
18.9986 10.264
19.0138 9.979
19.0290 10.052
19.0441 9.999
19.0593 10.229
19.0745 10.178
19.0897 10.107
19.1048 10.444
19.1200 10.734
19.1352 10.760
19.1504 10.543
19.1655 10.468
19.1807 10.575
19.1959 10.748
19.2111 10.879
19.2262 10.653
19.2414 10.712
19.2566 10.886
19.2718 10.764
19.2869 10.961
19.3021 11.042
19.3173 11.150
19.3325 10.954
19.3476 10.890
19.3628 10.747
19.3780 10.831
19.3932 11.124
19.4083 11.218
19.4235 11.347
19.4387 11.213
19.4539 11.268
19.4690 11.360
19.4842 11.330
19.4994 11.441
19.5146 11.623
19.5297 11.720
19.5449 11.538
19.5601 11.497
19.5753 11.740
19.5904 11.840
19.6056 11.673
19.6208 11.443
19.6360 11.346
19.6511 11.526
19.6663 11.778
19.6815 11.585
19.6967 11.554
19.7118 11.921
19.7270 11.745
19.7422 11.403
19.7574 11.595
19.7725 11.745
19.7877 11.852
19.8029 11.804
19.8180 11.954
19.8332 12.034
19.8484 12.057
19.8636 12.315
19.8787 12.524
19.8939 12.819
19.9091 12.965
19.9243 13.414
19.9394 13.893
19.9546 14.302
19.9698 14.690
19.9850 14.758
20.0001 14.785
20.0153 14.469
20.0305 13.979
20.0457 13.811
20.0608 13.584
20.0760 13.605
20.0912 13.635
20.1064 13.707
20.1215 13.570
20.1367 13.293
20.1519 13.134
20.1671 13.009
20.1822 12.759
20.1974 12.652
20.2126 12.647
20.2278 12.558
20.2429 12.583
20.2581 12.377
20.2733 12.123
20.2885 11.910
20.3036 11.537
20.3188 11.467
20.3340 11.518
20.3492 11.680
20.3643 11.581
20.3795 11.348
20.3947 11.296
20.4099 11.182
20.4250 11.015
20.4402 10.939
20.4554 10.778
20.4706 10.889
20.4857 10.931
20.5009 10.909
20.5161 10.928
20.5313 10.616
20.5464 10.515
20.5616 10.540
20.5768 10.606
20.5920 10.220
20.6071 10.405
20.6223 10.326
20.6375 10.444
20.6527 10.588
20.6678 10.673
20.6830 10.469
20.6982 10.573
20.7134 10.316
20.7285 10.361
20.7437 10.395
20.7589 10.397
20.7741 10.561
20.7892 10.172
20.8044 10.368
20.8196 10.340
20.8348 10.472
20.8499 10.548
20.8651 10.350
20.8803 10.163
20.8955 10.269
20.9106 10.523
20.9258 10.336
20.9410 10.265
20.9562 10.095
20.9713 10.394
20.9865 10.536
21.0017 10.408
21.0169 10.234
21.0320 10.355
21.0472 10.241
21.0624 10.073
21.0776 10.037
21.0927 10.026
21.1079 9.807
21.1231 10.231
21.1383 10.046
21.1534 9.568
21.1686 10.008
21.1838 10.030
21.1990 9.931
21.2141 9.938
21.2293 9.833
21.2445 9.797
21.2597 9.528
21.2748 9.741
21.2900 9.540
21.3052 9.354
21.3204 9.455
21.3355 9.611
21.3507 9.441
21.3659 9.349
21.3811 9.857
21.3962 9.509
21.4114 9.376
21.4266 9.384
21.4418 9.429
21.4569 9.475
21.4721 9.710
21.4873 9.386
21.5025 9.422
21.5176 9.336
21.5328 9.163
21.5480 9.024
21.5632 9.038
21.5783 9.117
21.5935 9.133
21.6087 9.304
21.6239 9.413
21.6390 9.077
21.6542 9.493
21.6694 9.535
21.6846 9.248
21.6997 9.193
21.7149 9.197
21.7301 9.154
21.7453 9.012
21.7604 9.105
21.7756 9.208
21.7908 9.234
21.8060 9.269
21.8211 9.069
21.8363 9.139
21.8515 9.147
21.8667 9.178
21.8818 9.267
21.8970 9.134
21.9122 8.875
21.9274 8.920
21.9425 8.858
21.9577 8.886
21.9729 8.938
21.9881 8.799
22.0032 8.681
22.0184 8.719
22.0336 8.644
22.0488 8.597
22.0639 8.760
22.0791 8.848
22.0943 8.833
22.1095 8.845
22.1246 8.746
22.1398 8.549
22.1550 8.635
22.1702 8.804
22.1853 8.851
22.2005 8.702
22.2157 8.699
22.2309 8.719
22.2460 8.763
22.2612 8.569
22.2764 8.485
22.2916 8.702
22.3067 8.691
22.3219 8.410
22.3371 8.569
22.3523 8.650
22.3674 8.355
22.3826 8.368
22.3978 8.461
22.4130 8.545
22.4281 8.689
22.4433 8.453
22.4585 8.718
22.4737 8.521
22.4888 8.532
22.5040 8.758
22.5192 8.537
22.5344 8.814
22.5495 8.298
22.5647 8.553
22.5799 8.618
22.5951 8.657
22.6102 8.487
22.6254 8.213
22.6406 8.627
22.6558 8.849
22.6709 8.549
22.6861 8.651
22.7013 8.383
22.7165 8.311
22.7316 6.386
