'Id: "" Comment: "" Operator: "Lab Manager" Anode: "Mo" Scantype: "Still (Eiger2R_500K (1D mode))" TimePerStep: "300" X: "11.8" Y: "9.4" Z: "11.284" 
7.2532 18.947
7.2684 18.848
7.2836 18.899
7.2987 18.626
7.3139 19.222
7.3291 18.975
7.3443 19.022
7.3594 19.133
7.3746 18.892
7.3898 19.516
7.4050 19.496
7.4201 19.170
7.4353 19.264
7.4505 19.697
7.4657 19.283
7.4808 19.382
7.4960 19.655
7.5112 19.483
7.5264 19.762
7.5415 19.886
7.5567 19.676
7.5719 20.271
7.5871 20.123
7.6022 19.778
7.6174 19.634
7.6326 19.950
7.6478 20.391
7.6629 20.334
7.6781 20.316
7.6933 20.149
7.7085 20.273
7.7236 20.410
7.7388 20.588
7.7540 20.534
7.7692 20.214
7.7843 20.174
7.7995 20.708
7.8147 20.784
7.8299 20.663
7.8450 20.674
7.8602 20.918
7.8754 21.021
7.8905 20.851
7.9057 20.814
7.9209 20.728
7.9361 20.875
7.9512 20.817
7.9664 20.642
7.9816 20.607
7.9968 21.044
8.0119 21.208
8.0271 21.084
8.0423 21.439
8.0575 21.397
8.0726 21.437
8.0878 21.577
8.1030 21.282
8.1182 21.114
8.1333 21.384
8.1485 21.288
8.1637 21.102
8.1789 21.419
8.1940 21.694
8.2092 21.758
8.2244 21.509
8.2396 21.614
8.2547 21.667
8.2699 22.119
8.2851 21.730
8.3003 21.854
8.3154 21.670
8.3306 21.569
8.3458 21.463
8.3610 21.515
8.3761 21.756
8.3913 22.074
8.4065 21.761
8.4217 21.830
8.4368 21.815
8.4520 21.823
8.4672 22.008
8.4824 21.978
8.4975 21.972
8.5127 22.064
8.5279 21.906
8.5431 22.472
8.5582 22.111
8.5734 22.412
8.5886 22.063
8.6038 22.347
8.6189 21.916
8.6341 22.016
8.6493 22.134
8.6645 22.329
8.6796 21.966
8.6948 22.293
8.7100 22.795
8.7252 22.354
8.7403 22.692
8.7555 22.626
8.7707 22.339
8.7859 22.139
8.8010 22.303
8.8162 22.740
8.8314 22.233
8.8466 22.430
8.8617 22.418
8.8769 22.868
8.8921 22.515
8.9073 22.774
8.9224 22.823
8.9376 22.631
8.9528 22.803
8.9680 22.468
8.9831 22.627
8.9983 22.707
9.0135 22.558
9.0287 22.879
9.0438 22.886
9.0590 22.557
9.0742 22.558
9.0894 22.618
9.1045 22.820
9.1197 22.640
9.1349 22.780
9.1501 22.583
9.1652 22.612
9.1804 22.802
9.1956 22.743
9.2108 22.999
9.2259 23.094
9.2411 23.249
9.2563 22.890
9.2715 22.905
9.2866 22.859
9.3018 22.761
9.3170 22.773
9.3322 23.272
9.3473 23.053
9.3625 23.192
9.3777 23.427
9.3929 23.227
9.4080 23.068
9.4232 23.301
9.4384 23.278
9.4536 23.116
9.4687 23.252
9.4839 23.405
9.4991 22.939
9.5143 22.699
9.5294 23.310
9.5446 23.415
9.5598 23.068
9.5750 23.328
9.5901 23.297
9.6053 23.466
9.6205 23.382
9.6357 23.738
9.6508 23.842
9.6660 23.638
9.6812 23.851
9.6964 23.781
9.7115 23.624
9.7267 23.690
9.7419 23.993
9.7571 23.797
9.7722 23.650
9.7874 24.011
9.8026 23.879
9.8178 23.736
9.8329 23.943
9.8481 23.922
9.8633 23.497
9.8785 23.389
9.8936 23.549
9.9088 23.415
9.9240 23.438
9.9392 23.486
9.9543 23.288
9.9695 23.033
9.9847 23.145
9.9999 22.905
10.0150 22.784
10.0302 22.783
10.0454 23.327
10.0606 23.578
10.0757 23.122
10.0909 22.953
10.1061 23.332
10.1213 23.855
10.1364 23.418
10.1516 23.159
10.1668 23.470
10.1820 23.395
10.1971 23.052
10.2123 23.139
10.2275 22.990
10.2427 22.534
10.2578 23.000
10.2730 23.443
10.2882 23.024
10.3034 22.824
10.3185 22.851
10.3337 22.720
10.3489 22.674
10.3641 22.599
10.3792 22.910
10.3944 23.065
10.4096 22.928
10.4248 22.555
10.4399 22.596
10.4551 22.811
10.4703 22.696
10.4855 22.803
10.5006 23.022
10.5158 23.007
10.5310 22.745
10.5462 22.476
10.5613 22.416
10.5765 22.338
10.5917 22.565
10.6069 22.630
10.6220 22.670
10.6372 22.458
10.6524 22.560
10.6676 22.597
10.6827 22.430
10.6979 22.646
10.7131 22.671
10.7283 22.377
10.7434 22.681
10.7586 22.763
10.7738 22.446
10.7890 22.223
10.8041 22.384
10.8193 22.169
10.8345 22.397
10.8497 22.417
10.8648 22.231
10.8800 22.195
10.8952 22.307
10.9104 21.925
10.9255 22.076
10.9407 21.933
10.9559 21.853
10.9711 22.104
10.9862 22.129
11.0014 21.926
11.0166 21.882
11.0318 22.045
11.0469 21.950
11.0621 21.922
11.0773 22.028
11.0925 21.782
11.1076 21.537
11.1228 21.794
11.1380 21.775
11.1532 21.729
11.1683 21.854
11.1835 21.503
11.1987 21.259
11.2139 21.337
11.2290 21.647
11.2442 21.497
11.2594 21.488
11.2746 21.724
11.2897 21.739
11.3049 21.498
11.3201 21.358
11.3353 21.341
11.3504 21.279
11.3656 21.196
11.3808 21.203
11.3960 21.155
11.4111 21.534
11.4263 21.522
11.4415 21.268
11.4567 20.695
11.4718 20.986
11.4870 21.283
11.5022 21.139
11.5174 20.906
11.5325 20.713
11.5477 20.974
11.5629 21.214
11.5781 20.939
11.5932 20.806
11.6084 20.642
11.6236 20.744
11.6388 20.481
11.6539 20.652
11.6691 20.753
11.6843 20.146
11.6995 20.412
11.7146 20.495
11.7298 20.282
11.7450 20.422
11.7602 20.521
11.7753 20.050
11.7905 20.350
11.8057 20.122
11.8209 19.998
11.8360 19.871
11.8512 19.799
11.8664 20.002
11.8816 20.225
11.8967 19.689
11.9119 19.584
11.9271 19.515
11.9423 19.646
11.9574 19.168
11.9726 19.383
11.9878 19.419
12.0030 19.093
12.0181 19.147
12.0333 18.933
12.0485 18.838
12.0637 18.679
12.0788 18.801
12.0940 18.822
12.1092 18.378
12.1244 18.325
12.1395 18.459
12.1547 18.823
12.1699 18.905
12.1851 18.633
12.2002 18.487
12.2154 18.348
12.2306 18.149
12.2458 18.126
12.2609 18.096
12.2761 17.880
12.2913 17.493
12.3065 17.309
12.3216 17.388
12.3368 17.691
12.3520 17.577
12.3672 17.313
12.3823 17.071
12.3975 17.098
12.4127 17.115
12.4279 16.922
12.4430 16.849
12.4582 16.725
12.4734 16.698
12.4886 16.613
12.5037 16.842
12.5189 16.864
12.5341 16.406
12.5493 16.383
12.5644 16.364
12.5796 16.425
12.5948 16.360
12.6100 16.116
12.6251 16.149
12.6403 16.160
12.6555 15.846
12.6707 15.651
12.6858 15.592
12.7010 15.765
12.7162 15.607
12.7314 15.455
12.7465 15.592
12.7617 15.541
12.7769 15.339
12.7921 15.304
12.8072 15.268
12.8224 15.295
12.8376 15.325
12.8528 15.114
12.8679 15.052
12.8831 14.940
12.8983 14.539
12.9135 14.700
12.9286 14.863
12.9438 14.573
12.9590 14.336
12.9742 14.340
12.9893 14.304
13.0045 14.253
13.0197 14.278
13.0349 14.259
13.0500 14.212
13.0652 14.167
13.0804 14.255
13.0956 14.052
13.1107 13.689
13.1259 13.774
13.1411 13.846
13.1563 13.829
13.1714 13.581
13.1866 13.477
13.2018 13.720
13.2170 13.822
13.2321 13.653
13.2473 13.547
13.2625 13.476
13.2777 13.209
13.2928 13.190
13.3080 13.303
13.3232 13.372
13.3384 13.241
13.3535 13.339
13.3687 13.061
13.3839 12.966
13.3991 13.440
13.4142 13.230
13.4294 12.965
13.4446 12.962
13.4598 12.713
13.4749 12.558
13.4901 12.709
13.5053 12.703
13.5205 12.654
13.5356 12.864
13.5508 12.752
13.5660 12.546
13.5812 12.346
13.5963 12.499
13.6115 12.529
13.6267 12.308
13.6419 12.309
13.6570 12.467
13.6722 12.274
13.6874 12.277
13.7026 12.168
13.7177 12.137
13.7329 12.280
13.7481 12.202
13.7633 11.991
13.7784 11.953
13.7936 12.103
13.8088 12.268
13.8239 12.430
13.8391 12.292
13.8543 12.044
13.8695 12.293
13.8846 12.507
13.8998 12.368
13.9150 12.034
13.9302 12.238
13.9453 12.385
13.9605 12.108
13.9757 11.889
13.9909 11.589
14.0060 11.671
14.0212 11.778
14.0364 11.420
14.0516 11.306
14.0667 11.767
14.0819 11.876
14.0971 11.618
14.1123 11.627
14.1274 11.362
14.1426 11.474
14.1578 11.545
14.1730 11.642
14.1881 11.498
14.2033 11.731
14.2185 11.629
14.2337 11.488
14.2488 11.705
14.2640 12.145
14.2792 11.899
14.2944 11.920
14.3095 12.238
14.3247 12.519
14.3399 12.354
14.3551 12.467
14.3702 12.922
14.3854 12.882
14.4006 13.365
14.4158 13.279
14.4309 13.196
14.4461 12.814
14.4613 12.685
14.4765 12.532
14.4916 12.323
14.5068 12.290
14.5220 11.657
14.5372 11.411
14.5523 11.335
14.5675 10.997
14.5827 10.968
14.5979 11.161
14.6130 11.200
14.6282 11.053
14.6434 10.888
14.6586 10.877
14.6737 10.841
14.6889 11.012
14.7041 10.964
14.7193 10.768
14.7344 10.572
14.7496 10.856
14.7648 10.852
14.7800 10.421
14.7951 10.403
14.8103 10.229
14.8255 10.931
14.8407 10.535
14.8558 10.522
14.8710 10.699
14.8862 10.440
14.9014 10.580
14.9165 10.742
14.9317 10.899
14.9469 10.681
14.9621 10.464
14.9772 10.283
14.9924 10.023
15.0076 10.598
15.0228 10.141
15.0379 10.567
15.0531 10.315
15.0683 10.053
15.0835 10.154
15.0986 10.621
15.1138 10.152
15.1290 10.099
15.1442 10.147
15.1593 10.348
15.1745 10.364
15.1897 10.195
15.2049 10.342
15.2200 10.010
15.2352 10.203
15.2504 10.208
15.2656 9.949
15.2807 9.958
15.2959 10.032
15.3111 10.089
15.3263 10.405
15.3414 10.022
15.3566 10.518
15.3718 10.085
15.3870 10.357
15.4021 10.417
15.4173 10.313
15.4325 10.236
15.4477 10.229
15.4628 10.168
15.4780 10.153
15.4932 9.972
15.5084 10.184
15.5235 10.285
15.5387 10.077
15.5539 9.861
15.5691 9.705
15.5842 9.887
15.5994 9.920
15.6146 9.733
15.6298 9.887
15.6449 9.822
15.6601 9.777
15.6753 9.781
15.6905 9.737
15.7056 9.939
15.7208 9.913
15.7360 9.871
15.7512 9.656
15.7663 9.668
15.7815 9.602
15.7967 9.940
15.8119 9.940
15.8270 9.953
15.8422 9.826
15.8574 9.978
15.8726 9.757
15.8877 9.557
15.9029 9.400
15.9181 9.466
15.9333 9.606
15.9484 9.829
15.9636 9.536
15.9788 9.344
15.9940 9.718
16.0091 10.017
16.0243 9.707
16.0395 9.622
16.0547 9.877
16.0698 9.718
16.0850 9.585
16.1002 9.557
16.1154 9.608
16.1305 9.610
16.1457 9.521
16.1609 9.515
16.1761 9.567
16.1912 9.859
16.2064 9.775
16.2216 9.506
16.2368 9.706
16.2519 9.749
16.2671 9.855
16.2823 10.084
16.2975 9.949
16.3126 9.798
16.3278 9.815
16.3430 9.776
16.3582 9.606
16.3733 9.733
16.3885 10.099
16.4037 9.875
16.4189 10.065
16.4340 9.876
16.4492 9.564
16.4644 9.568
16.4796 9.855
16.4947 9.725
16.5099 9.686
16.5251 9.652
16.5403 9.604
16.5554 9.523
16.5706 9.834
16.5858 9.727
16.6010 9.751
16.6161 9.909
16.6313 9.863
16.6465 9.739
16.6617 9.761
16.6768 9.793
16.6920 9.820
16.7072 9.854
16.7224 9.874
16.7375 10.079
16.7527 10.219
16.7679 10.187
16.7831 10.000
16.7982 9.989
16.8134 9.925
16.8286 9.890
16.8438 9.854
16.8589 9.735
16.8741 9.762
16.8893 9.812
16.9045 9.839
16.9196 9.584
16.9348 9.534
16.9500 9.710
16.9652 9.837
16.9803 9.752
16.9955 9.673
17.0107 9.682
17.0259 9.862
17.0410 9.850
17.0562 10.064
17.0714 10.183
17.0866 10.269
17.1017 10.521
17.1169 10.745
17.1321 11.097
17.1473 11.398
17.1624 11.567
17.1776 12.147
17.1928 13.110
17.2080 14.032
17.2231 15.120
17.2383 16.254
17.2535 17.544
17.2687 18.526
17.2838 18.576
17.2990 17.844
17.3142 17.020
17.3294 16.577
17.3445 16.189
17.3597 16.212
17.3749 15.859
17.3901 15.037
17.4052 14.335
17.4204 13.544
17.4356 12.551
17.4508 11.916
17.4659 11.749
17.4811 11.716
17.4963 11.668
17.5115 11.332
17.5266 11.173
17.5418 11.043
17.5570 11.128
17.5722 11.089
17.5873 11.003
17.6025 11.060
17.6177 11.135
17.6329 11.219
17.6480 11.296
17.6632 11.509
17.6784 11.636
17.6936 11.681
17.7087 11.473
17.7239 11.194
17.7391 11.015
17.7543 10.908
17.7694 10.858
17.7846 10.742
17.7998 10.653
17.8150 10.708
17.8301 10.697
17.8453 10.293
17.8605 10.138
17.8757 10.333
17.8908 10.370
17.9060 10.294
17.9212 10.352
17.9364 10.094
17.9515 10.025
17.9667 10.203
17.9819 10.204
17.9971 10.386
18.0122 10.472
18.0274 10.135
18.0426 10.071
18.0578 10.139
18.0729 10.109
18.0881 10.137
18.1033 9.937
18.1185 9.833
18.1336 10.114
18.1488 10.183
18.1640 9.833
18.1792 9.657
18.1943 9.868
18.2095 9.751
18.2247 9.612
18.2399 9.784
18.2550 9.718
18.2702 9.845
18.2854 9.973
18.3006 10.057
18.3157 10.193
18.3309 9.940
18.3461 9.804
18.3613 9.914
18.3764 9.972
18.3916 9.822
18.4068 9.595
18.4220 9.576
18.4371 9.703
18.4523 9.931
18.4675 9.925
18.4827 9.815
18.4978 9.829
18.5130 9.845
18.5282 9.517
18.5434 9.336
18.5585 9.625
18.5737 9.690
18.5889 9.733
18.6041 9.601
18.6192 9.741
18.6344 9.838
18.6496 9.823
18.6648 9.875
18.6799 9.885
18.6951 9.666
18.7103 9.869
18.7255 9.923
18.7406 9.811
18.7558 9.922
18.7710 9.954
18.7862 9.913
18.8013 9.852
18.8165 9.823
18.8317 10.001
18.8469 9.878
18.8620 9.984
18.8772 10.153
18.8924 10.150
18.9076 9.926
18.9227 9.934
18.9379 10.028
18.9531 10.176
18.9683 10.158
18.9834 10.070
18.9986 10.136
19.0138 10.042
19.0290 10.143
19.0441 10.150
19.0593 10.104
19.0745 10.255
19.0897 10.473
19.1048 10.173
19.1200 10.160
19.1352 10.345
19.1504 10.592
19.1655 10.815
19.1807 10.581
19.1959 10.422
19.2111 10.585
19.2262 10.837
19.2414 11.029
19.2566 10.877
19.2718 10.695
19.2869 10.800
19.3021 10.741
19.3173 10.956
19.3325 11.150
19.3476 11.120
19.3628 11.006
19.3780 10.939
19.3932 11.155
19.4083 11.138
19.4235 11.078
19.4387 11.390
19.4539 11.316
19.4690 11.235
19.4842 11.314
19.4994 11.448
19.5146 11.483
19.5297 11.425
19.5449 11.544
19.5601 11.867
19.5753 11.876
19.5904 11.726
19.6056 11.670
19.6208 11.564
19.6360 11.494
19.6511 11.487
19.6663 11.576
19.6815 11.707
19.6967 11.768
19.7118 11.717
19.7270 11.920
19.7422 11.884
19.7574 11.776
19.7725 11.994
19.7877 11.797
19.8029 11.554
19.8180 11.886
19.8332 12.349
19.8484 12.351
19.8636 12.375
19.8787 12.625
19.8939 12.677
19.9091 13.127
19.9243 13.593
19.9394 13.917
19.9546 14.213
19.9698 14.368
19.9850 14.470
20.0001 14.355
20.0153 14.200
20.0305 14.062
20.0457 13.734
20.0608 13.639
20.0760 13.759
20.0912 13.799
20.1064 13.758
20.1215 13.481
20.1367 13.131
20.1519 12.832
20.1671 12.773
20.1822 12.757
20.1974 12.736
20.2126 13.057
20.2278 12.815
20.2429 12.520
20.2581 12.378
20.2733 12.060
20.2885 11.989
20.3036 12.189
20.3188 12.273
20.3340 11.914
20.3492 11.939
20.3643 12.049
20.3795 12.108
20.3947 11.862
20.4099 11.728
20.4250 11.916
20.4402 11.968
20.4554 12.025
20.4706 11.700
20.4857 11.751
20.5009 11.473
20.5161 11.534
20.5313 11.460
20.5464 11.489
20.5616 11.251
20.5768 11.170
20.5920 11.361
20.6071 11.304
20.6223 11.205
20.6375 10.887
20.6527 10.888
20.6678 10.715
20.6830 10.660
20.6982 10.672
20.7134 10.297
20.7285 10.392
20.7437 10.314
20.7589 10.501
20.7741 10.490
20.7892 10.372
20.8044 10.684
20.8196 10.382
20.8348 10.410
20.8499 10.495
20.8651 10.509
20.8803 10.311
20.8955 10.386
20.9106 10.402
20.9258 10.296
20.9410 10.075
20.9562 10.348
20.9713 10.191
20.9865 10.091
21.0017 10.002
21.0169 9.674
21.0320 10.083
21.0472 9.863
21.0624 10.044
21.0776 9.637
21.0927 9.844
21.1079 10.103
21.1231 9.955
21.1383 9.595
21.1534 9.808
21.1686 9.884
21.1838 9.770
21.1990 9.804
21.2141 9.706
21.2293 9.788
21.2445 9.965
21.2597 9.206
21.2748 9.383
21.2900 9.766
21.3052 9.712
21.3204 9.537
21.3355 9.507
21.3507 9.491
21.3659 9.754
21.3811 9.205
21.3962 9.229
21.4114 9.263
21.4266 9.364
21.4418 9.476
21.4569 9.443
21.4721 9.360
21.4873 9.590
21.5025 9.477
21.5176 9.376
21.5328 9.207
21.5480 9.066
21.5632 9.326
21.5783 9.293
21.5935 8.996
21.6087 9.201
21.6239 9.270
21.6390 9.375
21.6542 9.044
21.6694 9.168
21.6846 9.017
21.6997 9.000
21.7149 9.341
21.7301 9.015
21.7453 8.813
21.7604 9.078
21.7756 9.189
21.7908 9.045
21.8060 8.882
21.8211 9.267
21.8363 9.024
21.8515 8.836
21.8667 8.979
21.8818 9.144
21.8970 9.163
21.9122 8.970
21.9274 8.787
21.9425 8.774
21.9577 8.873
21.9729 8.975
21.9881 9.060
22.0032 8.991
22.0184 8.912
22.0336 8.907
22.0488 8.887
22.0639 8.904
22.0791 8.907
22.0943 8.819
22.1095 8.758
22.1246 8.532
22.1398 8.526
22.1550 8.715
22.1702 8.668
22.1853 8.781
22.2005 8.832
22.2157 8.508
22.2309 8.519
22.2460 8.573
22.2612 8.412
22.2764 8.511
22.2916 8.769
22.3067 8.640
22.3219 8.608
22.3371 8.576
22.3523 8.625
22.3674 8.390
22.3826 8.467
22.3978 8.736
22.4130 8.673
22.4281 8.311
22.4433 8.388
22.4585 8.563
22.4737 8.473
22.4888 8.096
22.5040 8.324
22.5192 8.052
22.5344 8.282
22.5495 8.355
22.5647 8.482
22.5799 8.544
22.5951 8.677
22.6102 8.490
22.6254 8.306
22.6406 8.435
22.6558 8.230
22.6709 8.428
22.6861 8.436
22.7013 8.002
22.7165 7.703
22.7316 6.532
