'Id: "" Comment: "" Operator: "Lab Manager" Anode: "Mo" Scantype: "Still (Eiger2R_500K (1D mode))" TimePerStep: "300" X: "11.8" Y: "9.4" Z: "11.284" 
7.2532 19.277
7.2684 18.652
7.2836 18.582
7.2987 18.701
7.3139 18.634
7.3291 18.892
7.3443 18.973
7.3594 19.322
7.3746 19.140
7.3898 19.303
7.4050 19.225
7.4201 19.648
7.4353 19.450
7.4505 19.469
7.4657 19.217
7.4808 19.227
7.4960 19.645
7.5112 19.643
7.5264 19.634
7.5415 19.730
7.5567 19.779
7.5719 19.761
7.5871 19.880
7.6022 19.752
7.6174 19.959
7.6326 19.893
7.6478 20.087
7.6629 19.827
7.6781 19.893
7.6933 20.226
7.7085 19.849
7.7236 20.122
7.7388 20.331
7.7540 20.460
7.7692 20.602
7.7843 20.284
7.7995 19.823
7.8147 20.089
7.8299 20.306
7.8450 20.330
7.8602 20.431
7.8754 20.594
7.8905 20.428
7.9057 20.453
7.9209 20.670
7.9361 20.702
7.9512 21.103
7.9664 20.919
7.9816 20.600
7.9968 20.691
8.0119 20.941
8.0271 20.776
8.0423 21.032
8.0575 20.962
8.0726 21.073
8.0878 21.300
8.1030 20.999
8.1182 21.124
8.1333 21.436
8.1485 21.663
8.1637 21.563
8.1789 21.195
8.1940 21.256
8.2092 21.061
8.2244 21.154
8.2396 21.714
8.2547 21.323
8.2699 21.451
8.2851 21.511
8.3003 21.633
8.3154 21.509
8.3306 21.442
8.3458 21.359
8.3610 21.591
8.3761 21.867
8.3913 21.995
8.4065 21.667
8.4217 21.128
8.4368 21.525
8.4520 21.801
8.4672 21.407
8.4824 21.922
8.4975 21.802
8.5127 21.624
8.5279 22.049
8.5431 22.109
8.5582 21.771
8.5734 22.311
8.5886 22.181
8.6038 21.709
8.6189 21.952
8.6341 22.025
8.6493 21.896
8.6645 21.651
8.6796 22.202
8.6948 22.376
8.7100 22.523
8.7252 22.154
8.7403 21.627
8.7555 21.904
8.7707 21.995
8.7859 22.785
8.8010 22.199
8.8162 22.681
8.8314 22.466
8.8466 22.099
8.8617 21.858
8.8769 22.305
8.8921 22.039
8.9073 22.359
8.9224 22.703
8.9376 22.751
8.9528 23.030
8.9680 22.862
8.9831 22.509
8.9983 22.493
9.0135 22.882
9.0287 22.519
9.0438 22.313
9.0590 22.804
9.0742 22.606
9.0894 22.789
9.1045 22.622
9.1197 22.311
9.1349 22.325
9.1501 22.562
9.1652 22.573
9.1804 22.846
9.1956 22.781
9.2108 22.777
9.2259 22.952
9.2411 22.861
9.2563 22.911
9.2715 23.011
9.2866 22.952
9.3018 23.099
9.3170 23.127
9.3322 22.654
9.3473 22.779
9.3625 22.850
9.3777 22.792
9.3929 23.042
9.4080 22.679
9.4232 22.732
9.4384 22.908
9.4536 22.828
9.4687 22.925
9.4839 22.803
9.4991 23.175
9.5143 23.103
9.5294 22.933
9.5446 22.982
9.5598 22.790
9.5750 22.998
9.5901 23.023
9.6053 23.153
9.6205 23.210
9.6357 23.184
9.6508 23.421
9.6660 23.490
9.6812 23.496
9.6964 23.912
9.7115 24.145
9.7267 24.015
9.7419 23.949
9.7571 23.903
9.7722 23.728
9.7874 23.657
9.8026 23.694
9.8178 23.376
9.8329 23.301
9.8481 23.082
9.8633 22.900
9.8785 23.148
9.8936 23.301
9.9088 23.058
9.9240 23.028
9.9392 23.018
9.9543 23.016
9.9695 23.313
9.9847 23.334
9.9999 23.267
10.0150 23.080
10.0302 23.292
10.0454 23.441
10.0606 23.519
10.0757 23.340
10.0909 23.136
10.1061 23.026
10.1213 23.187
10.1364 23.151
10.1516 23.420
10.1668 23.434
10.1820 23.426
10.1971 23.242
10.2123 23.139
10.2275 23.102
10.2427 23.089
10.2578 23.152
10.2730 22.658
10.2882 22.446
10.3034 22.718
10.3185 22.785
10.3337 22.819
10.3489 22.922
10.3641 22.975
10.3792 22.801
10.3944 22.635
10.4096 22.429
10.4248 22.510
10.4399 22.616
10.4551 22.672
10.4703 22.646
10.4855 22.460
10.5006 22.709
10.5158 22.701
10.5310 22.470
10.5462 22.551
10.5613 22.538
10.5765 22.487
10.5917 22.479
10.6069 22.176
10.6220 22.236
10.6372 22.634
10.6524 22.251
10.6676 22.285
10.6827 22.451
10.6979 22.328
10.7131 22.488
10.7283 22.505
10.7434 22.541
10.7586 22.200
10.7738 22.073
10.7890 22.545
10.8041 22.108
10.8193 22.104
10.8345 21.814
10.8497 21.775
10.8648 21.702
10.8800 21.809
10.8952 22.217
10.9104 22.356
10.9255 22.041
10.9407 22.047
10.9559 21.639
10.9711 21.716
10.9862 22.125
11.0014 22.331
11.0166 22.159
11.0318 22.095
11.0469 22.245
11.0621 21.830
11.0773 21.860
11.0925 22.190
11.1076 21.859
11.1228 21.418
11.1380 21.546
11.1532 22.090
11.1683 21.598
11.1835 21.887
11.1987 21.710
11.2139 21.590
11.2290 21.621
11.2442 21.692
11.2594 21.723
11.2746 21.332
11.2897 21.761
11.3049 21.454
11.3201 21.699
11.3353 21.420
11.3504 21.308
11.3656 21.457
11.3808 21.509
11.3960 21.547
11.4111 21.413
11.4263 21.490
11.4415 21.593
11.4567 21.514
11.4718 21.234
11.4870 21.264
11.5022 21.135
11.5174 21.105
11.5325 20.865
11.5477 20.555
11.5629 20.649
11.5781 20.657
11.5932 20.600
11.6084 20.779
11.6236 20.690
11.6388 20.723
11.6539 20.434
11.6691 20.272
11.6843 20.895
11.6995 20.804
11.7146 20.779
11.7298 20.289
11.7450 19.898
11.7602 20.179
11.7753 20.213
11.7905 20.228
11.8057 20.297
11.8209 20.099
11.8360 20.057
11.8512 19.761
11.8664 19.544
11.8816 19.507
11.8967 19.524
11.9119 19.536
11.9271 19.817
11.9423 19.457
11.9574 19.503
11.9726 19.474
11.9878 19.323
12.0030 19.175
12.0181 19.410
12.0333 19.185
12.0485 18.849
12.0637 18.322
12.0788 18.618
12.0940 19.139
12.1092 19.102
12.1244 18.926
12.1395 18.464
12.1547 18.404
12.1699 18.744
12.1851 18.686
12.2002 18.128
12.2154 17.988
12.2306 17.981
12.2458 17.813
12.2609 17.624
12.2761 17.732
12.2913 18.049
12.3065 17.762
12.3216 17.501
12.3368 17.442
12.3520 17.453
12.3672 17.472
12.3823 17.370
12.3975 17.141
12.4127 17.094
12.4279 16.923
12.4430 17.132
12.4582 17.075
12.4734 16.687
12.4886 16.667
12.5037 16.580
12.5189 16.695
12.5341 16.638
12.5493 16.578
12.5644 16.305
12.5796 16.213
12.5948 16.466
12.6100 16.421
12.6251 16.216
12.6403 16.066
12.6555 15.688
12.6707 15.730
12.6858 15.812
12.7010 15.709
12.7162 15.482
12.7314 15.798
12.7465 15.670
12.7617 15.352
12.7769 15.325
12.7921 15.213
12.8072 15.075
12.8224 15.016
12.8376 14.904
12.8528 15.101
12.8679 15.353
12.8831 15.141
12.8983 14.759
12.9135 14.482
12.9286 14.718
12.9438 14.706
12.9590 14.550
12.9742 14.508
12.9893 14.504
13.0045 14.278
13.0197 14.181
13.0349 14.299
13.0500 14.072
13.0652 13.913
13.0804 14.094
13.0956 13.990
13.1107 13.711
13.1259 13.666
13.1411 13.748
13.1563 13.832
13.1714 13.800
13.1866 13.703
13.2018 13.507
13.2170 13.454
13.2321 13.481
13.2473 13.361
13.2625 13.351
13.2777 13.338
13.2928 13.125
13.3080 13.100
13.3232 13.197
13.3384 13.243
13.3535 13.314
13.3687 13.305
13.3839 13.189
13.3991 13.177
13.4142 12.986
13.4294 12.806
13.4446 13.013
13.4598 12.681
13.4749 12.433
13.4901 12.688
13.5053 12.540
13.5205 12.458
13.5356 12.588
13.5508 12.554
13.5660 12.526
13.5812 12.427
13.5963 12.192
13.6115 12.051
13.6267 12.039
13.6419 12.172
13.6570 12.273
13.6722 12.184
13.6874 12.143
13.7026 12.090
13.7177 12.059
13.7329 12.137
13.7481 12.105
13.7633 12.058
13.7784 12.090
13.7936 12.284
13.8088 12.281
13.8239 12.257
13.8391 12.512
13.8543 12.344
13.8695 12.385
13.8846 12.597
13.8998 12.461
13.9150 12.315
13.9302 12.287
13.9453 12.106
13.9605 11.998
13.9757 11.935
13.9909 12.034
14.0060 11.968
14.0212 11.764
14.0364 11.775
14.0516 11.660
14.0667 11.587
14.0819 11.528
14.0971 11.413
14.1123 11.541
14.1274 11.602
14.1426 11.423
14.1578 11.563
14.1730 11.503
14.1881 11.828
14.2033 11.815
14.2185 11.512
14.2337 11.698
14.2488 11.917
14.2640 11.677
14.2792 11.599
14.2944 11.674
14.3095 11.981
14.3247 12.252
14.3399 12.308
14.3551 12.580
14.3702 12.557
14.3854 12.667
14.4006 12.861
14.4158 12.666
14.4309 12.822
14.4461 12.607
14.4613 12.391
14.4765 12.269
14.4916 12.061
14.5068 11.970
14.5220 11.617
14.5372 11.289
14.5523 11.276
14.5675 11.276
14.5827 10.989
14.5979 10.896
14.6130 10.959
14.6282 10.828
14.6434 10.712
14.6586 10.866
14.6737 10.339
14.6889 10.508
14.7041 10.806
14.7193 10.724
14.7344 10.785
14.7496 10.528
14.7648 10.644
14.7800 10.290
14.7951 10.642
14.8103 10.593
14.8255 10.343
14.8407 10.366
14.8558 10.087
14.8710 10.608
14.8862 10.667
14.9014 10.623
14.9165 10.505
14.9317 10.573
14.9469 10.430
14.9621 10.490
14.9772 10.344
14.9924 10.272
15.0076 10.204
15.0228 10.274
15.0379 10.034
15.0531 10.063
15.0683 10.368
15.0835 10.040
15.0986 10.093
15.1138 10.048
15.1290 10.344
15.1442 10.390
15.1593 9.928
15.1745 10.042
15.1897 10.031
15.2049 10.325
15.2200 10.010
15.2352 10.245
15.2504 10.029
15.2656 9.987
15.2807 9.826
15.2959 10.319
15.3111 10.114
15.3263 9.851
15.3414 10.156
15.3566 10.010
15.3718 9.733
15.3870 10.170
15.4021 9.790
15.4173 9.989
15.4325 10.050
15.4477 10.244
15.4628 10.291
15.4780 9.956
15.4932 10.282
15.5084 9.996
15.5235 10.181
15.5387 10.041
15.5539 9.897
15.5691 9.711
15.5842 9.642
15.5994 9.715
15.6146 9.671
15.6298 9.776
15.6449 9.855
15.6601 9.875
15.6753 9.762
15.6905 9.211
15.7056 9.923
15.7208 9.714
15.7360 9.786
15.7512 9.425
15.7663 9.485
15.7815 9.674
15.7967 9.771
15.8119 9.704
15.8270 9.553
15.8422 9.801
15.8574 9.863
15.8726 9.620
15.8877 9.393
15.9029 9.320
15.9181 9.168
15.9333 9.518
15.9484 9.763
15.9636 9.622
15.9788 9.515
15.9940 9.535
16.0091 9.586
16.0243 9.540
16.0395 9.426
16.0547 9.652
16.0698 9.662
16.0850 9.772
16.1002 9.503
16.1154 9.561
16.1305 9.470
16.1457 9.340
16.1609 9.482
16.1761 9.361
16.1912 9.575
16.2064 9.759
16.2216 9.875
16.2368 9.841
16.2519 9.786
16.2671 9.698
16.2823 9.780
16.2975 9.775
16.3126 9.716
16.3278 9.515
16.3430 9.387
16.3582 9.710
16.3733 9.752
16.3885 9.579
16.4037 9.465
16.4189 9.669
16.4340 9.842
16.4492 9.888
16.4644 9.873
16.4796 9.857
16.4947 9.768
16.5099 9.664
16.5251 9.331
16.5403 9.508
16.5554 9.834
16.5706 9.740
16.5858 9.506
16.6010 9.439
16.6161 9.499
16.6313 9.486
16.6465 9.431
16.6617 9.691
16.6768 9.651
16.6920 9.644
16.7072 9.921
16.7224 9.951
16.7375 10.099
16.7527 9.967
16.7679 9.864
16.7831 9.869
16.7982 9.855
16.8134 9.993
16.8286 9.884
16.8438 9.738
16.8589 9.716
16.8741 9.640
16.8893 9.622
16.9045 9.466
16.9196 9.466
16.9348 9.520
16.9500 9.726
16.9652 9.925
16.9803 9.748
16.9955 9.764
17.0107 9.820
17.0259 9.728
17.0410 10.012
17.0562 9.951
17.0714 10.034
17.0866 10.314
17.1017 10.538
17.1169 10.655
17.1321 10.827
17.1473 11.202
17.1624 11.699
17.1776 12.341
17.1928 12.989
17.2080 14.130
17.2231 15.223
17.2383 16.250
17.2535 17.668
17.2687 18.737
17.2838 18.751
17.2990 17.954
17.3142 16.960
17.3294 16.220
17.3445 15.873
17.3597 15.827
17.3749 15.764
17.3901 15.086
17.4052 14.178
17.4204 13.481
17.4356 12.585
17.4508 11.896
17.4659 11.747
17.4811 11.634
17.4963 11.276
17.5115 11.059
17.5266 10.901
17.5418 10.681
17.5570 10.838
17.5722 10.996
17.5873 11.064
17.6025 11.181
17.6177 11.145
17.6329 11.272
17.6480 11.554
17.6632 11.379
17.6784 11.303
17.6936 11.538
17.7087 11.544
17.7239 11.264
17.7391 11.201
17.7543 11.101
17.7694 11.064
17.7846 11.217
17.7998 10.924
17.8150 10.612
17.8301 10.626
17.8453 10.466
17.8605 10.191
17.8757 10.346
17.8908 10.440
17.9060 10.227
17.9212 10.151
17.9364 10.086
17.9515 9.859
17.9667 10.210
17.9819 10.351
17.9971 10.319
18.0122 10.361
18.0274 10.207
18.0426 10.262
18.0578 10.102
18.0729 10.005
18.0881 10.000
18.1033 10.055
18.1185 9.907
18.1336 10.039
18.1488 9.995
18.1640 9.683
18.1792 9.685
18.1943 9.816
18.2095 9.947
18.2247 9.985
18.2399 9.889
18.2550 9.767
18.2702 9.592
18.2854 9.659
18.3006 9.846
18.3157 9.923
18.3309 9.988
18.3461 10.040
18.3613 9.834
18.3764 9.654
18.3916 9.595
18.4068 9.836
18.4220 9.898
18.4371 9.828
18.4523 9.813
18.4675 9.815
18.4827 9.890
18.4978 9.735
18.5130 9.732
18.5282 9.644
18.5434 9.702
18.5585 9.872
18.5737 9.718
18.5889 9.953
18.6041 9.942
18.6192 9.726
18.6344 9.542
18.6496 9.416
18.6648 9.646
18.6799 9.988
18.6951 9.965
18.7103 9.741
18.7255 9.663
18.7406 9.806
18.7558 9.728
18.7710 9.749
18.7862 9.658
18.8013 9.673
18.8165 9.827
18.8317 9.935
18.8469 9.989
18.8620 9.826
18.8772 9.816
18.8924 9.754
18.9076 9.923
18.9227 9.993
18.9379 9.909
18.9531 9.997
18.9683 9.986
18.9834 9.972
18.9986 9.955
19.0138 10.035
19.0290 9.874
19.0441 10.014
19.0593 10.172
19.0745 10.072
19.0897 10.287
19.1048 10.396
19.1200 10.578
19.1352 10.447
19.1504 10.402
19.1655 10.754
19.1807 10.891
19.1959 10.906
19.2111 10.839
19.2262 10.737
19.2414 10.940
19.2566 10.746
19.2718 10.513
19.2869 10.769
19.3021 11.149
19.3173 11.149
19.3325 11.084
19.3476 11.274
19.3628 11.196
19.3780 11.097
19.3932 11.262
19.4083 11.450
19.4235 11.324
19.4387 11.153
19.4539 11.563
19.4690 11.534
19.4842 11.337
19.4994 11.629
19.5146 11.573
19.5297 11.535
19.5449 11.671
19.5601 11.550
19.5753 11.408
19.5904 11.446
19.6056 11.716
19.6208 11.781
19.6360 11.826
19.6511 11.891
19.6663 11.658
19.6815 11.683
19.6967 11.778
19.7118 11.799
19.7270 11.806
19.7422 11.748
19.7574 11.809
19.7725 12.047
19.7877 11.963
19.8029 12.072
19.8180 12.395
19.8332 12.253
19.8484 12.232
19.8636 12.425
19.8787 12.721
19.8939 13.040
19.9091 13.113
19.9243 13.702
19.9394 14.111
19.9546 14.345
19.9698 14.509
19.9850 14.379
20.0001 14.528
20.0153 14.372
20.0305 14.270
20.0457 14.051
20.0608 14.027
20.0760 14.101
20.0912 13.868
20.1064 13.899
20.1215 13.646
20.1367 13.234
20.1519 13.155
20.1671 12.983
20.1822 12.890
20.1974 12.874
20.2126 12.860
20.2278 12.544
20.2429 12.534
20.2581 12.629
20.2733 12.346
20.2885 12.207
20.3036 11.937
20.3188 12.013
20.3340 11.895
20.3492 12.000
20.3643 12.134
20.3795 12.004
20.3947 11.814
20.4099 11.843
20.4250 11.781
20.4402 11.933
20.4554 11.777
20.4706 11.704
20.4857 11.523
20.5009 11.634
20.5161 11.561
20.5313 11.307
20.5464 11.129
20.5616 11.189
20.5768 11.114
20.5920 11.188
20.6071 11.047
20.6223 11.118
20.6375 11.172
20.6527 10.800
20.6678 11.004
20.6830 10.782
20.6982 10.703
20.7134 10.765
20.7285 10.861
20.7437 10.544
20.7589 10.394
20.7741 10.645
20.7892 10.694
20.8044 10.601
20.8196 10.542
20.8348 10.250
20.8499 10.421
20.8651 10.320
20.8803 10.334
20.8955 10.331
20.9106 10.535
20.9258 10.301
20.9410 9.830
20.9562 10.199
20.9713 9.989
20.9865 10.384
21.0017 9.976
21.0169 10.063
21.0320 10.183
21.0472 10.156
21.0624 10.184
21.0776 9.909
21.0927 10.006
21.1079 9.772
21.1231 10.101
21.1383 9.761
21.1534 9.929
21.1686 9.852
21.1838 9.989
21.1990 9.846
21.2141 9.758
21.2293 9.758
21.2445 9.817
21.2597 9.690
21.2748 9.728
21.2900 9.894
21.3052 9.622
21.3204 9.669
21.3355 9.178
21.3507 9.382
21.3659 9.416
21.3811 9.497
21.3962 9.598
21.4114 9.290
21.4266 9.390
21.4418 9.469
21.4569 9.436
21.4721 9.402
21.4873 9.525
21.5025 9.066
21.5176 9.074
21.5328 9.229
21.5480 9.292
21.5632 9.655
21.5783 9.620
21.5935 9.479
21.6087 9.422
21.6239 9.483
21.6390 9.247
21.6542 9.207
21.6694 9.353
21.6846 9.172
21.6997 8.991
21.7149 8.990
21.7301 8.957
21.7453 9.033
21.7604 9.085
21.7756 9.101
21.7908 9.251
21.8060 9.150
21.8211 9.035
21.8363 9.065
21.8515 9.059
21.8667 8.838
21.8818 8.807
21.8970 9.119
21.9122 9.010
21.9274 8.783
21.9425 8.746
21.9577 8.939
21.9729 8.881
21.9881 8.736
22.0032 8.814
22.0184 8.774
22.0336 8.687
22.0488 8.704
22.0639 8.882
22.0791 8.870
22.0943 8.715
22.1095 8.630
22.1246 8.799
22.1398 8.570
22.1550 8.601
22.1702 8.885
22.1853 8.670
22.2005 8.533
22.2157 8.615
22.2309 8.479
22.2460 8.410
22.2612 8.419
22.2764 8.566
22.2916 8.428
22.3067 8.516
22.3219 8.625
22.3371 8.792
22.3523 8.869
22.3674 8.535
22.3826 8.663
22.3978 8.506
22.4130 8.475
22.4281 8.748
22.4433 8.603
22.4585 8.495
22.4737 8.570
22.4888 8.746
22.5040 8.472
22.5192 8.279
22.5344 8.386
22.5495 8.262
22.5647 8.170
22.5799 8.131
22.5951 8.366
22.6102 8.308
22.6254 8.333
22.6406 8.584
22.6558 8.112
22.6709 8.383
22.6861 8.229
22.7013 8.055
22.7165 7.843
22.7316 6.294
