'Id: "" Comment: "" Operator: "Lab Manager" Anode: "Mo" Scantype: "Still (Eiger2R_500K (1D mode))" TimePerStep: "300" X: "11.8" Y: "9.4" Z: "11.284" 
7.2532 18.775
7.2684 18.857
7.2836 18.662
7.2987 18.966
7.3139 18.996
7.3291 18.391
7.3443 19.054
7.3594 18.804
7.3746 18.976
7.3898 18.763
7.4050 19.147
7.4201 19.293
7.4353 19.027
7.4505 19.513
7.4657 19.637
7.4808 19.488
7.4960 19.344
7.5112 19.757
7.5264 19.590
7.5415 19.409
7.5567 19.449
7.5719 19.633
7.5871 19.721
7.6022 19.422
7.6174 19.756
7.6326 19.841
7.6478 19.687
7.6629 19.981
7.6781 20.163
7.6933 20.054
7.7085 19.938
7.7236 20.168
7.7388 20.054
7.7540 20.215
7.7692 20.413
7.7843 20.458
7.7995 20.308
7.8147 20.540
7.8299 20.598
7.8450 20.581
7.8602 20.639
7.8754 20.651
7.8905 20.374
7.9057 20.158
7.9209 20.577
7.9361 20.903
7.9512 20.696
7.9664 20.796
7.9816 20.630
7.9968 21.209
8.0119 21.276
8.0271 20.960
8.0423 21.081
8.0575 21.152
8.0726 21.019
8.0878 21.065
8.1030 21.127
8.1182 21.159
8.1333 21.362
8.1485 21.215
8.1637 21.047
8.1789 21.280
8.1940 21.092
8.2092 20.987
8.2244 21.184
8.2396 21.186
8.2547 21.596
8.2699 21.325
8.2851 21.392
8.3003 20.981
8.3154 21.287
8.3306 21.499
8.3458 21.502
8.3610 21.802
8.3761 21.170
8.3913 21.727
8.4065 21.902
8.4217 21.748
8.4368 21.146
8.4520 21.475
8.4672 21.787
8.4824 21.870
8.4975 21.995
8.5127 21.913
8.5279 21.450
8.5431 21.935
8.5582 22.141
8.5734 22.426
8.5886 21.811
8.6038 22.146
8.6189 21.829
8.6341 22.238
8.6493 22.387
8.6645 21.844
8.6796 21.931
8.6948 22.282
8.7100 22.573
8.7252 22.343
8.7403 21.964
8.7555 21.901
8.7707 22.309
8.7859 21.897
8.8010 22.256
8.8162 22.744
8.8314 22.737
8.8466 22.352
8.8617 21.833
8.8769 22.116
8.8921 22.227
8.9073 22.411
8.9224 22.138
8.9376 22.312
8.9528 22.351
8.9680 22.229
8.9831 22.713
8.9983 22.483
9.0135 22.627
9.0287 22.549
9.0438 22.785
9.0590 22.765
9.0742 22.555
9.0894 22.380
9.1045 22.353
9.1197 22.640
9.1349 22.636
9.1501 22.554
9.1652 22.453
9.1804 22.858
9.1956 23.243
9.2108 23.198
9.2259 23.131
9.2411 22.915
9.2563 22.633
9.2715 22.771
9.2866 22.750
9.3018 22.570
9.3170 22.673
9.3322 22.750
9.3473 23.031
9.3625 23.097
9.3777 22.699
9.3929 22.560
9.4080 22.926
9.4232 23.067
9.4384 23.057
9.4536 22.482
9.4687 22.420
9.4839 22.807
9.4991 22.963
9.5143 22.750
9.5294 22.969
9.5446 23.076
9.5598 23.110
9.5750 23.279
9.5901 23.091
9.6053 22.986
9.6205 23.155
9.6357 23.037
9.6508 23.192
9.6660 23.388
9.6812 23.353
9.6964 23.334
9.7115 23.601
9.7267 23.972
9.7419 23.850
9.7571 23.559
9.7722 23.771
9.7874 23.821
9.8026 23.772
9.8178 23.552
9.8329 23.470
9.8481 23.547
9.8633 23.331
9.8785 23.365
9.8936 23.255
9.9088 22.945
9.9240 22.649
9.9392 22.699
9.9543 22.888
9.9695 23.099
9.9847 22.968
9.9999 22.783
10.0150 23.104
10.0302 23.255
10.0454 23.088
10.0606 22.947
10.0757 23.482
10.0909 23.372
10.1061 22.954
10.1213 23.098
10.1364 23.359
10.1516 23.268
10.1668 22.933
10.1820 22.953
10.1971 23.089
10.2123 23.168
10.2275 23.000
10.2427 23.009
10.2578 23.040
10.2730 22.668
10.2882 22.335
10.3034 22.547
10.3185 22.548
10.3337 22.642
10.3489 22.628
10.3641 22.440
10.3792 22.467
10.3944 22.689
10.4096 22.606
10.4248 22.984
10.4399 22.834
10.4551 22.294
10.4703 22.603
10.4855 22.594
10.5006 22.158
10.5158 22.506
10.5310 22.741
10.5462 22.403
10.5613 22.399
10.5765 22.400
10.5917 22.386
10.6069 22.490
10.6220 22.430
10.6372 22.500
10.6524 22.328
10.6676 22.239
10.6827 22.339
10.6979 22.430
10.7131 22.544
10.7283 22.260
10.7434 21.957
10.7586 22.022
10.7738 22.199
10.7890 22.140
10.8041 22.292
10.8193 22.115
10.8345 21.834
10.8497 21.881
10.8648 21.994
10.8800 22.020
10.8952 21.732
10.9104 21.940
10.9255 21.924
10.9407 21.969
10.9559 22.002
10.9711 21.961
10.9862 22.166
11.0014 21.759
11.0166 22.010
11.0318 22.008
11.0469 21.708
11.0621 21.782
11.0773 21.867
11.0925 21.845
11.1076 21.610
11.1228 21.650
11.1380 21.506
11.1532 21.557
11.1683 21.701
11.1835 21.569
11.1987 21.478
11.2139 21.510
11.2290 21.384
11.2442 21.276
11.2594 21.349
11.2746 21.509
11.2897 21.750
11.3049 21.817
11.3201 21.713
11.3353 21.402
11.3504 21.126
11.3656 21.195
11.3808 21.178
11.3960 21.287
11.4111 21.094
11.4263 20.933
11.4415 20.589
11.4567 20.995
11.4718 21.195
11.4870 21.176
11.5022 21.207
11.5174 20.903
11.5325 21.059
11.5477 20.673
11.5629 20.367
11.5781 20.678
11.5932 20.720
11.6084 20.683
11.6236 20.626
11.6388 20.449
11.6539 20.602
11.6691 20.484
11.6843 20.236
11.6995 20.250
11.7146 20.331
11.7298 20.146
11.7450 20.275
11.7602 20.339
11.7753 19.997
11.7905 19.924
11.8057 20.082
11.8209 19.985
11.8360 19.941
11.8512 20.015
11.8664 19.657
11.8816 19.614
11.8967 19.563
11.9119 19.622
11.9271 19.628
11.9423 19.400
11.9574 18.924
11.9726 18.864
11.9878 19.052
12.0030 18.962
12.0181 19.110
12.0333 19.107
12.0485 18.950
12.0637 19.042
12.0788 19.433
12.0940 18.978
12.1092 18.799
12.1244 18.616
12.1395 18.657
12.1547 18.432
12.1699 18.261
12.1851 18.374
12.2002 18.241
12.2154 18.328
12.2306 18.000
12.2458 18.179
12.2609 17.945
12.2761 17.871
12.2913 17.906
12.3065 17.962
12.3216 17.900
12.3368 17.603
12.3520 17.334
12.3672 17.221
12.3823 17.134
12.3975 16.863
12.4127 17.060
12.4279 17.210
12.4430 16.828
12.4582 16.870
12.4734 16.624
12.4886 16.684
12.5037 16.591
12.5189 16.522
12.5341 16.292
12.5493 16.359
12.5644 16.399
12.5796 16.019
12.5948 16.191
12.6100 16.168
12.6251 15.952
12.6403 15.803
12.6555 15.707
12.6707 15.333
12.6858 15.546
12.7010 15.890
12.7162 15.834
12.7314 15.795
12.7465 15.602
12.7617 15.428
12.7769 15.121
12.7921 15.065
12.8072 15.008
12.8224 14.637
12.8376 14.703
12.8528 14.822
12.8679 14.607
12.8831 14.610
12.8983 14.695
12.9135 14.560
12.9286 14.233
12.9438 14.392
12.9590 14.552
12.9742 14.504
12.9893 14.313
13.0045 14.010
13.0197 13.878
13.0349 13.891
13.0500 14.006
13.0652 13.945
13.0804 13.794
13.0956 13.764
13.1107 13.742
13.1259 14.001
13.1411 14.076
13.1563 13.861
13.1714 13.665
13.1866 13.403
13.2018 13.396
13.2170 13.707
13.2321 13.677
13.2473 13.451
13.2625 13.558
13.2777 13.378
13.2928 13.208
13.3080 13.201
13.3232 13.101
13.3384 12.903
13.3535 12.713
13.3687 12.878
13.3839 13.008
13.3991 12.843
13.4142 12.848
13.4294 12.872
13.4446 12.751
13.4598 12.805
13.4749 12.811
13.4901 12.504
13.5053 12.531
13.5205 12.470
13.5356 12.312
13.5508 12.473
13.5660 12.493
13.5812 12.252
13.5963 12.153
13.6115 11.997
13.6267 12.277
13.6419 12.216
13.6570 12.116
13.6722 12.132
13.6874 12.173
13.7026 12.047
13.7177 11.926
13.7329 11.948
13.7481 12.086
13.7633 12.212
13.7784 11.965
13.7936 12.204
13.8088 12.421
13.8239 12.324
13.8391 12.234
13.8543 12.141
13.8695 12.152
13.8846 12.144
13.8998 11.923
13.9150 12.099
13.9302 12.091
13.9453 12.126
13.9605 11.856
13.9757 11.603
13.9909 11.986
14.0060 11.792
14.0212 11.653
14.0364 11.525
14.0516 11.813
14.0667 11.718
14.0819 11.779
14.0971 11.645
14.1123 11.429
14.1274 11.457
14.1426 11.521
14.1578 11.935
14.1730 11.712
14.1881 11.637
14.2033 11.487
14.2185 11.693
14.2337 11.766
14.2488 11.687
14.2640 11.583
14.2792 11.789
14.2944 11.984
14.3095 11.967
14.3247 12.034
14.3399 12.296
14.3551 12.438
14.3702 12.667
14.3854 12.867
14.4006 12.997
14.4158 13.063
14.4309 12.550
14.4461 12.549
14.4613 12.763
14.4765 12.455
14.4916 11.835
14.5068 12.033
14.5220 11.909
14.5372 11.601
14.5523 11.499
14.5675 11.249
14.5827 11.034
14.5979 11.024
14.6130 11.008
14.6282 11.020
14.6434 10.770
14.6586 10.293
14.6737 11.010
14.6889 10.713
14.7041 10.631
14.7193 11.066
14.7344 10.539
14.7496 10.645
14.7648 10.519
14.7800 10.687
14.7951 10.304
14.8103 10.383
14.8255 10.655
14.8407 10.702
14.8558 10.258
14.8710 10.438
14.8862 10.525
14.9014 10.389
14.9165 10.606
14.9317 10.643
14.9469 10.484
14.9621 10.666
14.9772 9.717
14.9924 9.928
15.0076 10.350
15.0228 10.162
15.0379 10.086
15.0531 10.135
15.0683 9.826
15.0835 10.203
15.0986 10.429
15.1138 10.222
15.1290 10.367
15.1442 10.156
15.1593 9.962
15.1745 10.067
15.1897 9.683
15.2049 10.128
15.2200 10.253
15.2352 9.945
15.2504 9.881
15.2656 10.212
15.2807 10.144
15.2959 10.079
15.3111 9.822
15.3263 10.279
15.3414 10.424
15.3566 10.125
15.3718 10.167
15.3870 10.152
15.4021 9.832
15.4173 10.071
15.4325 10.108
15.4477 10.019
15.4628 10.351
15.4780 10.009
15.4932 10.223
15.5084 10.020
15.5235 9.914
15.5387 10.024
15.5539 9.770
15.5691 10.097
15.5842 10.009
15.5994 9.735
15.6146 9.842
15.6298 9.786
15.6449 9.648
15.6601 9.663
15.6753 9.582
15.6905 9.795
15.7056 9.804
15.7208 9.860
15.7360 9.845
15.7512 9.658
15.7663 9.516
15.7815 9.802
15.7967 9.910
15.8119 9.816
15.8270 9.845
15.8422 9.736
15.8574 9.359
15.8726 9.366
15.8877 9.316
15.9029 9.162
15.9181 9.612
15.9333 9.557
15.9484 9.395
15.9636 9.475
15.9788 9.449
15.9940 9.384
16.0091 9.448
16.0243 9.455
16.0395 9.739
16.0547 9.554
16.0698 9.530
16.0850 9.493
16.1002 9.499
16.1154 9.550
16.1305 9.473
16.1457 9.591
16.1609 9.350
16.1761 9.316
16.1912 9.482
16.2064 9.544
16.2216 9.804
16.2368 9.809
16.2519 9.543
16.2671 9.755
16.2823 9.710
16.2975 9.491
16.3126 9.518
16.3278 10.081
16.3430 9.846
16.3582 9.655
16.3733 9.948
16.3885 9.826
16.4037 10.072
16.4189 9.884
16.4340 9.989
16.4492 9.852
16.4644 9.787
16.4796 9.514
16.4947 9.636
16.5099 9.610
16.5251 9.765
16.5403 9.634
16.5554 9.340
16.5706 9.295
16.5858 9.342
16.6010 9.505
16.6161 9.422
16.6313 9.566
16.6465 9.475
16.6617 9.552
16.6768 9.641
16.6920 9.715
16.7072 9.827
16.7224 9.775
16.7375 9.721
16.7527 9.573
16.7679 9.664
16.7831 9.660
16.7982 9.703
16.8134 9.705
16.8286 9.711
16.8438 9.802
16.8589 9.877
16.8741 10.053
16.8893 9.905
16.9045 9.530
16.9196 9.495
16.9348 9.604
16.9500 9.648
16.9652 9.650
16.9803 9.565
16.9955 9.590
17.0107 9.801
17.0259 9.991
17.0410 9.972
17.0562 10.104
17.0714 10.437
17.0866 10.453
17.1017 10.339
17.1169 10.478
17.1321 10.849
17.1473 11.364
17.1624 11.861
17.1776 12.226
17.1928 12.921
17.2080 13.835
17.2231 15.031
17.2383 16.432
17.2535 17.401
17.2687 18.267
17.2838 18.425
17.2990 17.712
17.3142 16.748
17.3294 16.182
17.3445 16.155
17.3597 16.158
17.3749 15.970
17.3901 15.469
17.4052 14.426
17.4204 13.269
17.4356 12.599
17.4508 12.123
17.4659 11.865
17.4811 11.625
17.4963 11.314
17.5115 11.237
17.5266 11.114
17.5418 10.869
17.5570 10.904
17.5722 11.173
17.5873 11.297
17.6025 11.300
17.6177 11.252
17.6329 11.018
17.6480 11.156
17.6632 11.521
17.6784 11.482
17.6936 11.384
17.7087 11.280
17.7239 11.191
17.7391 11.186
17.7543 11.118
17.7694 10.993
17.7846 10.637
17.7998 10.515
17.8150 10.533
17.8301 10.629
17.8453 10.576
17.8605 10.346
17.8757 10.349
17.8908 10.485
17.9060 10.436
17.9212 10.144
17.9364 10.126
17.9515 9.892
17.9667 9.959
17.9819 10.192
17.9971 10.197
18.0122 10.100
18.0274 10.088
18.0426 10.036
18.0578 9.909
18.0729 9.987
18.0881 10.052
18.1033 10.181
18.1185 9.876
18.1336 9.781
18.1488 9.983
18.1640 9.921
18.1792 9.946
18.1943 9.890
18.2095 9.815
18.2247 9.822
18.2399 9.987
18.2550 9.967
18.2702 9.923
18.2854 9.894
18.3006 9.736
18.3157 9.758
18.3309 9.816
18.3461 9.944
18.3613 9.815
18.3764 9.771
18.3916 9.664
18.4068 9.759
18.4220 9.803
18.4371 9.691
18.4523 9.721
18.4675 9.898
18.4827 9.807
18.4978 9.653
18.5130 9.714
18.5282 9.968
18.5434 9.927
18.5585 9.401
18.5737 9.365
18.5889 9.583
18.6041 9.693
18.6192 9.740
18.6344 9.768
18.6496 9.670
18.6648 9.883
18.6799 9.904
18.6951 9.703
18.7103 9.786
18.7255 9.679
18.7406 9.876
18.7558 10.041
18.7710 9.816
18.7862 9.835
18.8013 9.618
18.8165 9.854
18.8317 10.220
18.8469 10.013
18.8620 9.675
18.8772 9.908
18.8924 10.151
18.9076 10.128
18.9227 10.040
18.9379 10.157
18.9531 10.111
18.9683 10.108
18.9834 10.138
18.9986 10.016
19.0138 10.105
19.0290 10.060
19.0441 10.141
19.0593 10.098
19.0745 10.138
19.0897 10.423
19.1048 10.492
19.1200 10.523
19.1352 10.677
19.1504 10.766
19.1655 10.522
19.1807 10.456
19.1959 10.546
19.2111 10.539
19.2262 10.801
19.2414 10.779
19.2566 10.730
19.2718 10.903
19.2869 10.686
19.3021 10.858
19.3173 11.195
19.3325 11.321
19.3476 11.328
19.3628 11.119
19.3780 10.950
19.3932 11.003
19.4083 11.182
19.4235 11.309
19.4387 11.305
19.4539 11.176
19.4690 11.304
19.4842 11.420
19.4994 11.509
19.5146 11.534
19.5297 11.428
19.5449 11.527
19.5601 11.661
19.5753 11.993
19.5904 11.901
19.6056 11.609
19.6208 11.491
19.6360 11.688
19.6511 11.837
19.6663 11.654
19.6815 11.523
19.6967 11.637
19.7118 11.691
19.7270 11.625
19.7422 11.567
19.7574 11.766
19.7725 12.064
19.7877 11.895
19.8029 11.752
19.8180 12.028
19.8332 12.225
19.8484 12.409
19.8636 12.538
19.8787 12.681
19.8939 12.833
19.9091 13.044
19.9243 13.235
19.9394 13.704
19.9546 14.087
19.9698 14.242
19.9850 14.566
20.0001 14.418
20.0153 14.047
20.0305 14.109
20.0457 14.040
20.0608 14.027
20.0760 13.705
20.0912 13.917
20.1064 14.095
20.1215 13.654
20.1367 13.394
20.1519 13.215
20.1671 13.089
20.1822 12.845
20.1974 12.728
20.2126 12.587
20.2278 12.662
20.2429 12.577
20.2581 12.234
20.2733 12.141
20.2885 11.957
20.3036 11.754
20.3188 11.990
20.3340 12.130
20.3492 12.105
20.3643 12.140
20.3795 11.982
20.3947 11.931
20.4099 11.736
20.4250 11.639
20.4402 11.819
20.4554 11.899
20.4706 11.605
20.4857 11.711
20.5009 11.808
20.5161 11.598
20.5313 11.383
20.5464 11.478
20.5616 11.629
20.5768 11.429
20.5920 11.104
20.6071 11.175
20.6223 11.135
20.6375 10.956
20.6527 10.743
20.6678 10.771
20.6830 10.614
20.6982 10.573
20.7134 10.905
20.7285 10.679
20.7437 10.408
20.7589 10.331
20.7741 10.393
20.7892 10.608
20.8044 10.440
20.8196 10.240
20.8348 10.202
20.8499 10.146
20.8651 10.318
20.8803 10.270
20.8955 10.387
20.9106 10.332
20.9258 10.126
20.9410 10.217
20.9562 10.147
20.9713 10.332
20.9865 10.126
21.0017 10.041
21.0169 10.266
21.0320 9.940
21.0472 10.074
21.0624 9.972
21.0776 9.980
21.0927 10.026
21.1079 9.872
21.1231 10.054
21.1383 10.045
21.1534 9.754
21.1686 9.991
21.1838 9.613
21.1990 9.922
21.2141 9.634
21.2293 9.754
21.2445 9.885
21.2597 9.891
21.2748 9.556
21.2900 9.879
21.3052 9.759
21.3204 9.610
21.3355 9.786
21.3507 9.501
21.3659 9.826
21.3811 9.786
21.3962 9.620
21.4114 9.425
21.4266 9.170
21.4418 9.366
21.4569 9.491
21.4721 9.389
21.4873 9.128
21.5025 9.090
21.5176 9.348
21.5328 9.181
21.5480 9.062
21.5632 8.948
21.5783 9.194
21.5935 9.426
21.6087 9.334
21.6239 9.084
21.6390 9.247
21.6542 9.253
21.6694 9.145
21.6846 9.039
21.6997 9.144
21.7149 9.262
21.7301 8.997
21.7453 8.710
21.7604 8.999
21.7756 9.080
21.7908 9.100
21.8060 8.936
21.8211 9.016
21.8363 9.325
21.8515 9.249
21.8667 9.106
21.8818 9.093
21.8970 9.254
21.9122 9.254
21.9274 8.901
21.9425 8.833
21.9577 9.001
21.9729 8.844
21.9881 8.785
22.0032 8.848
22.0184 8.892
22.0336 8.977
22.0488 8.721
22.0639 8.637
22.0791 8.774
22.0943 8.669
22.1095 8.737
22.1246 8.637
22.1398 8.546
22.1550 8.469
22.1702 8.586
22.1853 8.619
22.2005 8.556
22.2157 8.723
22.2309 8.846
22.2460 8.536
22.2612 8.206
22.2764 8.449
22.2916 8.708
22.3067 8.540
22.3219 8.610
22.3371 8.351
22.3523 8.677
22.3674 8.628
22.3826 8.289
22.3978 8.489
22.4130 8.812
22.4281 8.749
22.4433 8.430
22.4585 8.642
22.4737 8.356
22.4888 8.221
22.5040 8.447
22.5192 8.454
22.5344 8.473
22.5495 8.412
22.5647 8.421
22.5799 8.557
22.5951 8.483
22.6102 8.339
22.6254 8.345
22.6406 8.599
22.6558 8.184
22.6709 8.461
22.6861 8.248
22.7013 7.899
22.7165 7.960
22.7316 6.530
