'Id: "" Comment: "" Operator: "Lab Manager" Anode: "Mo" Scantype: "Still (Eiger2R_500K (1D mode))" TimePerStep: "300" X: "11.8" Y: "9.4" Z: "11.284" 
7.2532 18.725
7.2684 18.594
7.2836 18.817
7.2987 18.897
7.3139 18.770
7.3291 18.781
7.3443 18.964
7.3594 19.248
7.3746 18.857
7.3898 18.913
7.4050 19.381
7.4201 19.384
7.4353 19.149
7.4505 19.421
7.4657 19.172
7.4808 19.380
7.4960 19.568
7.5112 19.345
7.5264 19.561
7.5415 19.848
7.5567 19.636
7.5719 19.642
7.5871 19.997
7.6022 20.008
7.6174 20.224
7.6326 19.702
7.6478 20.034
7.6629 19.982
7.6781 19.997
7.6933 19.792
7.7085 20.136
7.7236 20.367
7.7388 20.631
7.7540 20.452
7.7692 20.341
7.7843 20.278
7.7995 20.488
7.8147 20.553
7.8299 20.390
7.8450 20.574
7.8602 20.600
7.8754 20.853
7.8905 20.953
7.9057 20.871
7.9209 20.746
7.9361 20.770
7.9512 20.757
7.9664 20.869
7.9816 21.041
7.9968 20.992
8.0119 20.959
8.0271 21.134
8.0423 21.040
8.0575 21.085
8.0726 20.879
8.0878 21.016
8.1030 21.007
8.1182 21.226
8.1333 20.956
8.1485 21.200
8.1637 21.163
8.1789 21.066
8.1940 20.963
8.2092 21.244
8.2244 21.399
8.2396 21.185
8.2547 21.291
8.2699 21.292
8.2851 21.551
8.3003 21.150
8.3154 21.527
8.3306 21.704
8.3458 21.248
8.3610 21.887
8.3761 21.929
8.3913 21.782
8.4065 22.241
8.4217 21.654
8.4368 22.242
8.4520 22.023
8.4672 22.081
8.4824 21.814
8.4975 21.859
8.5127 21.532
8.5279 21.935
8.5431 21.998
8.5582 21.937
8.5734 21.761
8.5886 22.388
8.6038 22.410
8.6189 21.950
8.6341 22.013
8.6493 22.212
8.6645 22.450
8.6796 22.549
8.6948 22.702
8.7100 22.104
8.7252 21.795
8.7403 22.365
8.7555 22.347
8.7707 21.785
8.7859 22.245
8.8010 22.426
8.8162 21.989
8.8314 22.062
8.8466 22.621
8.8617 21.910
8.8769 22.050
8.8921 22.170
8.9073 22.826
8.9224 22.576
8.9376 22.339
8.9528 22.512
8.9680 22.731
8.9831 22.439
8.9983 22.635
9.0135 22.870
9.0287 22.214
9.0438 22.415
9.0590 22.477
9.0742 22.450
9.0894 22.854
9.1045 22.742
9.1197 22.325
9.1349 22.659
9.1501 22.585
9.1652 22.798
9.1804 22.916
9.1956 22.750
9.2108 22.558
9.2259 22.520
9.2411 22.636
9.2563 22.883
9.2715 22.856
9.2866 22.700
9.3018 22.703
9.3170 22.629
9.3322 22.598
9.3473 22.815
9.3625 23.217
9.3777 23.260
9.3929 23.126
9.4080 23.172
9.4232 22.698
9.4384 22.622
9.4536 22.802
9.4687 23.015
9.4839 22.982
9.4991 22.997
9.5143 23.248
9.5294 23.111
9.5446 23.038
9.5598 22.979
9.5750 23.084
9.5901 23.063
9.6053 23.151
9.6205 23.448
9.6357 23.137
9.6508 23.013
9.6660 23.532
9.6812 23.624
9.6964 23.618
9.7115 23.631
9.7267 23.850
9.7419 23.864
9.7571 23.777
9.7722 23.922
9.7874 23.844
9.8026 23.576
9.8178 23.313
9.8329 23.287
9.8481 23.340
9.8633 23.206
9.8785 23.172
9.8936 22.952
9.9088 23.039
9.9240 23.294
9.9392 23.227
9.9543 23.006
9.9695 23.069
9.9847 22.906
9.9999 22.689
10.0150 22.717
10.0302 22.705
10.0454 22.731
10.0606 22.944
10.0757 23.167
10.0909 23.170
10.1061 23.194
10.1213 23.096
10.1364 23.362
10.1516 23.447
10.1668 23.203
10.1820 23.367
10.1971 23.412
10.2123 23.099
10.2275 23.186
10.2427 23.272
10.2578 23.089
10.2730 22.855
10.2882 22.490
10.3034 22.547
10.3185 22.792
10.3337 22.507
10.3489 22.607
10.3641 22.629
10.3792 22.504
10.3944 22.408
10.4096 22.368
10.4248 22.362
10.4399 22.513
10.4551 22.636
10.4703 22.401
10.4855 22.065
10.5006 22.343
10.5158 22.487
10.5310 22.541
10.5462 22.724
10.5613 22.447
10.5765 22.088
10.5917 22.156
10.6069 22.417
10.6220 22.465
10.6372 22.790
10.6524 22.519
10.6676 22.359
10.6827 22.563
10.6979 22.904
10.7131 22.721
10.7283 22.267
10.7434 22.297
10.7586 22.135
10.7738 22.298
10.7890 22.362
10.8041 22.219
10.8193 22.077
10.8345 22.052
10.8497 22.307
10.8648 22.525
10.8800 22.171
10.8952 21.971
10.9104 22.268
10.9255 21.957
10.9407 21.784
10.9559 21.913
10.9711 21.614
10.9862 21.484
11.0014 21.896
11.0166 22.378
11.0318 22.521
11.0469 21.878
11.0621 21.726
11.0773 21.920
11.0925 22.107
11.1076 21.715
11.1228 21.530
11.1380 21.311
11.1532 21.747
11.1683 21.880
11.1835 21.741
11.1987 21.858
11.2139 21.705
11.2290 21.838
11.2442 21.701
11.2594 21.599
11.2746 21.434
11.2897 21.453
11.3049 21.636
11.3201 21.617
11.3353 21.573
11.3504 21.456
11.3656 21.286
11.3808 21.215
11.3960 21.032
11.4111 21.098
11.4263 21.356
11.4415 21.248
11.4567 21.245
11.4718 21.350
11.4870 21.104
11.5022 20.876
11.5174 21.255
11.5325 21.405
11.5477 21.335
11.5629 21.405
11.5781 21.057
11.5932 20.536
11.6084 20.463
11.6236 20.449
11.6388 20.681
11.6539 20.843
11.6691 20.722
11.6843 20.604
11.6995 20.626
11.7146 20.542
11.7298 20.172
11.7450 19.853
11.7602 20.322
11.7753 20.396
11.7905 20.688
11.8057 20.134
11.8209 19.868
11.8360 19.776
11.8512 19.696
11.8664 19.852
11.8816 19.948
11.8967 19.667
11.9119 19.605
11.9271 19.704
11.9423 19.533
11.9574 19.055
11.9726 19.197
11.9878 19.121
12.0030 19.087
12.0181 19.026
12.0333 19.078
12.0485 18.868
12.0637 18.702
12.0788 18.906
12.0940 18.761
12.1092 18.493
12.1244 18.667
12.1395 18.636
12.1547 18.463
12.1699 18.318
12.1851 18.194
12.2002 18.049
12.2154 18.028
12.2306 18.129
12.2458 17.760
12.2609 17.932
12.2761 17.725
12.2913 17.441
12.3065 17.533
12.3216 17.692
12.3368 17.605
12.3520 17.392
12.3672 17.301
12.3823 17.242
12.3975 17.404
12.4127 17.186
12.4279 16.802
12.4430 16.663
12.4582 16.718
12.4734 16.850
12.4886 16.670
12.5037 16.409
12.5189 16.467
12.5341 16.553
12.5493 16.645
12.5644 16.815
12.5796 16.509
12.5948 16.280
12.6100 16.014
12.6251 15.760
12.6403 15.758
12.6555 15.963
12.6707 16.062
12.6858 15.880
12.7010 15.620
12.7162 15.310
12.7314 15.479
12.7465 15.567
12.7617 15.447
12.7769 15.239
12.7921 15.195
12.8072 15.288
12.8224 15.089
12.8376 14.921
12.8528 14.692
12.8679 14.644
12.8831 14.683
12.8983 14.869
12.9135 14.753
12.9286 14.488
12.9438 14.517
12.9590 14.404
12.9742 14.533
12.9893 14.501
13.0045 14.362
13.0197 14.162
13.0349 13.950
13.0500 14.008
13.0652 14.059
13.0804 13.857
13.0956 13.902
13.1107 14.061
13.1259 13.725
13.1411 13.659
13.1563 13.643
13.1714 13.271
13.1866 13.306
13.2018 13.395
13.2170 13.424
13.2321 13.511
13.2473 13.449
13.2625 13.296
13.2777 13.121
13.2928 13.112
13.3080 13.051
13.3232 12.829
13.3384 12.747
13.3535 12.945
13.3687 13.015
13.3839 13.131
13.3991 13.159
13.4142 13.092
13.4294 12.815
13.4446 12.622
13.4598 12.384
13.4749 12.219
13.4901 12.626
13.5053 12.704
13.5205 12.404
13.5356 12.297
13.5508 12.643
13.5660 12.589
13.5812 12.367
13.5963 12.249
13.6115 12.406
13.6267 12.351
13.6419 12.050
13.6570 12.144
13.6722 12.357
13.6874 12.254
13.7026 11.812
13.7177 11.958
13.7329 12.208
13.7481 12.282
13.7633 12.246
13.7784 12.209
13.7936 12.081
13.8088 12.101
13.8239 12.336
13.8391 12.416
13.8543 12.445
13.8695 12.164
13.8846 12.234
13.8998 12.256
13.9150 12.127
13.9302 12.102
13.9453 12.007
13.9605 11.588
13.9757 11.560
13.9909 11.938
14.0060 11.610
14.0212 11.678
14.0364 11.707
14.0516 11.717
14.0667 11.582
14.0819 11.669
14.0971 11.942
14.1123 11.793
14.1274 11.500
14.1426 11.647
14.1578 11.881
14.1730 11.964
14.1881 11.630
14.2033 11.677
14.2185 11.838
14.2337 11.771
14.2488 11.961
14.2640 11.681
14.2792 11.589
14.2944 12.214
14.3095 12.154
14.3247 12.133
14.3399 12.225
14.3551 12.495
14.3702 12.764
14.3854 12.945
14.4006 12.614
14.4158 12.791
14.4309 12.950
14.4461 12.566
14.4613 12.606
14.4765 12.300
14.4916 12.463
14.5068 12.076
14.5220 11.984
14.5372 11.880
14.5523 11.209
14.5675 10.736
14.5827 10.922
14.5979 11.000
14.6130 10.754
14.6282 11.111
14.6434 10.772
14.6586 10.973
14.6737 10.815
14.6889 10.852
14.7041 10.843
14.7193 10.634
14.7344 10.703
14.7496 10.796
14.7648 10.714
14.7800 10.265
14.7951 10.299
14.8103 10.496
14.8255 10.473
14.8407 10.472
14.8558 10.432
14.8710 10.470
14.8862 10.233
14.9014 10.664
14.9165 10.525
14.9317 10.834
14.9469 10.480
14.9621 10.314
14.9772 10.217
14.9924 10.460
15.0076 10.339
15.0228 10.269
15.0379 10.611
15.0531 10.623
15.0683 10.325
15.0835 10.346
15.0986 10.132
15.1138 10.450
15.1290 10.449
15.1442 10.116
15.1593 10.411
15.1745 10.169
15.1897 9.679
15.2049 10.139
15.2200 10.161
15.2352 10.122
15.2504 10.017
15.2656 10.158
15.2807 10.190
15.2959 9.886
15.3111 10.218
15.3263 9.934
15.3414 10.386
15.3566 10.078
15.3718 9.832
15.3870 9.949
15.4021 10.353
15.4173 9.824
15.4325 9.997
15.4477 10.121
15.4628 10.094
15.4780 9.926
15.4932 9.776
15.5084 9.950
15.5235 10.265
15.5387 9.911
15.5539 9.817
15.5691 9.830
15.5842 9.951
15.5994 9.729
15.6146 9.857
15.6298 9.830
15.6449 9.831
15.6601 9.553
15.6753 9.773
15.6905 9.710
15.7056 9.819
15.7208 9.530
15.7360 9.555
15.7512 9.656
15.7663 9.669
15.7815 9.475
15.7967 9.617
15.8119 9.621
15.8270 9.620
15.8422 9.595
15.8574 9.733
15.8726 9.597
15.8877 9.609
15.9029 9.509
15.9181 9.586
15.9333 9.732
15.9484 9.446
15.9636 9.522
15.9788 9.468
15.9940 9.556
16.0091 9.747
16.0243 9.713
16.0395 9.770
16.0547 9.753
16.0698 9.464
16.0850 9.681
16.1002 9.688
16.1154 9.508
16.1305 9.549
16.1457 9.676
16.1609 9.549
16.1761 9.953
16.1912 9.820
16.2064 9.618
16.2216 9.701
16.2368 9.651
16.2519 9.667
16.2671 9.524
16.2823 9.341
16.2975 9.658
16.3126 9.938
16.3278 9.890
16.3430 9.720
16.3582 9.779
16.3733 9.748
16.3885 9.890
16.4037 10.071
16.4189 9.986
16.4340 9.683
16.4492 9.747
16.4644 9.775
16.4796 9.764
16.4947 9.769
16.5099 9.877
16.5251 9.680
16.5403 9.567
16.5554 9.315
16.5706 9.402
16.5858 9.557
16.6010 9.759
16.6161 9.827
16.6313 9.781
16.6465 9.779
16.6617 9.885
16.6768 9.883
16.6920 9.909
16.7072 10.008
16.7224 9.877
16.7375 9.809
16.7527 9.757
16.7679 9.662
16.7831 9.575
16.7982 9.748
16.8134 9.950
16.8286 9.901
16.8438 9.691
16.8589 9.736
16.8741 9.821
16.8893 9.627
16.9045 9.504
16.9196 9.345
16.9348 9.610
16.9500 9.802
16.9652 9.843
16.9803 9.837
16.9955 9.799
17.0107 9.889
17.0259 9.969
17.0410 9.787
17.0562 10.004
17.0714 10.324
17.0866 10.135
17.1017 10.224
17.1169 10.638
17.1321 11.069
17.1473 11.482
17.1624 11.595
17.1776 12.318
17.1928 13.545
17.2080 14.308
17.2231 15.099
17.2383 16.229
17.2535 17.559
17.2687 18.564
17.2838 18.679
17.2990 17.987
17.3142 17.292
17.3294 16.594
17.3445 16.207
17.3597 16.132
17.3749 15.985
17.3901 15.215
17.4052 14.233
17.4204 13.345
17.4356 12.639
17.4508 12.259
17.4659 11.777
17.4811 11.632
17.4963 11.404
17.5115 11.289
17.5266 11.273
17.5418 10.999
17.5570 10.897
17.5722 11.054
17.5873 11.087
17.6025 10.943
17.6177 10.955
17.6329 10.954
17.6480 11.095
17.6632 11.459
17.6784 11.336
17.6936 11.431
17.7087 11.400
17.7239 11.492
17.7391 11.667
17.7543 11.311
17.7694 11.016
17.7846 10.881
17.7998 10.960
17.8150 11.084
17.8301 10.678
17.8453 10.094
17.8605 10.090
17.8757 10.361
17.8908 10.407
17.9060 10.407
17.9212 10.335
17.9364 10.086
17.9515 9.880
17.9667 9.910
17.9819 10.076
17.9971 10.229
18.0122 10.430
18.0274 10.368
18.0426 10.208
18.0578 9.940
18.0729 10.047
18.0881 10.283
18.1033 10.134
18.1185 9.973
18.1336 10.238
18.1488 10.353
18.1640 10.040
18.1792 9.948
18.1943 9.857
18.2095 9.850
18.2247 9.951
18.2399 9.858
18.2550 9.750
18.2702 9.777
18.2854 9.975
18.3006 9.899
18.3157 9.994
18.3309 9.851
18.3461 9.811
18.3613 9.707
18.3764 9.641
18.3916 9.720
18.4068 9.947
18.4220 9.973
18.4371 9.978
18.4523 10.023
18.4675 9.892
18.4827 9.839
18.4978 9.962
18.5130 9.779
18.5282 9.837
18.5434 10.001
18.5585 9.923
18.5737 9.776
18.5889 9.716
18.6041 9.810
18.6192 9.788
18.6344 9.745
18.6496 9.549
18.6648 9.874
18.6799 9.810
18.6951 9.582
18.7103 9.766
18.7255 9.791
18.7406 9.665
18.7558 9.758
18.7710 9.936
18.7862 9.691
18.8013 9.743
18.8165 9.860
18.8317 10.054
18.8469 10.053
18.8620 9.981
18.8772 9.881
18.8924 9.927
18.9076 10.099
18.9227 10.117
18.9379 10.106
18.9531 9.993
18.9683 9.921
18.9834 10.235
18.9986 10.292
19.0138 10.083
19.0290 9.994
19.0441 10.129
19.0593 10.201
19.0745 10.152
19.0897 10.231
19.1048 10.358
19.1200 10.262
19.1352 10.288
19.1504 10.401
19.1655 10.267
19.1807 10.431
19.1959 10.561
19.2111 10.651
19.2262 10.819
19.2414 10.801
19.2566 10.959
19.2718 10.806
19.2869 10.828
19.3021 10.934
19.3173 10.877
19.3325 11.145
19.3476 11.407
19.3628 11.305
19.3780 11.074
19.3932 11.031
19.4083 11.248
19.4235 11.195
19.4387 11.129
19.4539 11.200
19.4690 11.394
19.4842 11.499
19.4994 11.333
19.5146 11.364
19.5297 11.454
19.5449 11.583
19.5601 11.533
19.5753 11.681
19.5904 11.670
19.6056 11.579
19.6208 11.538
19.6360 11.496
19.6511 11.631
19.6663 11.742
19.6815 11.824
19.6967 11.903
19.7118 11.756
19.7270 11.623
19.7422 11.834
19.7574 12.118
19.7725 12.017
19.7877 12.097
19.8029 12.225
19.8180 12.274
19.8332 12.187
19.8484 12.248
19.8636 12.578
19.8787 12.799
19.8939 12.787
19.9091 13.023
19.9243 13.530
19.9394 13.720
19.9546 13.957
19.9698 14.418
19.9850 14.525
20.0001 14.341
20.0153 14.034
20.0305 13.982
20.0457 13.990
20.0608 14.031
20.0760 13.817
20.0912 13.680
20.1064 13.895
20.1215 13.583
20.1367 13.290
20.1519 13.313
20.1671 13.147
20.1822 13.106
20.1974 12.856
20.2126 12.852
20.2278 12.902
20.2429 12.801
20.2581 12.387
20.2733 12.434
20.2885 12.335
20.3036 12.049
20.3188 11.891
20.3340 11.959
20.3492 12.139
20.3643 11.938
20.3795 11.825
20.3947 11.867
20.4099 11.865
20.4250 11.842
20.4402 11.771
20.4554 11.982
20.4706 11.974
20.4857 11.625
20.5009 11.675
20.5161 11.398
20.5313 11.441
20.5464 11.463
20.5616 11.279
20.5768 11.203
20.5920 11.333
20.6071 11.312
20.6223 11.103
20.6375 10.730
20.6527 10.553
20.6678 10.548
20.6830 10.440
20.6982 10.596
20.7134 10.506
20.7285 10.677
20.7437 10.191
20.7589 10.243
20.7741 10.745
20.7892 10.384
20.8044 10.597
20.8196 10.482
20.8348 10.468
20.8499 10.533
20.8651 10.473
20.8803 10.225
20.8955 10.477
20.9106 10.397
20.9258 10.302
20.9410 10.037
20.9562 10.004
20.9713 10.255
20.9865 10.034
21.0017 9.978
21.0169 10.127
21.0320 10.186
21.0472 9.495
21.0624 9.735
21.0776 10.225
21.0927 9.811
21.1079 9.691
21.1231 10.086
21.1383 9.832
21.1534 9.711
21.1686 9.782
21.1838 9.820
21.1990 9.576
21.2141 9.561
21.2293 9.689
21.2445 9.734
21.2597 9.830
21.2748 9.891
21.2900 9.493
21.3052 9.484
21.3204 9.857
21.3355 9.646
21.3507 9.352
21.3659 9.443
21.3811 9.824
21.3962 9.408
21.4114 9.610
21.4266 9.552
21.4418 9.385
21.4569 9.109
21.4721 9.299
21.4873 9.141
21.5025 9.236
21.5176 9.444
21.5328 9.295
21.5480 9.334
21.5632 9.542
21.5783 9.061
21.5935 9.077
21.6087 9.100
21.6239 9.498
21.6390 9.534
21.6542 9.124
21.6694 9.111
21.6846 9.090
21.6997 9.028
21.7149 9.184
21.7301 8.972
21.7453 9.073
21.7604 9.222
21.7756 8.898
21.7908 8.921
21.8060 8.977
21.8211 9.087
21.8363 8.988
21.8515 8.907
21.8667 8.875
21.8818 8.926
21.8970 8.939
21.9122 9.037
21.9274 8.939
21.9425 8.997
21.9577 9.101
21.9729 8.779
21.9881 8.813
22.0032 8.890
22.0184 8.944
22.0336 8.930
22.0488 8.797
22.0639 8.735
22.0791 8.667
22.0943 8.584
22.1095 8.720
22.1246 8.870
22.1398 8.764
22.1550 8.744
22.1702 8.682
22.1853 8.652
22.2005 8.655
22.2157 8.665
22.2309 8.451
22.2460 8.584
22.2612 8.600
22.2764 8.367
22.2916 8.407
22.3067 8.485
22.3219 8.605
22.3371 8.569
22.3523 8.532
22.3674 8.271
22.3826 8.165
22.3978 8.244
22.4130 8.482
22.4281 8.289
22.4433 8.421
22.4585 8.486
22.4737 8.431
22.4888 8.648
22.5040 8.737
22.5192 8.273
22.5344 8.420
22.5495 8.405
22.5647 8.145
22.5799 8.430
22.5951 8.525
22.6102 8.477
22.6254 8.320
22.6406 8.449
22.6558 8.687
22.6709 8.515
22.6861 8.226
22.7013 8.211
22.7165 8.228
22.7316 6.472
