'Id: "" Comment: "" Operator: "Lab Manager" Anode: "Mo" Scantype: "Still (Eiger2R_500K (1D mode))" TimePerStep: "300" X: "11.8" Y: "9.4" Z: "11.284" 
7.2532 18.789
7.2684 18.821
7.2836 19.328
7.2987 19.135
7.3139 18.943
7.3291 19.044
7.3443 19.341
7.3594 19.458
7.3746 19.340
7.3898 19.209
7.4050 19.657
7.4201 19.753
7.4353 19.716
7.4505 19.587
7.4657 20.017
7.4808 19.723
7.4960 19.533
7.5112 19.376
7.5264 19.558
7.5415 19.758
7.5567 19.717
7.5719 19.897
7.5871 20.135
7.6022 19.957
7.6174 20.187
7.6326 20.090
7.6478 19.887
7.6629 20.083
7.6781 20.128
7.6933 20.129
7.7085 20.225
7.7236 20.496
7.7388 20.752
7.7540 20.682
7.7692 20.606
7.7843 20.567
7.7995 20.599
7.8147 20.811
7.8299 20.963
7.8450 20.755
7.8602 20.943
7.8754 21.205
7.8905 21.332
7.9057 21.295
7.9209 21.183
7.9361 21.215
7.9512 21.192
7.9664 21.280
7.9816 21.600
7.9968 21.282
8.0119 21.300
8.0271 21.140
8.0423 20.803
8.0575 21.294
8.0726 21.492
8.0878 21.211
8.1030 21.383
8.1182 21.491
8.1333 21.126
8.1485 21.678
8.1637 21.707
8.1789 21.313
8.1940 21.509
8.2092 21.618
8.2244 21.468
8.2396 21.696
8.2547 21.574
8.2699 21.734
8.2851 21.955
8.3003 21.690
8.3154 21.946
8.3306 21.793
8.3458 21.870
8.3610 21.965
8.3761 22.175
8.3913 21.672
8.4065 21.918
8.4217 21.918
8.4368 22.186
8.4520 21.944
8.4672 22.607
8.4824 21.957
8.4975 22.784
8.5127 22.074
8.5279 22.038
8.5431 21.981
8.5582 22.588
8.5734 22.357
8.5886 22.250
8.6038 22.537
8.6189 22.650
8.6341 22.264
8.6493 22.754
8.6645 22.846
8.6796 22.453
8.6948 22.815
8.7100 22.708
8.7252 23.267
8.7403 22.898
8.7555 23.147
8.7707 22.622
8.7859 22.993
8.8010 22.894
8.8162 23.115
8.8314 23.015
8.8466 22.350
8.8617 22.219
8.8769 22.582
8.8921 22.707
8.9073 23.132
8.9224 23.128
8.9376 22.963
8.9528 22.744
8.9680 22.842
8.9831 22.689
8.9983 22.948
9.0135 23.117
9.0287 23.109
9.0438 22.995
9.0590 22.808
9.0742 23.186
9.0894 23.142
9.1045 23.114
9.1197 23.077
9.1349 23.128
9.1501 22.779
9.1652 22.991
9.1804 22.900
9.1956 23.183
9.2108 22.582
9.2259 23.041
9.2411 23.216
9.2563 23.084
9.2715 23.083
9.2866 23.318
9.3018 23.238
9.3170 23.214
9.3322 23.380
9.3473 23.247
9.3625 23.247
9.3777 23.523
9.3929 23.602
9.4080 23.765
9.4232 23.332
9.4384 23.037
9.4536 23.735
9.4687 23.675
9.4839 23.146
9.4991 23.188
9.5143 23.323
9.5294 23.474
9.5446 23.435
9.5598 23.295
9.5750 23.408
9.5901 23.488
9.6053 23.334
9.6205 23.345
9.6357 23.639
9.6508 23.708
9.6660 23.677
9.6812 23.739
9.6964 23.601
9.7115 23.847
9.7267 24.194
9.7419 24.414
9.7571 24.161
9.7722 24.011
9.7874 24.035
9.8026 24.059
9.8178 23.645
9.8329 23.439
9.8481 23.518
9.8633 23.475
9.8785 23.569
9.8936 23.581
9.9088 23.453
9.9240 23.584
9.9392 23.885
9.9543 23.549
9.9695 23.771
9.9847 23.974
9.9999 23.656
10.0150 23.468
10.0302 23.407
10.0454 23.302
10.0606 23.325
10.0757 23.256
10.0909 23.364
10.1061 23.220
10.1213 23.432
10.1364 23.419
10.1516 23.176
10.1668 23.551
10.1820 23.724
10.1971 23.614
10.2123 23.627
10.2275 23.648
10.2427 23.967
10.2578 23.720
10.2730 23.501
10.2882 23.404
10.3034 23.670
10.3185 23.615
10.3337 23.365
10.3489 23.149
10.3641 23.015
10.3792 22.710
10.3944 22.863
10.4096 22.881
10.4248 23.125
10.4399 22.789
10.4551 22.778
10.4703 22.812
10.4855 22.710
10.5006 22.544
10.5158 22.337
10.5310 22.414
10.5462 22.800
10.5613 22.925
10.5765 22.786
10.5917 22.799
10.6069 22.627
10.6220 22.548
10.6372 22.553
10.6524 22.294
10.6676 22.233
10.6827 22.613
10.6979 23.110
10.7131 22.538
10.7283 22.451
10.7434 22.748
10.7586 22.600
10.7738 22.611
10.7890 22.420
10.8041 22.486
10.8193 22.373
10.8345 22.392
10.8497 22.510
10.8648 22.689
10.8800 22.622
10.8952 22.350
10.9104 22.251
10.9255 22.291
10.9407 22.198
10.9559 22.145
10.9711 21.865
10.9862 21.914
11.0014 22.024
11.0166 21.999
11.0318 22.186
11.0469 22.128
11.0621 21.764
11.0773 22.222
11.0925 22.009
11.1076 21.793
11.1228 21.756
11.1380 21.845
11.1532 21.968
11.1683 22.388
11.1835 22.253
11.1987 21.889
11.2139 22.025
11.2290 22.009
11.2442 21.747
11.2594 21.760
11.2746 22.044
11.2897 22.042
11.3049 21.761
11.3201 21.738
11.3353 21.618
11.3504 21.237
11.3656 21.659
11.3808 21.827
11.3960 21.561
11.4111 21.427
11.4263 21.274
11.4415 21.125
11.4567 21.109
11.4718 21.342
11.4870 21.347
11.5022 21.234
11.5174 21.142
11.5325 21.215
11.5477 21.003
11.5629 21.068
11.5781 20.931
11.5932 20.854
11.6084 20.781
11.6236 20.762
11.6388 20.752
11.6539 20.719
11.6691 20.880
11.6843 20.626
11.6995 20.587
11.7146 20.515
11.7298 20.521
11.7450 20.130
11.7602 20.412
11.7753 20.520
11.7905 20.475
11.8057 20.546
11.8209 20.226
11.8360 20.186
11.8512 20.301
11.8664 19.844
11.8816 19.615
11.8967 20.068
11.9119 20.038
11.9271 19.996
11.9423 19.732
11.9574 19.773
11.9726 19.610
11.9878 19.286
12.0030 19.294
12.0181 19.095
12.0333 19.304
12.0485 19.152
12.0637 19.333
12.0788 19.427
12.0940 18.703
12.1092 18.563
12.1244 18.908
12.1395 18.895
12.1547 18.721
12.1699 18.646
12.1851 18.590
12.2002 18.398
12.2154 17.946
12.2306 17.827
12.2458 17.867
12.2609 18.124
12.2761 18.022
12.2913 17.831
12.3065 17.827
12.3216 17.947
12.3368 17.875
12.3520 17.737
12.3672 17.606
12.3823 17.466
12.3975 17.404
12.4127 17.387
12.4279 17.438
12.4430 17.240
12.4582 17.002
12.4734 17.107
12.4886 17.295
12.5037 17.257
12.5189 17.185
12.5341 16.925
12.5493 16.968
12.5644 16.718
12.5796 16.402
12.5948 16.355
12.6100 16.266
12.6251 16.125
12.6403 15.986
12.6555 15.985
12.6707 15.962
12.6858 15.779
12.7010 15.538
12.7162 15.421
12.7314 15.821
12.7465 15.702
12.7617 15.157
12.7769 15.191
12.7921 15.408
12.8072 15.275
12.8224 15.471
12.8376 15.454
12.8528 15.134
12.8679 15.007
12.8831 15.011
12.8983 14.807
12.9135 14.731
12.9286 14.967
12.9438 14.630
12.9590 14.315
12.9742 14.525
12.9893 14.395
13.0045 14.497
13.0197 14.660
13.0349 14.406
13.0500 14.404
13.0652 14.124
13.0804 13.764
13.0956 13.935
13.1107 14.057
13.1259 14.196
13.1411 13.887
13.1563 13.494
13.1714 13.685
13.1866 13.683
13.2018 13.599
13.2170 13.611
13.2321 13.578
13.2473 13.614
13.2625 13.540
13.2777 13.284
13.2928 13.286
13.3080 13.228
13.3232 12.995
13.3384 13.176
13.3535 13.149
13.3687 13.001
13.3839 13.277
13.3991 13.442
13.4142 13.176
13.4294 12.741
13.4446 12.782
13.4598 12.907
13.4749 12.942
13.4901 12.834
13.5053 12.667
13.5205 12.533
13.5356 12.701
13.5508 12.760
13.5660 12.485
13.5812 12.431
13.5963 12.376
13.6115 12.128
13.6267 12.138
13.6419 12.298
13.6570 12.383
13.6722 12.148
13.6874 12.079
13.7026 12.255
13.7177 12.175
13.7329 12.167
13.7481 12.080
13.7633 12.106
13.7784 12.040
13.7936 12.255
13.8088 12.316
13.8239 12.308
13.8391 12.635
13.8543 12.869
13.8695 12.576
13.8846 12.424
13.8998 12.095
13.9150 12.009
13.9302 12.344
13.9453 12.249
13.9605 11.954
13.9757 11.878
13.9909 11.795
14.0060 11.319
14.0212 11.386
14.0364 11.665
14.0516 11.682
14.0667 11.333
14.0819 11.336
14.0971 11.536
14.1123 11.351
14.1274 11.473
14.1426 11.716
14.1578 11.519
14.1730 11.817
14.1881 11.728
14.2033 11.861
14.2185 11.825
14.2337 11.956
14.2488 11.858
14.2640 11.680
14.2792 11.995
14.2944 11.958
14.3095 11.982
14.3247 12.165
14.3399 12.113
14.3551 12.057
14.3702 12.332
14.3854 12.665
14.4006 12.522
14.4158 12.633
14.4309 12.643
14.4461 12.489
14.4613 12.409
14.4765 12.158
14.4916 12.119
14.5068 11.947
14.5220 11.557
14.5372 11.440
14.5523 11.309
14.5675 11.555
14.5827 11.524
14.5979 11.348
14.6130 11.336
14.6282 11.029
14.6434 11.005
14.6586 11.034
14.6737 11.161
14.6889 11.261
14.7041 10.831
14.7193 11.030
14.7344 11.197
14.7496 10.760
14.7648 10.941
14.7800 10.827
14.7951 11.034
14.8103 11.137
14.8255 10.879
14.8407 10.523
14.8558 10.438
14.8710 10.240
14.8862 10.522
14.9014 10.832
14.9165 10.734
14.9317 10.991
14.9469 10.627
14.9621 10.584
14.9772 10.457
14.9924 10.603
15.0076 10.538
15.0228 10.704
15.0379 10.636
15.0531 10.614
15.0683 10.666
15.0835 10.572
15.0986 10.637
15.1138 10.735
15.1290 10.926
15.1442 10.342
15.1593 10.347
15.1745 10.485
15.1897 10.327
15.2049 10.573
15.2200 10.215
15.2352 10.521
15.2504 10.438
15.2656 10.413
15.2807 10.160
15.2959 10.310
15.3111 10.172
15.3263 10.064
15.3414 10.453
15.3566 10.544
15.3718 10.315
15.3870 10.142
15.4021 10.209
15.4173 10.630
15.4325 10.516
15.4477 10.537
15.4628 10.370
15.4780 10.192
15.4932 10.370
15.5084 10.418
15.5235 10.445
15.5387 10.685
15.5539 10.263
15.5691 10.176
15.5842 10.331
15.5994 10.155
15.6146 10.166
15.6298 10.257
15.6449 10.206
15.6601 9.832
15.6753 10.033
15.6905 10.204
15.7056 10.029
15.7208 10.027
15.7360 10.310
15.7512 10.229
15.7663 9.847
15.7815 9.867
15.7967 9.727
15.8119 10.024
15.8270 9.796
15.8422 10.163
15.8574 10.043
15.8726 9.909
15.8877 10.184
15.9029 9.936
15.9181 10.183
15.9333 9.721
15.9484 9.891
15.9636 9.593
15.9788 9.567
15.9940 10.123
16.0091 9.894
16.0243 10.047
16.0395 9.989
16.0547 9.692
16.0698 10.004
16.0850 9.934
16.1002 9.692
16.1154 9.585
16.1305 9.900
16.1457 9.823
16.1609 9.850
16.1761 9.893
16.1912 9.710
16.2064 9.759
16.2216 9.655
16.2368 9.750
16.2519 9.873
16.2671 10.057
16.2823 9.997
16.2975 9.879
16.3126 10.010
16.3278 9.872
16.3430 9.988
16.3582 9.981
16.3733 10.230
16.3885 10.114
16.4037 10.218
16.4189 9.922
16.4340 9.907
16.4492 9.960
16.4644 9.856
16.4796 9.929
16.4947 9.922
16.5099 9.927
16.5251 9.891
16.5403 9.893
16.5554 9.704
16.5706 9.674
16.5858 9.891
16.6010 9.969
16.6161 9.678
16.6313 9.672
16.6465 9.959
16.6617 9.933
16.6768 9.766
16.6920 9.839
16.7072 10.021
16.7224 10.014
16.7375 9.968
16.7527 10.169
16.7679 9.930
16.7831 10.062
16.7982 10.063
16.8134 10.062
16.8286 9.906
16.8438 9.805
16.8589 9.833
16.8741 9.842
16.8893 9.890
16.9045 10.080
16.9196 10.017
16.9348 9.653
16.9500 9.727
16.9652 9.805
16.9803 9.800
16.9955 9.852
17.0107 10.058
17.0259 10.125
17.0410 9.919
17.0562 10.078
17.0714 10.331
17.0866 10.282
17.1017 10.438
17.1169 10.809
17.1321 10.992
17.1473 11.151
17.1624 11.701
17.1776 12.298
17.1928 13.063
17.2080 13.943
17.2231 15.296
17.2383 16.693
17.2535 17.722
17.2687 18.519
17.2838 18.774
17.2990 18.340
17.3142 17.012
17.3294 15.862
17.3445 15.879
17.3597 16.152
17.3749 15.907
17.3901 15.255
17.4052 14.301
17.4204 13.380
17.4356 12.511
17.4508 11.920
17.4659 11.664
17.4811 11.431
17.4963 11.322
17.5115 11.313
17.5266 11.435
17.5418 11.366
17.5570 11.312
17.5722 11.352
17.5873 11.421
17.6025 11.530
17.6177 11.271
17.6329 11.053
17.6480 10.965
17.6632 10.830
17.6784 10.644
17.6936 10.702
17.7087 10.837
17.7239 10.754
17.7391 10.632
17.7543 10.623
17.7694 10.436
17.7846 10.217
17.7998 10.201
17.8150 10.030
17.8301 10.104
17.8453 10.226
17.8605 10.144
17.8757 10.238
17.8908 10.244
17.9060 10.327
17.9212 10.219
17.9364 10.175
17.9515 10.066
17.9667 10.068
17.9819 10.306
17.9971 10.310
18.0122 10.364
18.0274 10.315
18.0426 10.360
18.0578 10.120
18.0729 10.094
18.0881 10.049
18.1033 10.123
18.1185 10.032
18.1336 9.897
18.1488 9.995
18.1640 10.218
18.1792 10.164
18.1943 10.039
18.2095 9.960
18.2247 9.955
18.2399 9.906
18.2550 9.589
18.2702 9.678
18.2854 9.773
18.3006 9.838
18.3157 9.776
18.3309 9.745
18.3461 10.061
18.3613 10.234
18.3764 10.027
18.3916 9.767
18.4068 9.821
18.4220 9.922
18.4371 9.622
18.4523 9.680
18.4675 9.879
18.4827 9.729
18.4978 9.936
18.5130 10.131
18.5282 9.853
18.5434 9.710
18.5585 9.603
18.5737 9.636
18.5889 9.576
18.6041 9.761
18.6192 9.779
18.6344 9.842
18.6496 9.874
18.6648 9.780
18.6799 9.573
18.6951 9.810
18.7103 9.895
18.7255 9.766
18.7406 9.758
18.7558 9.753
18.7710 9.780
18.7862 9.729
18.8013 9.642
18.8165 9.738
18.8317 9.829
18.8469 9.787
18.8620 9.628
18.8772 9.889
18.8924 9.686
18.9076 9.650
18.9227 9.980
18.9379 9.934
18.9531 10.044
18.9683 9.714
18.9834 9.828
18.9986 9.983
19.0138 10.172
19.0290 10.169
19.0441 10.243
19.0593 10.179
19.0745 10.068
19.0897 10.155
19.1048 10.619
19.1200 10.547
19.1352 10.326
19.1504 10.502
19.1655 10.513
19.1807 10.383
19.1959 10.505
19.2111 10.507
19.2262 10.430
19.2414 10.594
19.2566 10.810
19.2718 10.766
19.2869 10.891
19.3021 11.110
19.3173 11.036
19.3325 10.790
19.3476 11.062
19.3628 11.224
19.3780 10.969
19.3932 11.128
19.4083 11.326
19.4235 11.277
19.4387 11.388
19.4539 11.352
19.4690 11.316
19.4842 11.505
19.4994 11.554
19.5146 11.462
19.5297 11.435
19.5449 11.613
19.5601 11.698
19.5753 11.572
19.5904 11.565
19.6056 11.591
19.6208 11.599
19.6360 11.580
19.6511 11.547
19.6663 11.603
19.6815 11.595
19.6967 11.675
19.7118 11.718
19.7270 11.522
19.7422 11.730
19.7574 11.864
19.7725 11.813
19.7877 11.891
19.8029 11.822
19.8180 11.821
19.8332 12.231
19.8484 12.537
19.8636 12.535
19.8787 12.482
19.8939 12.816
19.9091 13.243
19.9243 13.523
19.9394 13.698
19.9546 13.929
19.9698 14.280
19.9850 14.520
20.0001 14.357
20.0153 14.314
20.0305 14.000
20.0457 13.857
20.0608 13.963
20.0760 13.839
20.0912 14.029
20.1064 13.931
20.1215 13.642
20.1367 13.234
20.1519 13.041
20.1671 12.983
20.1822 13.004
20.1974 12.887
20.2126 12.604
20.2278 12.556
20.2429 12.616
20.2581 12.445
20.2733 12.181
20.2885 11.859
20.3036 11.808
20.3188 11.938
20.3340 11.624
20.3492 11.773
20.3643 11.573
20.3795 11.296
20.3947 11.459
20.4099 11.051
20.4250 10.819
20.4402 11.120
20.4554 11.091
20.4706 10.803
20.4857 10.834
20.5009 10.921
20.5161 10.928
20.5313 10.582
20.5464 10.755
20.5616 10.546
20.5768 10.386
20.5920 10.632
20.6071 10.687
20.6223 10.524
20.6375 10.565
20.6527 10.763
20.6678 10.652
20.6830 10.468
20.6982 10.636
20.7134 10.765
20.7285 10.515
20.7437 10.554
20.7589 10.480
20.7741 10.640
20.7892 10.538
20.8044 10.388
20.8196 10.596
20.8348 10.350
20.8499 10.280
20.8651 9.804
20.8803 10.270
20.8955 10.132
20.9106 9.736
20.9258 10.171
20.9410 10.338
20.9562 10.415
20.9713 10.092
20.9865 10.046
21.0017 10.100
21.0169 9.982
21.0320 9.911
21.0472 9.745
21.0624 10.236
21.0776 10.058
21.0927 10.137
21.1079 10.179
21.1231 9.885
21.1383 9.722
21.1534 9.677
21.1686 10.162
21.1838 9.683
21.1990 10.127
21.2141 9.610
21.2293 10.004
21.2445 9.934
21.2597 9.463
21.2748 9.111
21.2900 9.754
21.3052 9.225
21.3204 9.514
21.3355 9.558
21.3507 9.823
21.3659 9.348
21.3811 9.648
21.3962 9.623
21.4114 9.637
21.4266 9.485
21.4418 9.668
21.4569 9.542
21.4721 9.421
21.4873 9.397
21.5025 9.376
21.5176 9.467
21.5328 9.583
21.5480 9.365
21.5632 9.287
21.5783 9.258
21.5935 9.053
21.6087 9.254
21.6239 9.121
21.6390 9.049
21.6542 9.449
21.6694 9.318
21.6846 9.211
21.6997 9.244
21.7149 9.373
21.7301 9.282
21.7453 9.236
21.7604 9.240
21.7756 9.139
21.7908 9.023
21.8060 9.048
21.8211 9.051
21.8363 9.025
21.8515 9.156
21.8667 9.155
21.8818 8.998
21.8970 9.023
21.9122 9.083
21.9274 9.057
21.9425 8.801
21.9577 8.762
21.9729 8.970
21.9881 8.917
22.0032 9.137
22.0184 9.137
22.0336 8.893
22.0488 8.726
22.0639 8.688
22.0791 8.838
22.0943 8.763
22.1095 8.734
22.1246 8.755
22.1398 8.769
22.1550 8.418
22.1702 8.639
22.1853 8.891
22.2005 8.719
22.2157 8.550
22.2309 8.746
22.2460 8.689
22.2612 8.731
22.2764 8.826
22.2916 8.751
22.3067 8.581
22.3219 8.629
22.3371 8.383
22.3523 8.336
22.3674 8.882
22.3826 8.538
22.3978 8.337
22.4130 8.252
22.4281 8.374
22.4433 8.568
22.4585 8.734
22.4737 8.689
22.4888 8.686
22.5040 8.434
22.5192 8.460
22.5344 8.521
22.5495 8.489
22.5647 8.336
22.5799 8.599
22.5951 8.380
22.6102 8.689
22.6254 8.795
22.6406 8.719
22.6558 8.564
22.6709 8.257
22.6861 8.391
22.7013 8.427
22.7165 8.452
22.7316 6.541
