'Id: "" Comment: "" Operator: "Lab Manager" Anode: "Mo" Scantype: "Still (Eiger2R_500K (1D mode))" TimePerStep: "300" X: "11.8" Y: "9.4" Z: "11.284" 
7.2532 18.618
7.2684 18.719
7.2836 19.195
7.2987 19.211
7.3139 18.878
7.3291 19.590
7.3443 19.195
7.3594 19.351
7.3746 19.701
7.3898 19.689
7.4050 19.533
7.4201 19.671
7.4353 19.769
7.4505 19.527
7.4657 19.943
7.4808 19.592
7.4960 19.562
7.5112 19.758
7.5264 19.566
7.5415 19.767
7.5567 19.656
7.5719 19.529
7.5871 19.534
7.6022 19.854
7.6174 19.937
7.6326 19.780
7.6478 20.006
7.6629 20.271
7.6781 19.922
7.6933 20.208
7.7085 20.524
7.7236 20.548
7.7388 20.750
7.7540 20.681
7.7692 20.525
7.7843 20.677
7.7995 20.887
7.8147 20.674
7.8299 20.375
7.8450 20.650
7.8602 20.967
7.8754 21.256
7.8905 21.249
7.9057 21.015
7.9209 20.892
7.9361 21.011
7.9512 20.987
7.9664 20.876
7.9816 20.845
7.9968 21.248
8.0119 21.111
8.0271 21.341
8.0423 21.211
8.0575 21.310
8.0726 21.468
8.0878 21.405
8.1030 21.490
8.1182 21.544
8.1333 21.450
8.1485 21.566
8.1637 21.531
8.1789 21.628
8.1940 21.777
8.2092 21.829
8.2244 21.909
8.2396 21.906
8.2547 21.980
8.2699 22.207
8.2851 21.906
8.3003 22.158
8.3154 21.759
8.3306 21.952
8.3458 21.397
8.3610 21.828
8.3761 22.190
8.3913 22.265
8.4065 21.879
8.4217 21.733
8.4368 21.996
8.4520 21.963
8.4672 21.856
8.4824 21.904
8.4975 22.012
8.5127 22.079
8.5279 21.856
8.5431 21.986
8.5582 22.032
8.5734 22.464
8.5886 22.076
8.6038 22.193
8.6189 22.618
8.6341 22.990
8.6493 22.852
8.6645 22.496
8.6796 22.066
8.6948 22.511
8.7100 22.432
8.7252 22.742
8.7403 22.565
8.7555 22.729
8.7707 22.615
8.7859 22.889
8.8010 23.143
8.8162 22.921
8.8314 22.687
8.8466 22.604
8.8617 22.401
8.8769 22.133
8.8921 22.562
8.9073 22.534
8.9224 22.958
8.9376 22.791
8.9528 22.523
8.9680 22.515
8.9831 22.301
8.9983 22.454
9.0135 22.482
9.0287 22.547
9.0438 22.876
9.0590 22.576
9.0742 22.890
9.0894 22.796
9.1045 22.972
9.1197 22.805
9.1349 22.787
9.1501 23.156
9.1652 23.107
9.1804 23.319
9.1956 22.749
9.2108 22.838
9.2259 22.971
9.2411 22.683
9.2563 22.821
9.2715 22.858
9.2866 23.208
9.3018 22.991
9.3170 22.855
9.3322 23.033
9.3473 23.065
9.3625 23.208
9.3777 22.909
9.3929 23.109
9.4080 23.044
9.4232 22.919
9.4384 23.070
9.4536 23.268
9.4687 23.392
9.4839 23.200
9.4991 23.113
9.5143 23.328
9.5294 23.496
9.5446 23.556
9.5598 23.528
9.5750 23.582
9.5901 23.130
9.6053 22.994
9.6205 23.241
9.6357 23.516
9.6508 23.605
9.6660 23.538
9.6812 23.441
9.6964 23.914
9.7115 24.275
9.7267 24.396
9.7419 24.706
9.7571 24.361
9.7722 23.973
9.7874 24.047
9.8026 24.035
9.8178 23.711
9.8329 23.586
9.8481 23.616
9.8633 23.500
9.8785 23.515
9.8936 23.875
9.9088 24.035
9.9240 23.824
9.9392 23.947
9.9543 24.296
9.9695 24.212
9.9847 23.954
9.9999 24.037
10.0150 23.868
10.0302 23.737
10.0454 23.720
10.0606 23.499
10.0757 23.382
10.0909 23.698
10.1061 23.523
10.1213 23.509
10.1364 23.742
10.1516 23.809
10.1668 24.031
10.1820 24.119
10.1971 23.909
10.2123 23.980
10.2275 24.184
10.2427 23.996
10.2578 23.761
10.2730 23.657
10.2882 23.614
10.3034 23.844
10.3185 23.920
10.3337 23.790
10.3489 23.762
10.3641 23.431
10.3792 23.091
10.3944 22.968
10.4096 23.050
10.4248 22.991
10.4399 22.707
10.4551 22.721
10.4703 22.843
10.4855 23.023
10.5006 22.551
10.5158 22.620
10.5310 22.637
10.5462 22.708
10.5613 22.827
10.5765 23.033
10.5917 22.583
10.6069 22.732
10.6220 22.713
10.6372 22.737
10.6524 22.790
10.6676 22.834
10.6827 22.679
10.6979 22.754
10.7131 22.495
10.7283 22.434
10.7434 22.432
10.7586 22.470
10.7738 22.312
10.7890 22.069
10.8041 22.366
10.8193 22.144
10.8345 22.337
10.8497 22.599
10.8648 22.837
10.8800 22.589
10.8952 22.337
10.9104 22.446
10.9255 22.209
10.9407 21.841
10.9559 22.136
10.9711 22.053
10.9862 22.084
11.0014 22.318
11.0166 22.314
11.0318 22.064
11.0469 21.757
11.0621 22.091
11.0773 22.054
11.0925 21.708
11.1076 21.653
11.1228 21.883
11.1380 22.004
11.1532 21.920
11.1683 21.759
11.1835 21.999
11.1987 21.901
11.2139 21.758
11.2290 21.998
11.2442 21.731
11.2594 21.671
11.2746 21.694
11.2897 21.481
11.3049 21.672
11.3201 21.607
11.3353 21.313
11.3504 21.433
11.3656 21.862
11.3808 21.951
11.3960 21.650
11.4111 21.631
11.4263 21.396
11.4415 21.499
11.4567 21.576
11.4718 21.265
11.4870 21.331
11.5022 20.918
11.5174 20.836
11.5325 21.232
11.5477 21.423
11.5629 20.914
11.5781 20.962
11.5932 21.164
11.6084 20.953
11.6236 20.838
11.6388 20.923
11.6539 20.825
11.6691 20.478
11.6843 20.296
11.6995 20.020
11.7146 20.557
11.7298 20.617
11.7450 20.143
11.7602 20.060
11.7753 20.205
11.7905 20.105
11.8057 20.246
11.8209 20.006
11.8360 20.012
11.8512 19.688
11.8664 19.733
11.8816 20.027
11.8967 19.813
11.9119 19.639
11.9271 19.351
11.9423 19.522
11.9574 19.540
11.9726 19.365
11.9878 19.367
12.0030 19.185
12.0181 19.266
12.0333 18.921
12.0485 18.908
12.0637 18.640
12.0788 18.623
12.0940 18.696
12.1092 18.592
12.1244 18.268
12.1395 18.870
12.1547 18.876
12.1699 18.526
12.1851 18.503
12.2002 18.237
12.2154 18.078
12.2306 18.061
12.2458 17.916
12.2609 18.019
12.2761 18.192
12.2913 17.953
12.3065 17.759
12.3216 17.628
12.3368 17.563
12.3520 17.495
12.3672 17.123
12.3823 17.110
12.3975 17.390
12.4127 17.139
12.4279 16.767
12.4430 17.140
12.4582 17.250
12.4734 17.145
12.4886 16.946
12.5037 16.794
12.5189 16.756
12.5341 16.427
12.5493 16.326
12.5644 16.231
12.5796 16.191
12.5948 16.124
12.6100 16.101
12.6251 16.096
12.6403 15.759
12.6555 15.852
12.6707 15.890
12.6858 15.903
12.7010 15.668
12.7162 15.427
12.7314 15.367
12.7465 15.254
12.7617 15.241
12.7769 14.971
12.7921 15.143
12.8072 15.407
12.8224 15.247
12.8376 15.044
12.8528 14.933
12.8679 14.810
12.8831 14.904
12.8983 14.867
12.9135 14.697
12.9286 14.550
12.9438 14.429
12.9590 14.360
12.9742 14.536
12.9893 14.517
13.0045 14.400
13.0197 14.155
13.0349 13.922
13.0500 13.949
13.0652 13.880
13.0804 13.905
13.0956 13.908
13.1107 13.795
13.1259 13.839
13.1411 13.480
13.1563 13.396
13.1714 13.650
13.1866 13.353
13.2018 13.377
13.2170 13.553
13.2321 13.395
13.2473 13.303
13.2625 13.284
13.2777 13.225
13.2928 13.110
13.3080 13.028
13.3232 13.066
13.3384 13.087
13.3535 12.887
13.3687 12.857
13.3839 13.067
13.3991 12.912
13.4142 12.944
13.4294 12.863
13.4446 12.717
13.4598 12.588
13.4749 12.570
13.4901 12.626
13.5053 12.410
13.5205 12.302
13.5356 12.059
13.5508 12.106
13.5660 12.226
13.5812 12.353
13.5963 12.297
13.6115 12.146
13.6267 12.163
13.6419 12.241
13.6570 12.047
13.6722 11.835
13.6874 12.039
13.7026 12.017
13.7177 11.869
13.7329 12.048
13.7481 12.019
13.7633 11.818
13.7784 11.877
13.7936 12.025
13.8088 11.945
13.8239 12.180
13.8391 12.023
13.8543 11.977
13.8695 12.085
13.8846 12.115
13.8998 12.225
13.9150 12.413
13.9302 12.107
13.9453 11.845
13.9605 11.856
13.9757 11.648
13.9909 11.494
14.0060 11.212
14.0212 11.255
14.0364 11.481
14.0516 11.368
14.0667 11.312
14.0819 11.395
14.0971 11.400
14.1123 11.126
14.1274 11.321
14.1426 11.286
14.1578 11.102
14.1730 11.046
14.1881 11.367
14.2033 11.415
14.2185 11.472
14.2337 11.468
14.2488 11.509
14.2640 11.353
14.2792 11.504
14.2944 11.839
14.3095 12.022
14.3247 11.975
14.3399 11.893
14.3551 12.251
14.3702 12.721
14.3854 12.920
14.4006 13.075
14.4158 13.188
14.4309 13.265
14.4461 12.994
14.4613 13.114
14.4765 13.095
14.4916 13.260
14.5068 12.814
14.5220 12.847
14.5372 12.506
14.5523 12.791
14.5675 12.628
14.5827 12.414
14.5979 12.288
14.6130 12.265
14.6282 11.763
14.6434 11.879
14.6586 11.970
14.6737 11.820
14.6889 11.631
14.7041 11.218
14.7193 11.096
14.7344 11.238
14.7496 11.086
14.7648 11.006
14.7800 11.077
14.7951 11.000
14.8103 11.126
14.8255 10.958
14.8407 11.191
14.8558 10.977
14.8710 10.846
14.8862 10.707
14.9014 11.305
14.9165 10.953
14.9317 10.854
14.9469 10.637
14.9621 10.786
14.9772 10.534
14.9924 10.686
15.0076 10.459
15.0228 10.897
15.0379 10.459
15.0531 10.617
15.0683 10.647
15.0835 10.239
15.0986 10.535
15.1138 10.562
15.1290 10.779
15.1442 10.695
15.1593 10.549
15.1745 10.680
15.1897 10.966
15.2049 10.416
15.2200 10.671
15.2352 10.723
15.2504 10.191
15.2656 10.587
15.2807 10.372
15.2959 10.063
15.3111 10.472
15.3263 10.080
15.3414 10.614
15.3566 10.159
15.3718 10.350
15.3870 10.148
15.4021 10.589
15.4173 10.493
15.4325 10.782
15.4477 10.669
15.4628 10.416
15.4780 10.540
15.4932 10.834
15.5084 10.221
15.5235 10.151
15.5387 10.349
15.5539 10.495
15.5691 10.386
15.5842 10.666
15.5994 10.404
15.6146 10.022
15.6298 10.114
15.6449 10.196
15.6601 10.102
15.6753 9.938
15.6905 9.950
15.7056 10.243
15.7208 10.126
15.7360 9.801
15.7512 9.885
15.7663 9.499
15.7815 9.753
15.7967 9.737
15.8119 9.776
15.8270 10.029
15.8422 10.012
15.8574 9.797
15.8726 9.766
15.8877 9.551
15.9029 9.586
15.9181 9.760
15.9333 9.689
15.9484 9.763
15.9636 9.769
15.9788 9.757
15.9940 9.971
16.0091 9.978
16.0243 9.573
16.0395 9.694
16.0547 9.879
16.0698 9.842
16.0850 9.691
16.1002 9.511
16.1154 9.621
16.1305 9.832
16.1457 9.701
16.1609 9.742
16.1761 9.718
16.1912 9.802
16.2064 9.752
16.2216 9.677
16.2368 9.974
16.2519 9.920
16.2671 10.160
16.2823 10.051
16.2975 10.016
16.3126 10.219
16.3278 10.270
16.3430 10.103
16.3582 10.086
16.3733 10.108
16.3885 10.174
16.4037 10.649
16.4189 10.333
16.4340 10.107
16.4492 9.957
16.4644 9.846
16.4796 9.894
16.4947 9.833
16.5099 9.884
16.5251 9.705
16.5403 9.709
16.5554 10.128
16.5706 9.866
16.5858 9.827
16.6010 9.673
16.6161 9.580
16.6313 9.709
16.6465 9.747
16.6617 10.024
16.6768 9.945
16.6920 9.811
16.7072 9.779
16.7224 10.090
16.7375 10.187
16.7527 9.902
16.7679 9.884
16.7831 10.026
16.7982 10.054
16.8134 9.919
16.8286 9.873
16.8438 9.920
16.8589 9.836
16.8741 9.622
16.8893 9.627
16.9045 9.859
16.9196 9.838
16.9348 9.813
16.9500 9.851
16.9652 9.950
16.9803 9.887
16.9955 9.850
17.0107 10.026
17.0259 10.024
17.0410 10.126
17.0562 10.454
17.0714 10.559
17.0866 10.223
17.1017 10.287
17.1169 10.616
17.1321 10.818
17.1473 10.888
17.1624 11.548
17.1776 12.373
17.1928 13.169
17.2080 13.893
17.2231 14.892
17.2383 16.336
17.2535 17.424
17.2687 18.531
17.2838 18.874
17.2990 17.912
17.3142 16.635
17.3294 15.952
17.3445 16.114
17.3597 16.440
17.3749 16.217
17.3901 15.479
17.4052 14.314
17.4204 13.230
17.4356 12.449
17.4508 11.735
17.4659 11.515
17.4811 11.684
17.4963 11.477
17.5115 11.001
17.5266 10.761
17.5418 10.722
17.5570 10.821
17.5722 10.928
17.5873 11.102
17.6025 11.086
17.6177 10.993
17.6329 10.916
17.6480 10.886
17.6632 10.625
17.6784 10.563
17.6936 10.853
17.7087 10.633
17.7239 10.664
17.7391 10.817
17.7543 10.838
17.7694 10.795
17.7846 10.862
17.7998 11.156
17.8150 11.367
17.8301 11.443
17.8453 11.663
17.8605 11.713
17.8757 11.849
17.8908 11.834
17.9060 11.963
17.9212 12.010
17.9364 11.609
17.9515 11.138
17.9667 11.127
17.9819 11.392
17.9971 11.134
18.0122 10.888
18.0274 10.828
18.0426 10.608
18.0578 10.451
18.0729 10.438
18.0881 10.368
18.1033 10.211
18.1185 10.069
18.1336 10.088
18.1488 10.152
18.1640 10.049
18.1792 10.274
18.1943 10.058
18.2095 9.881
18.2247 9.782
18.2399 9.649
18.2550 9.784
18.2702 9.850
18.2854 9.801
18.3006 9.784
18.3157 9.943
18.3309 9.982
18.3461 9.714
18.3613 9.600
18.3764 9.871
18.3916 10.015
18.4068 10.056
18.4220 10.203
18.4371 9.953
18.4523 9.652
18.4675 9.851
18.4827 9.731
18.4978 9.907
18.5130 10.080
18.5282 9.729
18.5434 9.778
18.5585 9.915
18.5737 9.948
18.5889 9.914
18.6041 9.740
18.6192 9.744
18.6344 9.728
18.6496 9.601
18.6648 9.550
18.6799 9.774
18.6951 9.971
18.7103 9.729
18.7255 9.652
18.7406 9.649
18.7558 9.730
18.7710 9.899
18.7862 9.907
18.8013 9.894
18.8165 9.544
18.8317 9.670
18.8469 9.888
18.8620 9.856
18.8772 9.843
18.8924 9.810
18.9076 9.788
18.9227 9.993
18.9379 10.059
18.9531 9.932
18.9683 9.955
18.9834 9.912
18.9986 9.874
19.0138 10.148
19.0290 10.178
19.0441 10.128
19.0593 10.294
19.0745 10.309
19.0897 10.429
19.1048 10.479
19.1200 10.340
19.1352 10.283
19.1504 10.306
19.1655 10.340
19.1807 10.534
19.1959 10.670
19.2111 10.562
19.2262 10.532
19.2414 10.715
19.2566 10.897
19.2718 11.234
19.2869 11.208
19.3021 10.988
19.3173 11.073
19.3325 11.189
19.3476 11.132
19.3628 10.914
19.3780 10.827
19.3932 11.123
19.4083 11.164
19.4235 11.003
19.4387 10.998
19.4539 11.299
19.4690 11.303
19.4842 10.969
19.4994 10.909
19.5146 11.219
19.5297 11.420
19.5449 11.648
19.5601 11.849
19.5753 11.642
19.5904 11.499
19.6056 11.552
19.6208 11.402
19.6360 11.461
19.6511 11.537
19.6663 11.594
19.6815 11.641
19.6967 11.594
19.7118 11.500
19.7270 11.464
19.7422 11.766
19.7574 11.838
19.7725 11.738
19.7877 11.820
19.8029 11.938
19.8180 12.161
19.8332 12.349
19.8484 11.983
19.8636 12.079
19.8787 12.509
19.8939 12.588
19.9091 12.938
19.9243 13.253
19.9394 13.496
19.9546 13.748
19.9698 14.249
19.9850 14.395
20.0001 14.466
20.0153 14.129
20.0305 13.689
20.0457 13.586
20.0608 13.752
20.0760 13.803
20.0912 13.691
20.1064 13.775
20.1215 13.582
20.1367 13.358
20.1519 13.099
20.1671 12.843
20.1822 12.995
20.1974 12.973
20.2126 12.660
20.2278 12.675
20.2429 12.669
20.2581 12.317
20.2733 12.077
20.2885 12.080
20.3036 11.907
20.3188 11.732
20.3340 11.779
20.3492 11.793
20.3643 11.634
20.3795 11.240
20.3947 11.068
20.4099 11.024
20.4250 10.976
20.4402 11.051
20.4554 10.643
20.4706 10.774
20.4857 11.094
20.5009 10.842
20.5161 10.676
20.5313 10.771
20.5464 10.898
20.5616 11.179
20.5768 11.009
20.5920 10.598
20.6071 10.688
20.6223 10.593
20.6375 10.585
20.6527 10.794
20.6678 10.799
20.6830 10.848
20.6982 10.953
20.7134 11.117
20.7285 10.925
20.7437 10.664
20.7589 10.732
20.7741 10.608
20.7892 10.649
20.8044 10.599
20.8196 10.776
20.8348 10.508
20.8499 10.615
20.8651 10.359
20.8803 10.574
20.8955 10.579
20.9106 10.539
20.9258 10.327
20.9410 10.273
20.9562 10.331
20.9713 10.417
20.9865 10.569
21.0017 10.304
21.0169 10.204
21.0320 10.293
21.0472 10.254
21.0624 10.269
21.0776 10.197
21.0927 10.186
21.1079 10.095
21.1231 10.122
21.1383 9.740
21.1534 10.175
21.1686 9.586
21.1838 10.112
21.1990 10.014
21.2141 10.080
21.2293 9.635
21.2445 9.812
21.2597 9.884
21.2748 9.693
21.2900 9.698
21.3052 9.287
21.3204 9.622
21.3355 9.382
21.3507 9.800
21.3659 9.451
21.3811 9.569
21.3962 9.348
21.4114 9.596
21.4266 9.591
21.4418 9.906
21.4569 9.917
21.4721 9.128
21.4873 9.381
21.5025 9.401
21.5176 9.267
21.5328 9.465
21.5480 9.681
21.5632 9.397
21.5783 9.323
21.5935 9.320
21.6087 9.389
21.6239 9.183
21.6390 8.857
21.6542 9.244
21.6694 8.993
21.6846 9.029
21.6997 9.075
21.7149 9.254
21.7301 9.045
21.7453 8.993
21.7604 9.119
21.7756 9.030
21.7908 9.000
21.8060 9.029
21.8211 9.050
21.8363 8.998
21.8515 9.124
21.8667 9.288
21.8818 9.274
21.8970 9.027
21.9122 9.026
21.9274 8.728
21.9425 8.765
21.9577 9.054
21.9729 9.068
21.9881 8.976
22.0032 8.850
22.0184 8.783
22.0336 8.906
22.0488 9.015
22.0639 8.985
22.0791 8.766
22.0943 8.582
22.1095 8.636
22.1246 8.463
22.1398 8.597
22.1550 8.694
22.1702 8.588
22.1853 8.614
22.2005 8.784
22.2157 8.697
22.2309 8.554
22.2460 8.467
22.2612 8.552
22.2764 8.687
22.2916 8.717
22.3067 8.616
22.3219 8.680
22.3371 8.599
22.3523 8.533
22.3674 8.657
22.3826 8.496
22.3978 8.548
22.4130 8.632
22.4281 8.486
22.4433 8.543
22.4585 8.378
22.4737 8.321
22.4888 8.674
22.5040 8.485
22.5192 8.460
22.5344 8.033
22.5495 8.352
22.5647 8.280
22.5799 8.228
22.5951 8.412
22.6102 8.350
22.6254 8.161
22.6406 8.278
22.6558 8.668
22.6709 8.161
22.6861 8.267
22.7013 8.417
22.7165 8.020
22.7316 6.477
