'Id: "" Comment: "" Operator: "Lab Manager" Anode: "Mo" Scantype: "Still (Eiger2R_500K (1D mode))" TimePerStep: "300" X: "11.8" Y: "9.4" Z: "11.284" 
7.2532 19.022
7.2684 18.797
7.2836 18.657
7.2987 19.198
7.3139 19.086
7.3291 19.189
7.3443 19.450
7.3594 19.093
7.3746 19.301
7.3898 19.281
7.4050 18.951
7.4201 19.857
7.4353 19.407
7.4505 19.535
7.4657 19.478
7.4808 19.657
7.4960 19.769
7.5112 19.950
7.5264 19.832
7.5415 20.073
7.5567 20.157
7.5719 20.051
7.5871 19.861
7.6022 19.881
7.6174 20.513
7.6326 20.446
7.6478 20.241
7.6629 20.229
7.6781 20.377
7.6933 20.280
7.7085 20.583
7.7236 20.557
7.7388 20.120
7.7540 20.409
7.7692 20.575
7.7843 20.588
7.7995 20.636
7.8147 20.630
7.8299 20.968
7.8450 21.211
7.8602 21.113
7.8754 21.151
7.8905 21.356
7.9057 21.238
7.9209 20.811
7.9361 21.028
7.9512 21.424
7.9664 21.426
7.9816 21.319
7.9968 21.467
8.0119 21.535
8.0271 21.447
8.0423 21.110
8.0575 21.532
8.0726 21.376
8.0878 21.280
8.1030 21.185
8.1182 21.510
8.1333 21.243
8.1485 21.603
8.1637 21.740
8.1789 21.378
8.1940 21.498
8.2092 21.896
8.2244 22.424
8.2396 22.353
8.2547 21.790
8.2699 21.810
8.2851 21.577
8.3003 21.919
8.3154 22.150
8.3306 22.143
8.3458 21.940
8.3610 22.421
8.3761 22.434
8.3913 22.150
8.4065 22.001
8.4217 21.984
8.4368 22.421
8.4520 22.257
8.4672 22.019
8.4824 21.803
8.4975 22.291
8.5127 21.824
8.5279 22.743
8.5431 22.530
8.5582 22.070
8.5734 22.504
8.5886 22.553
8.6038 22.241
8.6189 22.325
8.6341 22.750
8.6493 22.375
8.6645 22.577
8.6796 22.637
8.6948 22.275
8.7100 22.617
8.7252 22.970
8.7403 22.878
8.7555 22.451
8.7707 22.769
8.7859 22.369
8.8010 22.454
8.8162 22.606
8.8314 22.415
8.8466 22.852
8.8617 22.643
8.8769 22.639
8.8921 22.594
8.9073 22.465
8.9224 22.328
8.9376 22.727
8.9528 22.816
8.9680 22.619
8.9831 22.992
8.9983 22.451
9.0135 22.754
9.0287 22.951
9.0438 22.978
9.0590 23.020
9.0742 22.986
9.0894 22.722
9.1045 22.682
9.1197 22.809
9.1349 22.836
9.1501 22.839
9.1652 23.350
9.1804 23.218
9.1956 23.203
9.2108 23.030
9.2259 23.159
9.2411 23.276
9.2563 23.154
9.2715 22.970
9.2866 23.039
9.3018 23.028
9.3170 23.019
9.3322 23.283
9.3473 23.042
9.3625 23.472
9.3777 23.214
9.3929 23.043
9.4080 23.256
9.4232 23.578
9.4384 23.753
9.4536 23.752
9.4687 23.402
9.4839 23.177
9.4991 23.366
9.5143 23.171
9.5294 23.242
9.5446 23.333
9.5598 23.317
9.5750 23.405
9.5901 23.190
9.6053 23.568
9.6205 23.858
9.6357 23.334
9.6508 23.439
9.6660 23.832
9.6812 24.081
9.6964 23.822
9.7115 23.609
9.7267 23.914
9.7419 24.196
9.7571 24.180
9.7722 24.112
9.7874 24.007
9.8026 23.671
9.8178 23.490
9.8329 23.787
9.8481 23.900
9.8633 23.930
9.8785 23.859
9.8936 23.720
9.9088 23.689
9.9240 23.675
9.9392 23.824
9.9543 23.777
9.9695 23.832
9.9847 23.914
9.9999 24.000
10.0150 24.027
10.0302 23.885
10.0454 24.010
10.0606 23.934
10.0757 23.960
10.0909 23.880
10.1061 23.965
10.1213 24.035
10.1364 24.066
10.1516 24.382
10.1668 24.477
10.1820 24.108
10.1971 24.097
10.2123 24.508
10.2275 24.723
10.2427 24.653
10.2578 24.436
10.2730 23.887
10.2882 23.937
10.3034 24.114
10.3185 23.677
10.3337 23.503
10.3489 23.030
10.3641 22.695
10.3792 23.168
10.3944 23.283
10.4096 22.782
10.4248 22.991
10.4399 23.000
10.4551 22.842
10.4703 22.871
10.4855 22.716
10.5006 22.854
10.5158 23.009
10.5310 23.218
10.5462 22.889
10.5613 22.452
10.5765 22.795
10.5917 22.717
10.6069 22.492
10.6220 22.686
10.6372 22.783
10.6524 22.664
10.6676 22.801
10.6827 23.157
10.6979 22.778
10.7131 22.681
10.7283 22.732
10.7434 22.687
10.7586 22.569
10.7738 22.408
10.7890 22.541
10.8041 22.766
10.8193 22.597
10.8345 22.746
10.8497 22.765
10.8648 22.307
10.8800 22.364
10.8952 22.105
10.9104 22.175
10.9255 22.104
10.9407 22.230
10.9559 22.075
10.9711 22.325
10.9862 22.351
11.0014 21.984
11.0166 22.294
11.0318 22.203
11.0469 21.922
11.0621 22.017
11.0773 22.112
11.0925 22.128
11.1076 22.052
11.1228 21.829
11.1380 21.768
11.1532 22.064
11.1683 22.085
11.1835 21.392
11.1987 21.620
11.2139 22.275
11.2290 22.022
11.2442 21.954
11.2594 21.815
11.2746 21.769
11.2897 21.743
11.3049 21.736
11.3201 21.949
11.3353 22.041
11.3504 21.812
11.3656 21.476
11.3808 21.158
11.3960 21.430
11.4111 21.569
11.4263 21.530
11.4415 20.983
11.4567 21.082
11.4718 21.290
11.4870 21.527
11.5022 21.215
11.5174 21.054
11.5325 20.728
11.5477 21.050
11.5629 21.080
11.5781 21.037
11.5932 21.136
11.6084 20.621
11.6236 20.595
11.6388 20.498
11.6539 20.684
11.6691 20.820
11.6843 20.787
11.6995 20.723
11.7146 20.576
11.7298 20.495
11.7450 20.718
11.7602 20.286
11.7753 19.871
11.7905 19.914
11.8057 20.063
11.8209 19.944
11.8360 20.020
11.8512 20.237
11.8664 20.307
11.8816 19.921
11.8967 19.942
11.9119 19.939
11.9271 19.730
11.9423 19.604
11.9574 19.736
11.9726 19.462
11.9878 19.008
12.0030 19.246
12.0181 19.020
12.0333 18.820
12.0485 19.239
12.0637 19.017
12.0788 18.681
12.0940 18.415
12.1092 18.538
12.1244 18.834
12.1395 18.791
12.1547 18.231
12.1699 18.464
12.1851 18.366
12.2002 18.274
12.2154 18.388
12.2306 18.397
12.2458 18.425
12.2609 18.028
12.2761 17.902
12.2913 17.840
12.3065 17.648
12.3216 17.895
12.3368 18.026
12.3520 17.441
12.3672 17.216
12.3823 17.173
12.3975 17.360
12.4127 17.282
12.4279 17.445
12.4430 17.417
12.4582 17.233
12.4734 17.234
12.4886 17.005
12.5037 16.885
12.5189 16.732
12.5341 16.802
12.5493 16.852
12.5644 16.348
12.5796 16.233
12.5948 16.383
12.6100 16.242
12.6251 16.082
12.6403 16.052
12.6555 15.938
12.6707 15.874
12.6858 15.757
12.7010 15.664
12.7162 15.538
12.7314 15.431
12.7465 15.450
12.7617 15.304
12.7769 15.268
12.7921 15.306
12.8072 15.234
12.8224 15.132
12.8376 15.097
12.8528 15.042
12.8679 14.847
12.8831 14.792
12.8983 14.718
12.9135 14.880
12.9286 14.830
12.9438 14.305
12.9590 14.313
12.9742 14.771
12.9893 14.493
13.0045 14.133
13.0197 13.951
13.0349 13.879
13.0500 14.052
13.0652 13.850
13.0804 13.829
13.0956 13.833
13.1107 13.888
13.1259 14.065
13.1411 13.811
13.1563 13.626
13.1714 13.456
13.1866 13.260
13.2018 13.224
13.2170 13.533
13.2321 13.676
13.2473 13.288
13.2625 13.207
13.2777 13.270
13.2928 13.311
13.3080 13.213
13.3232 13.175
13.3384 13.260
13.3535 13.236
13.3687 13.330
13.3839 13.149
13.3991 13.110
13.4142 13.037
13.4294 12.725
13.4446 12.720
13.4598 12.584
13.4749 12.594
13.4901 12.803
13.5053 12.641
13.5205 12.523
13.5356 12.561
13.5508 12.262
13.5660 12.079
13.5812 12.218
13.5963 12.266
13.6115 12.219
13.6267 12.249
13.6419 12.291
13.6570 12.260
13.6722 12.162
13.6874 12.045
13.7026 12.061
13.7177 12.022
13.7329 11.836
13.7481 11.918
13.7633 12.345
13.7784 12.515
13.7936 12.234
13.8088 12.056
13.8239 12.089
13.8391 12.441
13.8543 12.541
13.8695 12.120
13.8846 12.017
13.8998 12.084
13.9150 12.005
13.9302 11.803
13.9453 11.770
13.9605 11.832
13.9757 11.597
13.9909 11.611
14.0060 11.753
14.0212 11.548
14.0364 11.502
14.0516 11.633
14.0667 11.621
14.0819 11.405
14.0971 11.271
14.1123 11.458
14.1274 11.693
14.1426 11.204
14.1578 11.112
14.1730 11.521
14.1881 11.576
14.2033 11.600
14.2185 11.736
14.2337 11.786
14.2488 12.022
14.2640 12.094
14.2792 12.227
14.2944 12.087
14.3095 11.868
14.3247 12.300
14.3399 12.549
14.3551 12.983
14.3702 13.003
14.3854 13.349
14.4006 13.348
14.4158 13.002
14.4309 12.860
14.4461 13.131
14.4613 13.224
14.4765 13.052
14.4916 12.906
14.5068 12.724
14.5220 13.008
14.5372 12.907
14.5523 12.554
14.5675 12.478
14.5827 12.443
14.5979 12.497
14.6130 12.099
14.6282 11.911
14.6434 11.722
14.6586 11.688
14.6737 11.299
14.6889 11.163
14.7041 11.227
14.7193 11.314
14.7344 11.367
14.7496 10.925
14.7648 10.993
14.7800 10.870
14.7951 10.569
14.8103 10.695
14.8255 10.954
14.8407 10.927
14.8558 10.467
14.8710 10.670
14.8862 10.875
14.9014 10.888
14.9165 10.603
14.9317 10.780
14.9469 10.591
14.9621 10.549
14.9772 10.326
14.9924 10.359
15.0076 10.489
15.0228 10.155
15.0379 10.719
15.0531 10.724
15.0683 10.629
15.0835 10.749
15.0986 10.643
15.1138 10.514
15.1290 10.160
15.1442 10.795
15.1593 10.767
15.1745 10.782
15.1897 10.396
15.2049 10.570
15.2200 10.906
15.2352 10.623
15.2504 10.444
15.2656 10.544
15.2807 10.359
15.2959 10.519
15.3111 10.612
15.3263 10.666
15.3414 10.180
15.3566 10.457
15.3718 10.382
15.3870 10.388
15.4021 10.680
15.4173 10.249
15.4325 10.465
15.4477 10.614
15.4628 10.603
15.4780 10.662
15.4932 10.611
15.5084 10.621
15.5235 10.409
15.5387 10.249
15.5539 10.283
15.5691 10.296
15.5842 10.220
15.5994 10.411
15.6146 10.509
15.6298 10.370
15.6449 10.231
15.6601 9.905
15.6753 9.943
15.6905 10.193
15.7056 10.165
15.7208 10.049
15.7360 9.933
15.7512 9.853
15.7663 9.889
15.7815 10.090
15.7967 9.691
15.8119 9.967
15.8270 9.797
15.8422 9.754
15.8574 9.906
15.8726 9.848
15.8877 9.776
15.9029 9.563
15.9181 9.970
15.9333 9.745
15.9484 9.820
15.9636 9.461
15.9788 9.861
15.9940 10.103
16.0091 9.812
16.0243 9.934
16.0395 9.879
16.0547 9.876
16.0698 10.051
16.0850 9.754
16.1002 9.718
16.1154 9.675
16.1305 9.787
16.1457 9.785
16.1609 9.876
16.1761 9.872
16.1912 9.701
16.2064 9.915
16.2216 10.126
16.2368 9.851
16.2519 10.008
16.2671 10.079
16.2823 10.048
16.2975 10.164
16.3126 10.195
16.3278 10.290
16.3430 10.328
16.3582 10.083
16.3733 10.243
16.3885 10.358
16.4037 10.360
16.4189 10.389
16.4340 10.227
16.4492 9.980
16.4644 9.767
16.4796 9.781
16.4947 10.209
16.5099 10.080
16.5251 9.973
16.5403 10.002
16.5554 9.735
16.5706 9.920
16.5858 9.787
16.6010 9.663
16.6161 9.768
16.6313 9.737
16.6465 9.729
16.6617 9.920
16.6768 9.916
16.6920 9.980
16.7072 9.912
16.7224 10.094
16.7375 10.104
16.7527 9.873
16.7679 9.954
16.7831 10.023
16.7982 9.898
16.8134 10.072
16.8286 10.139
16.8438 9.944
16.8589 9.936
16.8741 10.057
16.8893 10.056
16.9045 9.848
16.9196 9.601
16.9348 9.538
16.9500 9.894
16.9652 9.983
16.9803 9.876
16.9955 9.796
17.0107 10.003
17.0259 10.290
17.0410 10.131
17.0562 9.872
17.0714 10.126
17.0866 10.401
17.1017 10.640
17.1169 10.998
17.1321 11.180
17.1473 11.320
17.1624 11.699
17.1776 12.256
17.1928 12.808
17.2080 13.616
17.2231 14.857
17.2383 16.058
17.2535 17.302
17.2687 18.335
17.2838 18.300
17.2990 17.581
17.3142 16.781
17.3294 16.321
17.3445 16.085
17.3597 15.932
17.3749 15.909
17.3901 15.236
17.4052 14.249
17.4204 13.332
17.4356 12.485
17.4508 12.075
17.4659 11.736
17.4811 11.621
17.4963 11.518
17.5115 11.269
17.5266 11.259
17.5418 11.384
17.5570 11.515
17.5722 11.504
17.5873 11.475
17.6025 11.452
17.6177 11.367
17.6329 11.116
17.6480 10.949
17.6632 11.103
17.6784 11.274
17.6936 11.124
17.7087 11.101
17.7239 11.315
17.7391 11.180
17.7543 10.942
17.7694 10.696
17.7846 10.615
17.7998 11.028
17.8150 11.291
17.8301 11.463
17.8453 11.548
17.8605 11.647
17.8757 11.585
17.8908 11.345
17.9060 11.445
17.9212 11.627
17.9364 11.411
17.9515 11.088
17.9667 10.991
17.9819 11.042
17.9971 10.800
18.0122 10.621
18.0274 10.669
18.0426 10.500
18.0578 10.374
18.0729 10.269
18.0881 10.277
18.1033 10.170
18.1185 10.036
18.1336 10.032
18.1488 10.152
18.1640 10.228
18.1792 10.069
18.1943 9.895
18.2095 9.882
18.2247 10.002
18.2399 10.160
18.2550 10.116
18.2702 10.036
18.2854 9.919
18.3006 9.991
18.3157 9.957
18.3309 9.822
18.3461 9.859
18.3613 10.015
18.3764 10.008
18.3916 10.011
18.4068 10.053
18.4220 9.914
18.4371 9.682
18.4523 9.809
18.4675 9.779
18.4827 9.748
18.4978 9.962
18.5130 9.927
18.5282 9.924
18.5434 10.079
18.5585 9.987
18.5737 9.846
18.5889 9.875
18.6041 9.661
18.6192 9.673
18.6344 9.615
18.6496 9.575
18.6648 9.720
18.6799 9.891
18.6951 9.757
18.7103 9.820
18.7255 10.117
18.7406 9.955
18.7558 9.752
18.7710 9.972
18.7862 9.935
18.8013 9.928
18.8165 9.758
18.8317 9.873
18.8469 9.947
18.8620 10.165
18.8772 10.135
18.8924 9.815
18.9076 9.733
18.9227 9.891
18.9379 9.938
18.9531 9.988
18.9683 10.136
18.9834 9.922
18.9986 9.901
19.0138 10.058
19.0290 9.922
19.0441 10.168
19.0593 10.505
19.0745 10.393
19.0897 10.330
19.1048 10.318
19.1200 10.291
19.1352 10.390
19.1504 10.628
19.1655 10.815
19.1807 10.520
19.1959 10.732
19.2111 10.798
19.2262 10.800
19.2414 10.646
19.2566 10.784
19.2718 10.872
19.2869 10.782
19.3021 10.991
19.3173 11.214
19.3325 11.305
19.3476 11.153
19.3628 11.051
19.3780 10.986
19.3932 10.992
19.4083 11.213
19.4235 11.428
19.4387 11.373
19.4539 11.321
19.4690 11.202
19.4842 11.124
19.4994 11.266
19.5146 11.413
19.5297 11.485
19.5449 11.394
19.5601 11.359
19.5753 11.420
19.5904 11.538
19.6056 11.647
19.6208 11.648
19.6360 11.744
19.6511 11.741
19.6663 11.649
19.6815 11.443
19.6967 11.493
19.7118 11.859
19.7270 11.732
19.7422 11.572
19.7574 11.816
19.7725 11.988
19.7877 11.897
19.8029 11.872
19.8180 11.935
19.8332 12.203
19.8484 12.280
19.8636 12.316
19.8787 12.585
19.8939 12.843
19.9091 13.096
19.9243 13.259
19.9394 13.450
19.9546 13.969
19.9698 14.418
19.9850 14.526
20.0001 14.486
20.0153 14.161
20.0305 13.981
20.0457 13.999
20.0608 13.873
20.0760 13.809
20.0912 13.762
20.1064 13.571
20.1215 13.428
20.1367 13.372
20.1519 13.105
20.1671 12.826
20.1822 12.827
20.1974 12.881
20.2126 13.008
20.2278 12.949
20.2429 12.603
20.2581 12.336
20.2733 12.087
20.2885 12.019
20.3036 12.193
20.3188 12.147
20.3340 12.014
20.3492 11.874
20.3643 11.652
20.3795 11.272
20.3947 11.406
20.4099 11.276
20.4250 11.233
20.4402 11.087
20.4554 10.973
20.4706 10.976
20.4857 11.196
20.5009 10.970
20.5161 10.750
20.5313 10.727
20.5464 10.985
20.5616 11.244
20.5768 11.370
20.5920 11.312
20.6071 10.990
20.6223 10.879
20.6375 10.757
20.6527 10.936
20.6678 10.898
20.6830 11.373
20.6982 10.975
20.7134 10.679
20.7285 10.785
20.7437 10.805
20.7589 10.811
20.7741 10.990
20.7892 10.869
20.8044 10.727
20.8196 10.915
20.8348 10.674
20.8499 10.385
20.8651 10.387
20.8803 10.264
20.8955 10.072
20.9106 10.384
20.9258 9.802
20.9410 10.321
20.9562 10.541
20.9713 10.020
20.9865 10.310
21.0017 10.327
21.0169 9.984
21.0320 10.097
21.0472 10.188
21.0624 10.170
21.0776 10.041
21.0927 9.648
21.1079 9.804
21.1231 10.178
21.1383 10.218
21.1534 10.040
21.1686 9.784
21.1838 9.966
21.1990 9.674
21.2141 9.965
21.2293 9.720
21.2445 9.847
21.2597 9.596
21.2748 9.454
21.2900 9.392
21.3052 9.361
21.3204 9.265
21.3355 9.671
21.3507 9.391
21.3659 9.462
21.3811 9.462
21.3962 9.669
21.4114 9.415
21.4266 9.203
21.4418 9.531
21.4569 9.435
21.4721 9.408
21.4873 9.445
21.5025 9.465
21.5176 9.398
21.5328 9.488
21.5480 9.344
21.5632 9.283
21.5783 9.212
21.5935 9.372
21.6087 9.476
21.6239 9.369
21.6390 9.154
21.6542 9.232
21.6694 8.942
21.6846 8.878
21.6997 9.198
21.7149 9.018
21.7301 9.236
21.7453 9.254
21.7604 8.892
21.7756 8.848
21.7908 8.904
21.8060 8.820
21.8211 8.987
21.8363 9.323
21.8515 9.276
21.8667 9.017
21.8818 8.902
21.8970 8.902
21.9122 8.884
21.9274 8.828
21.9425 8.730
21.9577 8.847
21.9729 9.075
21.9881 9.011
22.0032 8.818
22.0184 8.550
22.0336 8.783
22.0488 8.927
22.0639 8.739
22.0791 8.808
22.0943 8.848
22.1095 8.719
22.1246 8.839
22.1398 9.009
22.1550 8.943
22.1702 8.856
22.1853 8.720
22.2005 8.573
22.2157 8.710
22.2309 8.585
22.2460 8.497
22.2612 8.523
22.2764 8.565
22.2916 8.480
22.3067 8.588
22.3219 8.740
22.3371 8.696
22.3523 8.491
22.3674 8.600
22.3826 8.843
22.3978 8.408
22.4130 8.187
22.4281 8.461
22.4433 8.601
22.4585 8.353
22.4737 8.426
22.4888 8.450
22.5040 8.393
22.5192 8.486
22.5344 8.579
22.5495 8.226
22.5647 8.600
22.5799 8.546
22.5951 8.299
22.6102 8.656
22.6254 8.272
22.6406 8.230
22.6558 8.470
22.6709 8.237
22.6861 8.433
22.7013 8.082
22.7165 8.137
22.7316 6.500
