'Id: "" Comment: "" Operator: "Lab Manager" Anode: "Mo" Scantype: "Still (Eiger2R_500K (1D mode))" TimePerStep: "300" X: "11.8" Y: "9.4" Z: "11.284" 
7.2532 18.605
7.2684 18.859
7.2836 19.120
7.2987 19.207
7.3139 19.125
7.3291 19.033
7.3443 18.947
7.3594 19.393
7.3746 19.528
7.3898 19.464
7.4050 19.264
7.4201 19.480
7.4353 19.520
7.4505 19.525
7.4657 19.471
7.4808 19.281
7.4960 19.528
7.5112 19.788
7.5264 19.602
7.5415 20.275
7.5567 20.326
7.5719 20.038
7.5871 19.950
7.6022 19.898
7.6174 19.779
7.6326 19.776
7.6478 20.037
7.6629 20.215
7.6781 20.182
7.6933 20.203
7.7085 20.400
7.7236 20.790
7.7388 20.734
7.7540 20.435
7.7692 20.478
7.7843 20.562
7.7995 20.539
7.8147 20.355
7.8299 20.436
7.8450 21.118
7.8602 21.141
7.8754 20.963
7.8905 21.027
7.9057 21.044
7.9209 21.058
7.9361 21.136
7.9512 21.007
7.9664 20.782
7.9816 20.785
7.9968 21.356
8.0119 21.491
8.0271 21.491
8.0423 21.570
8.0575 21.352
8.0726 21.459
8.0878 21.119
8.1030 21.296
8.1182 21.730
8.1333 21.823
8.1485 21.487
8.1637 21.731
8.1789 21.444
8.1940 21.409
8.2092 21.395
8.2244 21.285
8.2396 21.198
8.2547 21.361
8.2699 21.264
8.2851 21.721
8.3003 21.895
8.3154 21.636
8.3306 21.763
8.3458 22.033
8.3610 21.776
8.3761 22.003
8.3913 21.800
8.4065 21.882
8.4217 21.815
8.4368 22.144
8.4520 21.863
8.4672 22.205
8.4824 22.156
8.4975 22.249
8.5127 22.364
8.5279 22.351
8.5431 22.102
8.5582 21.995
8.5734 22.291
8.5886 22.346
8.6038 21.743
8.6189 22.773
8.6341 22.315
8.6493 22.790
8.6645 22.462
8.6796 22.510
8.6948 23.479
8.7100 22.964
8.7252 22.664
8.7403 22.710
8.7555 23.008
8.7707 23.015
8.7859 22.697
8.8010 23.090
8.8162 22.596
8.8314 22.693
8.8466 22.878
8.8617 22.542
8.8769 22.659
8.8921 22.584
8.9073 22.405
8.9224 22.590
8.9376 22.846
8.9528 22.995
8.9680 22.856
8.9831 22.892
8.9983 22.889
9.0135 23.147
9.0287 22.582
9.0438 22.665
9.0590 22.934
9.0742 22.826
9.0894 22.736
9.1045 22.817
9.1197 22.920
9.1349 22.949
9.1501 22.586
9.1652 22.962
9.1804 23.173
9.1956 22.962
9.2108 23.218
9.2259 23.261
9.2411 22.921
9.2563 23.034
9.2715 23.207
9.2866 23.122
9.3018 22.710
9.3170 22.910
9.3322 23.337
9.3473 23.011
9.3625 23.338
9.3777 23.584
9.3929 23.444
9.4080 23.146
9.4232 22.841
9.4384 23.302
9.4536 23.385
9.4687 23.311
9.4839 23.292
9.4991 23.357
9.5143 23.473
9.5294 23.371
9.5446 23.304
9.5598 23.829
9.5750 23.880
9.5901 23.596
9.6053 23.441
9.6205 23.348
9.6357 23.282
9.6508 23.371
9.6660 23.393
9.6812 23.595
9.6964 23.833
9.7115 24.068
9.7267 24.397
9.7419 24.423
9.7571 24.292
9.7722 24.277
9.7874 24.008
9.8026 23.863
9.8178 23.924
9.8329 23.859
9.8481 23.490
9.8633 23.174
9.8785 23.504
9.8936 23.193
9.9088 22.914
9.9240 23.399
9.9392 23.639
9.9543 23.486
9.9695 23.315
9.9847 23.376
9.9999 23.397
10.0150 23.526
10.0302 23.728
10.0454 23.473
10.0606 23.567
10.0757 23.802
10.0909 23.983
10.1061 23.631
10.1213 23.647
10.1364 24.334
10.1516 24.009
10.1668 23.774
10.1820 23.613
10.1971 23.747
10.2123 23.989
10.2275 24.057
10.2427 24.290
10.2578 23.889
10.2730 23.630
10.2882 23.494
10.3034 23.721
10.3185 23.601
10.3337 23.136
10.3489 22.941
10.3641 22.600
10.3792 22.684
10.3944 23.238
10.4096 23.212
10.4248 23.274
10.4399 23.002
10.4551 22.676
10.4703 22.975
10.4855 22.546
10.5006 22.720
10.5158 22.786
10.5310 22.976
10.5462 22.701
10.5613 22.591
10.5765 22.602
10.5917 22.566
10.6069 22.299
10.6220 22.320
10.6372 22.573
10.6524 22.739
10.6676 22.753
10.6827 22.577
10.6979 22.601
10.7131 22.512
10.7283 22.231
10.7434 22.417
10.7586 22.376
10.7738 22.401
10.7890 22.538
10.8041 21.929
10.8193 21.955
10.8345 22.258
10.8497 22.220
10.8648 22.575
10.8800 22.444
10.8952 22.404
10.9104 22.458
10.9255 22.154
10.9407 21.961
10.9559 22.255
10.9711 22.486
10.9862 22.116
11.0014 21.927
11.0166 22.255
11.0318 22.566
11.0469 21.870
11.0621 21.749
11.0773 22.039
11.0925 21.870
11.1076 21.760
11.1228 21.592
11.1380 21.923
11.1532 22.139
11.1683 22.078
11.1835 22.014
11.1987 22.110
11.2139 22.268
11.2290 22.229
11.2442 22.101
11.2594 21.783
11.2746 22.091
11.2897 22.277
11.3049 22.106
11.3201 21.924
11.3353 21.707
11.3504 21.512
11.3656 21.470
11.3808 21.790
11.3960 21.764
11.4111 21.513
11.4263 21.495
11.4415 21.216
11.4567 20.983
11.4718 21.037
11.4870 21.193
11.5022 21.035
11.5174 20.900
11.5325 20.845
11.5477 21.249
11.5629 21.037
11.5781 20.876
11.5932 20.558
11.6084 20.939
11.6236 20.820
11.6388 20.584
11.6539 20.741
11.6691 21.041
11.6843 20.914
11.6995 20.580
11.7146 20.578
11.7298 20.215
11.7450 20.162
11.7602 20.140
11.7753 20.193
11.7905 19.936
11.8057 20.107
11.8209 19.888
11.8360 20.057
11.8512 19.957
11.8664 19.804
11.8816 19.683
11.8967 19.647
11.9119 19.622
11.9271 19.538
11.9423 19.587
11.9574 19.444
11.9726 19.644
11.9878 19.431
12.0030 19.192
12.0181 19.077
12.0333 18.954
12.0485 18.768
12.0637 19.092
12.0788 18.883
12.0940 18.683
12.1092 18.592
12.1244 18.911
12.1395 18.754
12.1547 18.361
12.1699 18.149
12.1851 18.466
12.2002 18.221
12.2154 17.938
12.2306 17.776
12.2458 18.043
12.2609 18.040
12.2761 17.691
12.2913 17.760
12.3065 17.680
12.3216 17.377
12.3368 17.682
12.3520 17.820
12.3672 17.739
12.3823 17.690
12.3975 17.552
12.4127 17.309
12.4279 17.448
12.4430 17.327
12.4582 17.322
12.4734 17.132
12.4886 17.259
12.5037 17.247
12.5189 16.826
12.5341 16.554
12.5493 16.665
12.5644 16.705
12.5796 16.598
12.5948 16.327
12.6100 16.366
12.6251 16.204
12.6403 15.867
12.6555 15.847
12.6707 15.739
12.6858 15.878
12.7010 15.957
12.7162 15.624
12.7314 15.388
12.7465 15.316
12.7617 15.093
12.7769 15.156
12.7921 14.954
12.8072 15.157
12.8224 15.333
12.8376 15.300
12.8528 15.095
12.8679 14.575
12.8831 14.505
12.8983 14.697
12.9135 15.068
12.9286 14.961
12.9438 14.438
12.9590 14.588
12.9742 14.671
12.9893 14.289
13.0045 14.240
13.0197 14.416
13.0349 14.300
13.0500 14.290
13.0652 14.137
13.0804 14.081
13.0956 14.025
13.1107 13.711
13.1259 13.728
13.1411 13.872
13.1563 13.831
13.1714 13.650
13.1866 13.606
13.2018 13.386
13.2170 13.029
13.2321 13.177
13.2473 13.318
13.2625 13.098
13.2777 13.053
13.2928 13.023
13.3080 13.007
13.3232 13.037
13.3384 13.135
13.3535 13.203
13.3687 13.155
13.3839 13.118
13.3991 12.758
13.4142 12.636
13.4294 12.733
13.4446 12.713
13.4598 12.559
13.4749 12.501
13.4901 12.520
13.5053 12.394
13.5205 12.375
13.5356 12.369
13.5508 12.468
13.5660 12.483
13.5812 12.478
13.5963 12.556
13.6115 12.309
13.6267 12.155
13.6419 12.133
13.6570 12.050
13.6722 11.822
13.6874 11.981
13.7026 11.897
13.7177 11.627
13.7329 11.963
13.7481 12.252
13.7633 12.103
13.7784 12.046
13.7936 12.026
13.8088 11.933
13.8239 12.231
13.8391 12.187
13.8543 12.171
13.8695 12.109
13.8846 11.962
13.8998 11.995
13.9150 12.095
13.9302 12.201
13.9453 12.185
13.9605 11.886
13.9757 11.682
13.9909 11.766
14.0060 11.581
14.0212 11.430
14.0364 11.269
14.0516 11.339
14.0667 11.653
14.0819 11.629
14.0971 11.455
14.1123 11.441
14.1274 11.421
14.1426 11.411
14.1578 11.757
14.1730 11.593
14.1881 11.623
14.2033 11.585
14.2185 11.830
14.2337 11.823
14.2488 12.145
14.2640 11.970
14.2792 11.921
14.2944 12.111
14.3095 12.352
14.3247 12.296
14.3399 12.491
14.3551 12.695
14.3702 12.829
14.3854 13.326
14.4006 13.220
14.4158 13.217
14.4309 12.905
14.4461 12.781
14.4613 12.973
14.4765 12.557
14.4916 12.514
14.5068 12.449
14.5220 12.421
14.5372 12.017
14.5523 12.125
14.5675 12.184
14.5827 11.828
14.5979 11.795
14.6130 11.411
14.6282 11.346
14.6434 11.178
14.6586 11.007
14.6737 11.003
14.6889 11.424
14.7041 10.871
14.7193 11.078
14.7344 11.056
14.7496 10.818
14.7648 10.969
14.7800 10.798
14.7951 10.809
14.8103 10.943
14.8255 11.052
14.8407 10.678
14.8558 10.568
14.8710 10.574
14.8862 10.760
14.9014 10.402
14.9165 11.013
14.9317 11.147
14.9469 10.600
14.9621 10.704
14.9772 10.497
14.9924 10.752
15.0076 10.084
15.0228 10.472
15.0379 10.701
15.0531 10.719
15.0683 10.273
15.0835 10.362
15.0986 10.867
15.1138 10.373
15.1290 10.080
15.1442 10.596
15.1593 10.881
15.1745 10.556
15.1897 10.601
15.2049 10.430
15.2200 10.082
15.2352 10.128
15.2504 10.382
15.2656 10.673
15.2807 10.523
15.2959 10.558
15.3111 10.526
15.3263 10.209
15.3414 10.193
15.3566 10.299
15.3718 10.465
15.3870 10.686
15.4021 10.243
15.4173 10.768
15.4325 10.359
15.4477 10.191
15.4628 10.305
15.4780 10.660
15.4932 10.269
15.5084 10.280
15.5235 10.521
15.5387 10.711
15.5539 10.231
15.5691 9.938
15.5842 9.566
15.5994 10.076
15.6146 10.473
15.6298 9.970
15.6449 10.022
15.6601 9.942
15.6753 9.665
15.6905 9.651
15.7056 9.871
15.7208 9.984
15.7360 9.820
15.7512 9.647
15.7663 9.468
15.7815 9.942
15.7967 9.910
15.8119 9.893
15.8270 10.113
15.8422 10.144
15.8574 9.897
15.8726 9.753
15.8877 9.860
15.9029 9.750
15.9181 9.791
15.9333 9.756
15.9484 9.536
15.9636 9.637
15.9788 9.643
15.9940 9.664
16.0091 10.080
16.0243 10.087
16.0395 9.748
16.0547 9.540
16.0698 9.579
16.0850 9.514
16.1002 9.786
16.1154 9.952
16.1305 9.841
16.1457 9.662
16.1609 9.550
16.1761 9.854
16.1912 9.806
16.2064 9.935
16.2216 9.658
16.2368 9.644
16.2519 10.011
16.2671 9.777
16.2823 9.992
16.2975 10.075
16.3126 10.171
16.3278 9.857
16.3430 9.839
16.3582 10.048
16.3733 9.943
16.3885 9.993
16.4037 9.875
16.4189 9.849
16.4340 9.798
16.4492 9.851
16.4644 9.814
16.4796 9.858
16.4947 9.826
16.5099 9.989
16.5251 9.947
16.5403 9.541
16.5554 9.524
16.5706 9.601
16.5858 9.492
16.6010 9.696
16.6161 9.959
16.6313 9.856
16.6465 9.811
16.6617 9.666
16.6768 9.662
16.6920 9.798
16.7072 10.031
16.7224 10.258
16.7375 10.014
16.7527 9.951
16.7679 9.978
16.7831 9.754
16.7982 9.881
16.8134 9.982
16.8286 9.902
16.8438 9.794
16.8589 9.886
16.8741 9.724
16.8893 9.755
16.9045 9.739
16.9196 9.685
16.9348 9.699
16.9500 9.773
16.9652 9.896
16.9803 9.950
16.9955 9.855
17.0107 9.919
17.0259 10.098
17.0410 10.145
17.0562 10.026
17.0714 10.057
17.0866 10.213
17.1017 10.243
17.1169 10.499
17.1321 10.694
17.1473 11.269
17.1624 11.977
17.1776 12.246
17.1928 12.777
17.2080 13.918
17.2231 15.034
17.2383 16.022
17.2535 17.141
17.2687 18.374
17.2838 18.625
17.2990 18.034
17.3142 17.311
17.3294 16.361
17.3445 15.980
17.3597 16.189
17.3749 16.073
17.3901 15.249
17.4052 14.190
17.4204 13.110
17.4356 12.346
17.4508 12.174
17.4659 11.900
17.4811 11.483
17.4963 11.508
17.5115 11.635
17.5266 11.444
17.5418 11.335
17.5570 11.395
17.5722 11.455
17.5873 11.634
17.6025 11.615
17.6177 11.324
17.6329 11.238
17.6480 11.276
17.6632 11.154
17.6784 10.940
17.6936 11.227
17.7087 11.503
17.7239 11.192
17.7391 10.975
17.7543 10.775
17.7694 10.670
17.7846 10.755
17.7998 10.905
17.8150 10.850
17.8301 10.905
17.8453 10.864
17.8605 10.917
17.8757 10.949
17.8908 10.722
17.9060 10.815
17.9212 10.986
17.9364 10.789
17.9515 10.524
17.9667 10.428
17.9819 10.626
17.9971 10.709
18.0122 10.557
18.0274 10.355
18.0426 10.195
18.0578 10.093
18.0729 9.994
18.0881 10.107
18.1033 10.165
18.1185 9.952
18.1336 9.878
18.1488 9.907
18.1640 9.885
18.1792 9.900
18.1943 9.892
18.2095 9.826
18.2247 9.881
18.2399 9.994
18.2550 9.923
18.2702 9.726
18.2854 9.900
18.3006 9.972
18.3157 9.920
18.3309 9.770
18.3461 9.779
18.3613 9.834
18.3764 9.770
18.3916 9.683
18.4068 9.695
18.4220 9.612
18.4371 9.756
18.4523 9.928
18.4675 9.870
18.4827 9.699
18.4978 9.675
18.5130 9.985
18.5282 9.973
18.5434 9.976
18.5585 9.906
18.5737 9.788
18.5889 9.763
18.6041 9.702
18.6192 9.667
18.6344 9.461
18.6496 9.643
18.6648 9.732
18.6799 9.737
18.6951 9.608
18.7103 9.626
18.7255 9.803
18.7406 9.756
18.7558 9.637
18.7710 9.898
18.7862 9.969
18.8013 9.739
18.8165 9.615
18.8317 9.693
18.8469 9.923
18.8620 9.909
18.8772 10.000
18.8924 10.140
18.9076 9.970
18.9227 9.964
18.9379 10.112
18.9531 10.184
18.9683 10.174
18.9834 10.133
18.9986 10.163
19.0138 9.993
19.0290 10.066
19.0441 10.251
19.0593 10.179
19.0745 10.228
19.0897 10.422
19.1048 10.373
19.1200 10.326
19.1352 10.429
19.1504 10.449
19.1655 10.432
19.1807 10.410
19.1959 10.593
19.2111 10.502
19.2262 10.676
19.2414 10.749
19.2566 10.712
19.2718 10.727
19.2869 10.795
19.3021 10.629
19.3173 10.682
19.3325 11.020
19.3476 10.999
19.3628 10.917
19.3780 11.037
19.3932 11.030
19.4083 11.051
19.4235 11.018
19.4387 11.218
19.4539 11.367
19.4690 11.377
19.4842 11.201
19.4994 11.242
19.5146 11.292
19.5297 11.268
19.5449 11.546
19.5601 11.514
19.5753 11.406
19.5904 11.509
19.6056 11.578
19.6208 11.619
19.6360 11.659
19.6511 11.589
19.6663 11.582
19.6815 11.549
19.6967 11.617
19.7118 11.643
19.7270 11.524
19.7422 11.780
19.7574 11.912
19.7725 11.784
19.7877 11.768
19.8029 11.928
19.8180 12.035
19.8332 12.095
19.8484 12.299
19.8636 12.373
19.8787 12.339
19.8939 12.611
19.9091 12.752
19.9243 13.094
19.9394 13.513
19.9546 13.890
19.9698 14.113
19.9850 14.338
20.0001 14.299
20.0153 14.013
20.0305 13.792
20.0457 13.518
20.0608 13.449
20.0760 13.531
20.0912 13.635
20.1064 13.453
20.1215 13.237
20.1367 13.067
20.1519 12.861
20.1671 13.066
20.1822 13.035
20.1974 13.136
20.2126 12.827
20.2278 12.668
20.2429 12.948
20.2581 12.607
20.2733 12.106
20.2885 12.138
20.3036 12.240
20.3188 12.227
20.3340 11.847
20.3492 11.873
20.3643 11.746
20.3795 11.370
20.3947 11.204
20.4099 11.209
20.4250 11.151
20.4402 11.010
20.4554 11.174
20.4706 10.934
20.4857 10.673
20.5009 10.978
20.5161 11.156
20.5313 11.014
20.5464 10.773
20.5616 10.885
20.5768 10.853
20.5920 11.000
20.6071 10.844
20.6223 10.885
20.6375 10.925
20.6527 10.992
20.6678 10.822
20.6830 10.681
20.6982 10.881
20.7134 10.839
20.7285 10.462
20.7437 10.587
20.7589 10.470
20.7741 10.796
20.7892 10.550
20.8044 10.606
20.8196 10.694
20.8348 10.779
20.8499 10.382
20.8651 10.365
20.8803 10.348
20.8955 10.494
20.9106 10.056
20.9258 10.261
20.9410 10.158
20.9562 10.172
20.9713 10.390
20.9865 10.098
21.0017 10.131
21.0169 10.402
21.0320 9.907
21.0472 9.888
21.0624 9.760
21.0776 9.933
21.0927 9.902
21.1079 9.881
21.1231 9.710
21.1383 9.745
21.1534 9.779
21.1686 9.870
21.1838 9.572
21.1990 9.699
21.2141 9.698
21.2293 9.791
21.2445 9.508
21.2597 9.498
21.2748 9.792
21.2900 9.575
21.3052 9.960
21.3204 9.535
21.3355 9.728
21.3507 9.484
21.3659 9.203
21.3811 9.318
21.3962 9.441
21.4114 9.376
21.4266 9.312
21.4418 9.432
21.4569 9.393
21.4721 9.395
21.4873 9.153
21.5025 9.154
21.5176 9.417
21.5328 9.359
21.5480 9.162
21.5632 9.198
21.5783 9.115
21.5935 9.220
21.6087 9.374
21.6239 9.284
21.6390 9.291
21.6542 9.236
21.6694 8.933
21.6846 9.148
21.6997 8.989
21.7149 9.031
21.7301 9.100
21.7453 8.922
21.7604 9.072
21.7756 9.300
21.7908 9.054
21.8060 8.925
21.8211 9.041
21.8363 8.903
21.8515 8.974
21.8667 9.054
21.8818 9.157
21.8970 9.109
21.9122 8.833
21.9274 8.780
21.9425 8.988
21.9577 9.062
21.9729 8.884
21.9881 8.810
22.0032 9.015
22.0184 8.963
22.0336 8.937
22.0488 8.888
22.0639 8.731
22.0791 8.579
22.0943 8.681
22.1095 8.610
22.1246 8.770
22.1398 8.822
22.1550 8.586
22.1702 8.630
22.1853 8.707
22.2005 8.667
22.2157 8.571
22.2309 8.435
22.2460 8.558
22.2612 8.698
22.2764 8.821
22.2916 8.643
22.3067 8.474
22.3219 8.694
22.3371 8.608
22.3523 8.328
22.3674 8.582
22.3826 8.672
22.3978 8.641
22.4130 8.345
22.4281 8.187
22.4433 8.498
22.4585 8.621
22.4737 8.464
22.4888 8.597
22.5040 8.739
22.5192 8.530
22.5344 8.363
22.5495 8.481
22.5647 8.558
22.5799 8.502
22.5951 8.396
22.6102 8.373
22.6254 8.376
22.6406 8.338
22.6558 8.292
22.6709 8.593
22.6861 8.465
22.7013 8.212
22.7165 8.015
22.7316 6.537
