'Id: "" Comment: "" Operator: "Lab Manager" Anode: "Mo" Scantype: "Still (Eiger2R_500K (1D mode))" TimePerStep: "300" X: "11.8" Y: "9.4" Z: "11.284" 
7.2532 19.126
7.2684 18.827
7.2836 18.968
7.2987 18.867
7.3139 18.861
7.3291 18.519
7.3443 18.390
7.3594 18.840
7.3746 19.386
7.3898 18.989
7.4050 19.090
7.4201 18.961
7.4353 18.942
7.4505 19.418
7.4657 19.240
7.4808 19.452
7.4960 19.766
7.5112 19.515
7.5264 19.692
7.5415 19.509
7.5567 19.616
7.5719 19.862
7.5871 20.182
7.6022 19.705
7.6174 19.619
7.6326 19.875
7.6478 20.095
7.6629 19.754
7.6781 19.614
7.6933 20.240
7.7085 20.221
7.7236 19.981
7.7388 20.269
7.7540 20.116
7.7692 20.003
7.7843 20.371
7.7995 20.553
7.8147 20.433
7.8299 20.299
7.8450 20.487
7.8602 20.605
7.8754 20.626
7.8905 20.804
7.9057 20.853
7.9209 20.945
7.9361 20.746
7.9512 20.604
7.9664 21.070
7.9816 21.170
7.9968 20.999
8.0119 21.048
8.0271 20.743
8.0423 21.114
8.0575 21.013
8.0726 20.783
8.0878 20.811
8.1030 21.218
8.1182 20.855
8.1333 20.878
8.1485 21.085
8.1637 21.092
8.1789 21.335
8.1940 21.158
8.2092 21.295
8.2244 21.266
8.2396 21.402
8.2547 21.435
8.2699 20.984
8.2851 21.421
8.3003 21.589
8.3154 21.729
8.3306 22.049
8.3458 21.634
8.3610 21.563
8.3761 21.359
8.3913 21.803
8.4065 21.661
8.4217 21.384
8.4368 21.852
8.4520 21.813
8.4672 21.763
8.4824 21.802
8.4975 21.615
8.5127 21.470
8.5279 21.480
8.5431 22.243
8.5582 22.424
8.5734 21.872
8.5886 21.994
8.6038 21.759
8.6189 22.159
8.6341 22.352
8.6493 22.243
8.6645 22.234
8.6796 21.912
8.6948 21.944
8.7100 22.396
8.7252 22.595
8.7403 22.291
8.7555 22.397
8.7707 22.074
8.7859 22.183
8.8010 22.838
8.8162 22.051
8.8314 21.983
8.8466 22.020
8.8617 21.904
8.8769 22.174
8.8921 22.149
8.9073 22.669
8.9224 22.469
8.9376 22.409
8.9528 22.385
8.9680 22.409
8.9831 22.221
8.9983 22.412
9.0135 22.632
9.0287 22.295
9.0438 22.432
9.0590 22.144
9.0742 22.771
9.0894 22.516
9.1045 22.438
9.1197 22.403
9.1349 22.594
9.1501 22.621
9.1652 22.642
9.1804 22.702
9.1956 22.532
9.2108 22.257
9.2259 22.628
9.2411 22.642
9.2563 22.873
9.2715 22.998
9.2866 22.755
9.3018 22.753
9.3170 22.534
9.3322 22.434
9.3473 22.707
9.3625 22.807
9.3777 22.866
9.3929 23.259
9.4080 23.137
9.4232 22.871
9.4384 22.945
9.4536 22.987
9.4687 23.126
9.4839 23.061
9.4991 22.694
9.5143 22.543
9.5294 22.926
9.5446 23.119
9.5598 22.515
9.5750 22.876
9.5901 23.332
9.6053 23.290
9.6205 23.343
9.6357 22.996
9.6508 22.884
9.6660 23.142
9.6812 23.196
9.6964 23.600
9.7115 23.924
9.7267 23.844
9.7419 24.012
9.7571 24.038
9.7722 23.769
9.7874 23.557
9.8026 23.702
9.8178 23.658
9.8329 23.542
9.8481 23.259
9.8633 23.199
9.8785 23.049
9.8936 22.957
9.9088 23.137
9.9240 23.080
9.9392 23.308
9.9543 23.334
9.9695 23.281
9.9847 23.184
9.9999 22.934
10.0150 22.889
10.0302 23.145
10.0454 23.084
10.0606 22.983
10.0757 22.949
10.0909 23.118
10.1061 23.351
10.1213 23.112
10.1364 23.065
10.1516 23.129
10.1668 23.135
10.1820 23.353
10.1971 23.236
10.2123 23.130
10.2275 22.866
10.2427 22.877
10.2578 22.981
10.2730 23.187
10.2882 23.259
10.3034 23.234
10.3185 23.157
10.3337 23.165
10.3489 22.872
10.3641 23.057
10.3792 22.979
10.3944 22.636
10.4096 22.626
10.4248 22.834
10.4399 22.488
10.4551 22.421
10.4703 22.268
10.4855 22.344
10.5006 22.584
10.5158 22.563
10.5310 22.320
10.5462 22.517
10.5613 22.609
10.5765 22.656
10.5917 22.394
10.6069 22.481
10.6220 22.571
10.6372 22.491
10.6524 22.280
10.6676 22.690
10.6827 22.584
10.6979 22.168
10.7131 22.011
10.7283 22.246
10.7434 21.973
10.7586 22.153
10.7738 22.032
10.7890 22.593
10.8041 22.457
10.8193 21.981
10.8345 21.677
10.8497 21.819
10.8648 22.039
10.8800 21.828
10.8952 21.956
10.9104 21.624
10.9255 21.535
10.9407 22.071
10.9559 21.873
10.9711 21.874
10.9862 21.909
11.0014 21.770
11.0166 22.009
11.0318 21.959
11.0469 21.967
11.0621 21.919
11.0773 21.688
11.0925 21.409
11.1076 21.926
11.1228 21.813
11.1380 21.346
11.1532 21.576
11.1683 21.564
11.1835 21.849
11.1987 21.679
11.2139 21.874
11.2290 21.214
11.2442 21.215
11.2594 21.308
11.2746 21.097
11.2897 21.403
11.3049 21.184
11.3201 21.341
11.3353 21.162
11.3504 21.408
11.3656 21.646
11.3808 20.937
11.3960 20.691
11.4111 20.982
11.4263 21.059
11.4415 21.235
11.4567 21.406
11.4718 21.211
11.4870 21.253
11.5022 21.027
11.5174 21.033
11.5325 20.762
11.5477 20.746
11.5629 21.077
11.5781 20.818
11.5932 20.715
11.6084 20.699
11.6236 20.623
11.6388 20.329
11.6539 20.296
11.6691 20.559
11.6843 20.823
11.6995 20.460
11.7146 20.199
11.7298 20.307
11.7450 20.101
11.7602 20.227
11.7753 20.437
11.7905 20.235
11.8057 19.943
11.8209 19.997
11.8360 20.111
11.8512 20.100
11.8664 19.514
11.8816 19.666
11.8967 19.657
11.9119 19.638
11.9271 19.410
11.9423 19.461
11.9574 19.161
11.9726 19.326
11.9878 19.429
12.0030 19.450
12.0181 18.928
12.0333 18.637
12.0485 18.754
12.0637 18.698
12.0788 18.663
12.0940 18.723
12.1092 18.789
12.1244 18.769
12.1395 18.745
12.1547 18.396
12.1699 18.238
12.1851 18.245
12.2002 18.161
12.2154 18.078
12.2306 17.968
12.2458 18.085
12.2609 18.045
12.2761 17.921
12.2913 17.415
12.3065 17.948
12.3216 17.798
12.3368 17.337
12.3520 17.302
12.3672 17.257
12.3823 17.196
12.3975 17.007
12.4127 16.825
12.4279 16.970
12.4430 17.002
12.4582 16.678
12.4734 16.879
12.4886 16.919
12.5037 16.459
12.5189 16.330
12.5341 16.336
12.5493 16.317
12.5644 16.245
12.5796 16.343
12.5948 16.179
12.6100 16.035
12.6251 16.161
12.6403 15.982
12.6555 15.579
12.6707 15.591
12.6858 15.678
12.7010 15.807
12.7162 15.566
12.7314 15.310
12.7465 15.325
12.7617 15.327
12.7769 15.238
12.7921 14.995
12.8072 15.174
12.8224 15.278
12.8376 14.761
12.8528 14.532
12.8679 14.815
12.8831 14.938
12.8983 14.535
12.9135 14.427
12.9286 14.382
12.9438 14.319
12.9590 14.469
12.9742 14.351
12.9893 14.259
13.0045 14.162
13.0197 14.329
13.0349 14.500
13.0500 14.092
13.0652 13.820
13.0804 13.778
13.0956 13.864
13.1107 13.978
13.1259 13.870
13.1411 13.763
13.1563 13.499
13.1714 13.243
13.1866 13.346
13.2018 13.477
13.2170 13.507
13.2321 13.456
13.2473 13.259
13.2625 13.323
13.2777 13.443
13.2928 13.468
13.3080 13.322
13.3232 13.176
13.3384 13.447
13.3535 13.191
13.3687 12.853
13.3839 12.889
13.3991 12.966
13.4142 12.978
13.4294 12.891
13.4446 12.812
13.4598 12.741
13.4749 12.864
13.4901 12.815
13.5053 12.605
13.5205 12.403
13.5356 12.387
13.5508 12.447
13.5660 12.591
13.5812 12.550
13.5963 12.479
13.6115 12.200
13.6267 12.138
13.6419 12.328
13.6570 12.317
13.6722 12.220
13.6874 11.928
13.7026 11.939
13.7177 12.174
13.7329 12.347
13.7481 12.130
13.7633 12.158
13.7784 11.790
13.7936 11.938
13.8088 12.172
13.8239 12.214
13.8391 12.274
13.8543 12.423
13.8695 12.617
13.8846 12.334
13.8998 12.289
13.9150 12.316
13.9302 12.061
13.9453 12.241
13.9605 12.196
13.9757 11.741
13.9909 11.577
14.0060 11.637
14.0212 11.508
14.0364 11.596
14.0516 11.576
14.0667 11.793
14.0819 11.753
14.0971 11.567
14.1123 11.727
14.1274 11.667
14.1426 11.799
14.1578 11.801
14.1730 11.834
14.1881 11.675
14.2033 11.634
14.2185 11.842
14.2337 11.499
14.2488 11.851
14.2640 11.829
14.2792 11.890
14.2944 12.062
14.3095 12.089
14.3247 12.055
14.3399 12.357
14.3551 12.627
14.3702 12.664
14.3854 12.577
14.4006 13.002
14.4158 13.310
14.4309 12.706
14.4461 12.216
14.4613 12.571
14.4765 12.120
14.4916 11.930
14.5068 12.227
14.5220 11.969
14.5372 11.508
14.5523 11.213
14.5675 10.996
14.5827 10.778
14.5979 10.895
14.6130 11.113
14.6282 10.942
14.6434 10.666
14.6586 10.851
14.6737 10.814
14.6889 10.585
14.7041 10.810
14.7193 10.369
14.7344 10.347
14.7496 10.395
14.7648 10.457
14.7800 10.942
14.7951 10.543
14.8103 10.322
14.8255 10.692
14.8407 10.514
14.8558 10.402
14.8710 10.102
14.8862 10.296
14.9014 10.471
14.9165 10.724
14.9317 10.710
14.9469 10.429
14.9621 10.432
14.9772 10.147
14.9924 10.182
15.0076 10.232
15.0228 10.424
15.0379 10.060
15.0531 10.188
15.0683 10.249
15.0835 10.344
15.0986 10.262
15.1138 10.448
15.1290 10.143
15.1442 10.166
15.1593 9.753
15.1745 9.949
15.1897 9.908
15.2049 10.101
15.2200 10.078
15.2352 10.058
15.2504 9.995
15.2656 10.057
15.2807 9.953
15.2959 10.391
15.3111 10.110
15.3263 10.082
15.3414 9.958
15.3566 9.991
15.3718 10.373
15.3870 9.859
15.4021 10.192
15.4173 9.840
15.4325 10.175
15.4477 10.061
15.4628 10.250
15.4780 10.206
15.4932 10.222
15.5084 10.019
15.5235 9.955
15.5387 10.202
15.5539 10.151
15.5691 9.817
15.5842 9.855
15.5994 9.745
15.6146 9.728
15.6298 9.734
15.6449 9.901
15.6601 9.817
15.6753 10.233
15.6905 9.633
15.7056 10.050
15.7208 10.144
15.7360 10.145
15.7512 9.921
15.7663 10.091
15.7815 10.076
15.7967 9.958
15.8119 9.669
15.8270 9.788
15.8422 9.548
15.8574 9.489
15.8726 9.390
15.8877 9.349
15.9029 9.458
15.9181 9.413
15.9333 9.791
15.9484 9.478
15.9636 9.113
15.9788 9.425
15.9940 9.529
16.0091 9.510
16.0243 9.672
16.0395 9.502
16.0547 9.492
16.0698 9.661
16.0850 9.429
16.1002 9.482
16.1154 9.544
16.1305 9.402
16.1457 9.652
16.1609 9.454
16.1761 9.588
16.1912 9.644
16.2064 9.781
16.2216 9.697
16.2368 9.796
16.2519 9.730
16.2671 9.681
16.2823 9.811
16.2975 9.723
16.3126 9.889
16.3278 9.863
16.3430 9.847
16.3582 9.992
16.3733 9.965
16.3885 10.018
16.4037 10.085
16.4189 9.729
16.4340 9.624
16.4492 9.483
16.4644 9.716
16.4796 9.798
16.4947 9.713
16.5099 9.679
16.5251 9.587
16.5403 9.467
16.5554 9.620
16.5706 9.561
16.5858 9.473
16.6010 9.451
16.6161 9.418
16.6313 9.687
16.6465 9.883
16.6617 9.775
16.6768 9.736
16.6920 9.699
16.7072 9.758
16.7224 9.678
16.7375 9.704
16.7527 9.612
16.7679 9.881
16.7831 9.857
16.7982 9.850
16.8134 9.790
16.8286 9.713
16.8438 9.611
16.8589 9.755
16.8741 9.614
16.8893 9.647
16.9045 9.788
16.9196 9.845
16.9348 9.716
16.9500 9.823
16.9652 9.936
16.9803 9.821
16.9955 9.750
17.0107 9.717
17.0259 9.860
17.0410 9.951
17.0562 10.097
17.0714 10.166
17.0866 10.303
17.1017 10.568
17.1169 10.654
17.1321 10.914
17.1473 11.243
17.1624 11.549
17.1776 12.275
17.1928 13.169
17.2080 13.999
17.2231 15.086
17.2383 16.326
17.2535 17.302
17.2687 18.257
17.2838 18.710
17.2990 18.160
17.3142 17.048
17.3294 16.419
17.3445 16.306
17.3597 16.231
17.3749 16.114
17.3901 15.424
17.4052 14.355
17.4204 13.325
17.4356 12.497
17.4508 12.028
17.4659 11.744
17.4811 11.610
17.4963 11.415
17.5115 11.215
17.5266 11.206
17.5418 11.008
17.5570 10.991
17.5722 11.198
17.5873 11.184
17.6025 11.152
17.6177 11.205
17.6329 11.401
17.6480 11.608
17.6632 11.486
17.6784 11.299
17.6936 11.299
17.7087 11.448
17.7239 11.340
17.7391 11.252
17.7543 11.259
17.7694 11.082
17.7846 10.831
17.7998 10.697
17.8150 10.680
17.8301 10.640
17.8453 10.389
17.8605 10.382
17.8757 10.383
17.8908 10.164
17.9060 10.219
17.9212 10.164
17.9364 10.224
17.9515 10.435
17.9667 10.337
17.9819 10.109
17.9971 9.961
18.0122 10.038
18.0274 9.987
18.0426 9.914
18.0578 9.926
18.0729 9.944
18.0881 9.981
18.1033 10.186
18.1185 10.024
18.1336 9.915
18.1488 9.736
18.1640 9.871
18.1792 10.127
18.1943 10.159
18.2095 10.258
18.2247 10.126
18.2399 9.910
18.2550 9.909
18.2702 10.108
18.2854 10.057
18.3006 9.964
18.3157 9.971
18.3309 10.027
18.3461 10.070
18.3613 9.924
18.3764 9.773
18.3916 9.742
18.4068 9.737
18.4220 9.776
18.4371 9.840
18.4523 9.870
18.4675 9.830
18.4827 9.845
18.4978 9.900
18.5130 9.749
18.5282 9.672
18.5434 9.686
18.5585 9.559
18.5737 9.613
18.5889 9.676
18.6041 9.707
18.6192 9.831
18.6344 9.795
18.6496 9.713
18.6648 9.850
18.6799 9.869
18.6951 9.860
18.7103 9.742
18.7255 9.591
18.7406 9.774
18.7558 9.948
18.7710 9.977
18.7862 10.014
18.8013 9.712
18.8165 9.662
18.8317 9.725
18.8469 9.811
18.8620 9.781
18.8772 10.073
18.8924 10.106
18.9076 10.246
18.9227 10.164
18.9379 9.825
18.9531 9.690
18.9683 9.938
18.9834 9.897
18.9986 9.880
19.0138 10.234
19.0290 10.317
19.0441 10.115
19.0593 10.041
19.0745 10.209
19.0897 10.553
19.1048 10.536
19.1200 10.476
19.1352 10.532
19.1504 10.385
19.1655 10.585
19.1807 10.634
19.1959 10.660
19.2111 10.713
19.2262 10.738
19.2414 10.841
19.2566 10.840
19.2718 10.817
19.2869 10.977
19.3021 10.868
19.3173 10.772
19.3325 10.945
19.3476 11.083
19.3628 11.184
19.3780 11.326
19.3932 11.449
19.4083 11.253
19.4235 11.064
19.4387 11.018
19.4539 11.274
19.4690 11.426
19.4842 11.297
19.4994 11.395
19.5146 11.481
19.5297 11.504
19.5449 11.496
19.5601 11.627
19.5753 11.467
19.5904 11.433
19.6056 11.547
19.6208 11.621
19.6360 11.975
19.6511 11.994
19.6663 11.859
19.6815 11.562
19.6967 11.493
19.7118 11.750
19.7270 11.885
19.7422 11.786
19.7574 11.801
19.7725 11.971
19.7877 11.912
19.8029 12.212
19.8180 12.316
19.8332 12.393
19.8484 12.391
19.8636 12.450
19.8787 12.432
19.8939 12.573
19.9091 13.292
19.9243 13.588
19.9394 13.716
19.9546 13.933
19.9698 14.273
19.9850 14.251
20.0001 14.218
20.0153 14.138
20.0305 13.849
20.0457 13.615
20.0608 13.683
20.0760 13.905
20.0912 13.775
20.1064 13.512
20.1215 13.569
20.1367 13.532
20.1519 13.309
20.1671 12.999
20.1822 12.850
20.1974 12.865
20.2126 12.926
20.2278 12.971
20.2429 12.704
20.2581 12.300
20.2733 12.109
20.2885 12.070
20.3036 12.335
20.3188 12.252
20.3340 12.272
20.3492 12.379
20.3643 12.229
20.3795 11.873
20.3947 11.801
20.4099 11.846
20.4250 11.943
20.4402 11.864
20.4554 11.953
20.4706 11.841
20.4857 11.669
20.5009 11.459
20.5161 11.329
20.5313 11.407
20.5464 11.509
20.5616 11.181
20.5768 11.010
20.5920 11.322
20.6071 10.917
20.6223 10.888
20.6375 10.898
20.6527 10.747
20.6678 10.768
20.6830 10.762
20.6982 10.692
20.7134 10.645
20.7285 10.471
20.7437 10.661
20.7589 10.382
20.7741 10.258
20.7892 10.325
20.8044 10.677
20.8196 10.398
20.8348 10.404
20.8499 10.077
20.8651 10.058
20.8803 10.223
20.8955 10.052
20.9106 9.943
20.9258 10.161
20.9410 10.122
20.9562 10.415
20.9713 10.142
20.9865 9.995
21.0017 10.017
21.0169 9.983
21.0320 10.052
21.0472 10.176
21.0624 9.817
21.0776 10.172
21.0927 9.940
21.1079 9.953
21.1231 9.792
21.1383 10.145
21.1534 9.763
21.1686 9.835
21.1838 9.722
21.1990 9.649
21.2141 9.577
21.2293 9.621
21.2445 9.294
21.2597 9.389
21.2748 9.876
21.2900 9.647
21.3052 9.942
21.3204 9.621
21.3355 9.661
21.3507 9.487
21.3659 9.624
21.3811 9.578
21.3962 9.560
21.4114 9.152
21.4266 8.983
21.4418 9.301
21.4569 9.709
21.4721 9.351
21.4873 9.197
21.5025 9.593
21.5176 9.470
21.5328 9.298
21.5480 9.226
21.5632 9.361
21.5783 9.521
21.5935 9.209
21.6087 9.480
21.6239 9.071
21.6390 8.865
21.6542 9.282
21.6694 9.373
21.6846 9.189
21.6997 9.096
21.7149 9.176
21.7301 9.343
21.7453 9.259
21.7604 9.178
21.7756 9.188
21.7908 9.104
21.8060 9.148
21.8211 9.035
21.8363 9.002
21.8515 8.996
21.8667 9.163
21.8818 9.044
21.8970 8.916
21.9122 8.972
21.9274 9.057
21.9425 9.144
21.9577 8.934
21.9729 8.830
21.9881 8.991
22.0032 9.086
22.0184 8.814
22.0336 8.747
22.0488 8.764
22.0639 8.780
22.0791 8.723
22.0943 8.597
22.1095 8.720
22.1246 8.849
22.1398 8.581
22.1550 8.718
22.1702 8.720
22.1853 8.645
22.2005 8.618
22.2157 8.769
22.2309 8.811
22.2460 8.723
22.2612 8.514
22.2764 8.278
22.2916 8.320
22.3067 8.622
22.3219 8.553
22.3371 8.638
22.3523 8.621
22.3674 8.619
22.3826 8.503
22.3978 8.168
22.4130 8.601
22.4281 8.379
22.4433 8.400
22.4585 8.322
22.4737 8.338
22.4888 8.519
22.5040 8.158
22.5192 8.242
22.5344 8.236
22.5495 8.495
22.5647 8.733
22.5799 8.158
22.5951 8.127
22.6102 8.646
22.6254 8.190
22.6406 8.348
22.6558 8.284
22.6709 8.154
22.6861 8.173
22.7013 8.161
22.7165 8.017
22.7316 6.542
