'Id: "" Comment: "" Operator: "Lab Manager" Anode: "Mo" Scantype: "Still (Eiger2R_500K (1D mode))" TimePerStep: "300" X: "11.8" Y: "9.4" Z: "11.284" 
7.2532 19.475
7.2684 18.838
7.2836 18.898
7.2987 19.260
7.3139 19.253
7.3291 19.510
7.3443 19.261
7.3594 19.410
7.3746 19.775
7.3898 19.582
7.4050 19.504
7.4201 19.307
7.4353 19.328
7.4505 19.619
7.4657 19.297
7.4808 19.616
7.4960 19.732
7.5112 19.703
7.5264 19.988
7.5415 19.839
7.5567 19.816
7.5719 20.009
7.5871 20.200
7.6022 20.327
7.6174 20.150
7.6326 20.202
7.6478 20.233
7.6629 20.260
7.6781 20.277
7.6933 20.387
7.7085 20.751
7.7236 20.293
7.7388 20.423
7.7540 20.539
7.7692 20.407
7.7843 20.486
7.7995 20.686
7.8147 20.723
7.8299 20.515
7.8450 20.555
7.8602 20.768
7.8754 20.930
7.8905 21.027
7.9057 20.644
7.9209 20.920
7.9361 21.025
7.9512 20.926
7.9664 21.175
7.9816 21.337
7.9968 21.353
8.0119 21.252
8.0271 21.264
8.0423 21.022
8.0575 21.300
8.0726 21.313
8.0878 21.103
8.1030 21.143
8.1182 21.559
8.1333 21.504
8.1485 21.552
8.1637 21.730
8.1789 21.715
8.1940 21.377
8.2092 21.495
8.2244 21.586
8.2396 21.653
8.2547 21.867
8.2699 21.678
8.2851 21.689
8.3003 22.053
8.3154 22.338
8.3306 21.951
8.3458 21.615
8.3610 21.268
8.3761 21.653
8.3913 22.042
8.4065 21.679
8.4217 22.169
8.4368 22.218
8.4520 22.312
8.4672 21.748
8.4824 22.155
8.4975 22.293
8.5127 22.133
8.5279 22.211
8.5431 22.227
8.5582 21.893
8.5734 22.546
8.5886 22.263
8.6038 21.994
8.6189 22.593
8.6341 22.351
8.6493 22.516
8.6645 22.421
8.6796 22.503
8.6948 22.046
8.7100 21.835
8.7252 23.141
8.7403 23.259
8.7555 22.496
8.7707 22.546
8.7859 22.848
8.8010 22.526
8.8162 22.508
8.8314 22.626
8.8466 22.797
8.8617 22.683
8.8769 22.379
8.8921 22.745
8.9073 22.588
8.9224 22.533
8.9376 22.443
8.9528 22.650
8.9680 22.612
8.9831 22.948
8.9983 22.583
9.0135 22.660
9.0287 22.581
9.0438 22.390
9.0590 22.586
9.0742 22.859
9.0894 22.839
9.1045 22.522
9.1197 22.698
9.1349 23.290
9.1501 23.036
9.1652 22.473
9.1804 22.669
9.1956 23.099
9.2108 22.816
9.2259 23.113
9.2411 22.802
9.2563 23.010
9.2715 22.816
9.2866 23.040
9.3018 23.172
9.3170 23.301
9.3322 23.259
9.3473 23.156
9.3625 22.949
9.3777 22.985
9.3929 23.255
9.4080 23.175
9.4232 23.077
9.4384 22.957
9.4536 23.063
9.4687 22.835
9.4839 23.043
9.4991 23.288
9.5143 23.116
9.5294 23.176
9.5446 23.166
9.5598 23.011
9.5750 22.930
9.5901 22.992
9.6053 23.345
9.6205 23.375
9.6357 23.479
9.6508 23.902
9.6660 24.053
9.6812 23.882
9.6964 23.849
9.7115 23.759
9.7267 24.133
9.7419 24.091
9.7571 23.742
9.7722 23.853
9.7874 23.702
9.8026 23.883
9.8178 23.925
9.8329 23.609
9.8481 23.676
9.8633 23.562
9.8785 23.560
9.8936 23.521
9.9088 23.665
9.9240 23.986
9.9392 24.147
9.9543 23.983
9.9695 23.796
9.9847 23.965
9.9999 23.945
10.0150 23.551
10.0302 23.612
10.0454 23.817
10.0606 23.857
10.0757 23.586
10.0909 23.763
10.1061 23.894
10.1213 23.764
10.1364 23.913
10.1516 24.029
10.1668 24.121
10.1820 24.276
10.1971 24.200
10.2123 23.911
10.2275 23.981
10.2427 24.314
10.2578 24.105
10.2730 23.829
10.2882 23.686
10.3034 23.814
10.3185 23.570
10.3337 23.204
10.3489 23.237
10.3641 23.140
10.3792 22.964
10.3944 22.872
10.4096 22.808
10.4248 22.919
10.4399 22.878
10.4551 22.937
10.4703 22.745
10.4855 22.876
10.5006 22.531
10.5158 22.647
10.5310 22.596
10.5462 22.751
10.5613 22.819
10.5765 23.019
10.5917 22.916
10.6069 22.677
10.6220 22.434
10.6372 22.634
10.6524 22.763
10.6676 22.514
10.6827 22.557
10.6979 22.892
10.7131 22.501
10.7283 22.587
10.7434 22.858
10.7586 22.546
10.7738 22.261
10.7890 22.381
10.8041 22.635
10.8193 22.610
10.8345 22.244
10.8497 22.306
10.8648 22.504
10.8800 22.256
10.8952 22.300
10.9104 22.010
10.9255 22.058
10.9407 21.968
10.9559 22.206
10.9711 22.153
10.9862 22.318
11.0014 22.346
11.0166 22.351
11.0318 22.086
11.0469 21.685
11.0621 21.461
11.0773 21.823
11.0925 21.605
11.1076 21.855
11.1228 21.473
11.1380 21.602
11.1532 21.818
11.1683 21.772
11.1835 21.930
11.1987 21.893
11.2139 21.631
11.2290 21.916
11.2442 21.954
11.2594 21.910
11.2746 22.032
11.2897 21.861
11.3049 21.775
11.3201 21.798
11.3353 21.429
11.3504 21.420
11.3656 21.126
11.3808 21.426
11.3960 21.301
11.4111 21.350
11.4263 21.125
11.4415 20.988
11.4567 21.164
11.4718 21.206
11.4870 21.050
11.5022 21.255
11.5174 21.394
11.5325 21.044
11.5477 21.178
11.5629 21.079
11.5781 20.979
11.5932 20.713
11.6084 20.905
11.6236 21.073
11.6388 21.026
11.6539 20.600
11.6691 20.559
11.6843 20.448
11.6995 20.522
11.7146 20.319
11.7298 20.461
11.7450 20.467
11.7602 20.342
11.7753 20.314
11.7905 20.216
11.8057 20.171
11.8209 20.006
11.8360 19.523
11.8512 19.787
11.8664 19.763
11.8816 19.686
11.8967 19.500
11.9119 19.490
11.9271 19.219
11.9423 19.440
11.9574 19.345
11.9726 19.155
11.9878 19.283
12.0030 19.256
12.0181 19.323
12.0333 18.911
12.0485 18.883
12.0637 18.815
12.0788 18.893
12.0940 18.850
12.1092 18.513
12.1244 18.567
12.1395 18.759
12.1547 18.357
12.1699 18.219
12.1851 18.199
12.2002 18.244
12.2154 18.286
12.2306 18.318
12.2458 17.591
12.2609 17.520
12.2761 17.441
12.2913 17.318
12.3065 17.559
12.3216 17.511
12.3368 17.296
12.3520 17.422
12.3672 17.311
12.3823 17.209
12.3975 17.196
12.4127 17.305
12.4279 17.210
12.4430 17.086
12.4582 17.030
12.4734 17.300
12.4886 17.143
12.5037 16.602
12.5189 16.645
12.5341 16.798
12.5493 16.648
12.5644 16.538
12.5796 16.649
12.5948 16.225
12.6100 15.884
12.6251 15.746
12.6403 15.870
12.6555 16.123
12.6707 15.761
12.6858 15.630
12.7010 15.850
12.7162 16.002
12.7314 15.873
12.7465 15.497
12.7617 15.555
12.7769 15.579
12.7921 15.211
12.8072 14.953
12.8224 14.812
12.8376 14.784
12.8528 14.932
12.8679 14.575
12.8831 14.539
12.8983 14.875
12.9135 14.908
12.9286 14.712
12.9438 14.169
12.9590 14.202
12.9742 14.338
12.9893 14.285
13.0045 14.381
13.0197 14.407
13.0349 14.260
13.0500 14.271
13.0652 13.902
13.0804 13.734
13.0956 14.032
13.1107 14.208
13.1259 14.934
13.1411 15.071
13.1563 14.379
13.1714 13.964
13.1866 14.526
13.2018 15.349
13.2170 14.796
13.2321 13.736
13.2473 13.266
13.2625 13.316
13.2777 13.261
13.2928 13.118
13.3080 13.254
13.3232 13.038
13.3384 12.990
13.3535 13.146
13.3687 13.008
13.3839 12.777
13.3991 12.752
13.4142 12.899
13.4294 12.885
13.4446 12.981
13.4598 12.885
13.4749 12.810
13.4901 12.793
13.5053 12.753
13.5205 12.671
13.5356 12.745
13.5508 12.487
13.5660 12.299
13.5812 12.399
13.5963 12.261
13.6115 12.163
13.6267 12.122
13.6419 12.050
13.6570 12.362
13.6722 12.364
13.6874 12.126
13.7026 11.970
13.7177 11.950
13.7329 12.088
13.7481 12.156
13.7633 12.209
13.7784 12.093
13.7936 12.057
13.8088 12.147
13.8239 12.169
13.8391 12.361
13.8543 12.373
13.8695 12.358
13.8846 12.212
13.8998 12.047
13.9150 11.991
13.9302 11.647
13.9453 11.885
13.9605 11.994
13.9757 11.614
13.9909 11.548
14.0060 11.674
14.0212 11.567
14.0364 11.478
14.0516 11.398
14.0667 11.378
14.0819 11.427
14.0971 11.370
14.1123 11.330
14.1274 11.173
14.1426 11.043
14.1578 11.218
14.1730 11.387
14.1881 11.455
14.2033 11.585
14.2185 11.630
14.2337 11.714
14.2488 11.753
14.2640 11.547
14.2792 11.705
14.2944 11.705
14.3095 11.852
14.3247 11.909
14.3399 12.149
14.3551 12.329
14.3702 12.674
14.3854 12.834
14.4006 12.783
14.4158 13.144
14.4309 13.122
14.4461 13.420
14.4613 13.297
14.4765 13.311
14.4916 12.871
14.5068 13.109
14.5220 13.131
14.5372 12.637
14.5523 12.993
14.5675 12.562
14.5827 12.479
14.5979 12.331
14.6130 12.269
14.6282 12.000
14.6434 11.789
14.6586 11.798
14.6737 11.484
14.6889 11.438
14.7041 11.268
14.7193 11.227
14.7344 11.227
14.7496 11.475
14.7648 11.384
14.7800 11.147
14.7951 10.976
14.8103 10.984
14.8255 11.237
14.8407 10.967
14.8558 10.487
14.8710 10.753
14.8862 10.733
14.9014 10.996
14.9165 11.124
14.9317 11.033
14.9469 10.846
14.9621 10.922
14.9772 10.761
14.9924 10.666
15.0076 10.830
15.0228 10.524
15.0379 10.649
15.0531 10.529
15.0683 10.426
15.0835 10.257
15.0986 10.773
15.1138 10.506
15.1290 10.695
15.1442 10.597
15.1593 10.519
15.1745 10.449
15.1897 10.375
15.2049 10.381
15.2200 10.461
15.2352 10.569
15.2504 10.629
15.2656 10.451
15.2807 10.663
15.2959 10.527
15.3111 10.527
15.3263 10.291
15.3414 10.422
15.3566 10.282
15.3718 10.181
15.3870 10.331
15.4021 10.493
15.4173 10.390
15.4325 10.899
15.4477 10.666
15.4628 10.368
15.4780 10.547
15.4932 10.244
15.5084 10.389
15.5235 10.297
15.5387 10.262
15.5539 10.487
15.5691 10.348
15.5842 10.171
15.5994 10.168
15.6146 10.184
15.6298 10.228
15.6449 10.028
15.6601 9.826
15.6753 9.985
15.6905 10.176
15.7056 9.948
15.7208 9.889
15.7360 10.277
15.7512 9.887
15.7663 9.874
15.7815 10.007
15.7967 9.950
15.8119 9.682
15.8270 9.795
15.8422 9.836
15.8574 9.918
15.8726 9.996
15.8877 9.914
15.9029 9.768
15.9181 9.844
15.9333 9.792
15.9484 9.720
15.9636 9.468
15.9788 9.597
15.9940 9.712
16.0091 9.762
16.0243 9.578
16.0395 9.955
16.0547 10.040
16.0698 9.872
16.0850 9.674
16.1002 9.770
16.1154 9.567
16.1305 9.795
16.1457 9.955
16.1609 9.632
16.1761 9.891
16.1912 9.961
16.2064 9.823
16.2216 9.791
16.2368 9.847
16.2519 9.821
16.2671 9.951
16.2823 10.074
16.2975 10.329
16.3126 10.329
16.3278 10.196
16.3430 10.345
16.3582 10.103
16.3733 10.130
16.3885 9.999
16.4037 10.088
16.4189 10.135
16.4340 10.370
16.4492 10.262
16.4644 9.938
16.4796 9.882
16.4947 10.075
16.5099 9.848
16.5251 9.655
16.5403 9.669
16.5554 9.749
16.5706 9.726
16.5858 9.710
16.6010 9.740
16.6161 9.776
16.6313 9.901
16.6465 9.972
16.6617 9.993
16.6768 9.926
16.6920 9.983
16.7072 9.845
16.7224 9.939
16.7375 10.215
16.7527 10.006
16.7679 9.993
16.7831 10.078
16.7982 10.037
16.8134 10.035
16.8286 9.855
16.8438 9.783
16.8589 9.826
16.8741 9.947
16.8893 9.815
16.9045 9.728
16.9196 9.640
16.9348 9.681
16.9500 9.984
16.9652 9.944
16.9803 9.868
16.9955 9.769
17.0107 9.954
17.0259 10.017
17.0410 9.863
17.0562 10.044
17.0714 10.346
17.0866 10.328
17.1017 10.462
17.1169 10.775
17.1321 11.164
17.1473 11.527
17.1624 11.793
17.1776 12.277
17.1928 12.825
17.2080 13.666
17.2231 14.938
17.2383 16.455
17.2535 17.634
17.2687 18.383
17.2838 18.741
17.2990 17.947
17.3142 16.797
17.3294 16.134
17.3445 15.882
17.3597 16.013
17.3749 15.840
17.3901 15.227
17.4052 14.285
17.4204 13.353
17.4356 12.578
17.4508 12.062
17.4659 11.762
17.4811 11.410
17.4963 11.443
17.5115 11.407
17.5266 10.972
17.5418 10.910
17.5570 11.045
17.5722 10.901
17.5873 11.101
17.6025 11.347
17.6177 11.140
17.6329 10.698
17.6480 10.477
17.6632 10.643
17.6784 10.800
17.6936 10.639
17.7087 10.683
17.7239 10.906
17.7391 10.793
17.7543 10.634
17.7694 10.674
17.7846 10.961
17.7998 11.159
17.8150 11.397
17.8301 11.483
17.8453 11.608
17.8605 11.688
17.8757 11.854
17.8908 11.765
17.9060 11.687
17.9212 11.628
17.9364 11.442
17.9515 11.299
17.9667 11.129
17.9819 11.083
17.9971 10.892
18.0122 10.701
18.0274 10.732
18.0426 10.804
18.0578 10.579
18.0729 10.055
18.0881 9.971
18.1033 9.943
18.1185 10.054
18.1336 10.257
18.1488 10.069
18.1640 9.968
18.1792 9.881
18.1943 9.832
18.2095 9.824
18.2247 9.846
18.2399 10.111
18.2550 9.973
18.2702 9.877
18.2854 9.897
18.3006 9.784
18.3157 9.793
18.3309 9.785
18.3461 9.923
18.3613 9.895
18.3764 9.640
18.3916 9.678
18.4068 9.718
18.4220 9.790
18.4371 9.744
18.4523 9.749
18.4675 9.881
18.4827 10.018
18.4978 9.897
18.5130 9.861
18.5282 9.911
18.5434 9.906
18.5585 10.081
18.5737 9.940
18.5889 9.735
18.6041 10.046
18.6192 9.988
18.6344 9.721
18.6496 9.877
18.6648 10.004
18.6799 9.825
18.6951 9.704
18.7103 9.763
18.7255 9.798
18.7406 9.732
18.7558 9.812
18.7710 9.901
18.7862 9.841
18.8013 9.735
18.8165 9.552
18.8317 9.759
18.8469 9.783
18.8620 9.945
18.8772 10.200
18.8924 9.882
18.9076 9.779
18.9227 9.836
18.9379 9.929
18.9531 10.042
18.9683 10.032
18.9834 9.986
18.9986 9.980
19.0138 10.028
19.0290 10.188
19.0441 10.079
19.0593 10.021
19.0745 10.266
19.0897 10.257
19.1048 10.309
19.1200 10.528
19.1352 10.428
19.1504 10.338
19.1655 10.610
19.1807 10.647
19.1959 10.707
19.2111 10.532
19.2262 10.534
19.2414 10.720
19.2566 10.790
19.2718 10.772
19.2869 10.979
19.3021 11.050
19.3173 10.866
19.3325 10.807
19.3476 11.118
19.3628 11.407
19.3780 11.113
19.3932 11.166
19.4083 11.384
19.4235 11.140
19.4387 11.218
19.4539 11.278
19.4690 11.359
19.4842 11.714
19.4994 11.650
19.5146 11.346
19.5297 11.495
19.5449 11.560
19.5601 11.418
19.5753 11.528
19.5904 11.606
19.6056 11.561
19.6208 11.669
19.6360 11.655
19.6511 11.634
19.6663 11.595
19.6815 11.762
19.6967 11.801
19.7118 11.593
19.7270 11.689
19.7422 11.739
19.7574 11.860
19.7725 12.008
19.7877 12.034
19.8029 11.877
19.8180 11.974
19.8332 12.292
19.8484 12.280
19.8636 12.389
19.8787 12.202
19.8939 12.311
19.9091 12.922
19.9243 13.373
19.9394 13.657
19.9546 13.991
19.9698 14.393
19.9850 14.507
20.0001 14.356
20.0153 14.046
20.0305 13.740
20.0457 13.514
20.0608 13.869
20.0760 13.898
20.0912 13.603
20.1064 13.495
20.1215 13.386
20.1367 13.207
20.1519 12.716
20.1671 12.568
20.1822 12.766
20.1974 12.576
20.2126 12.567
20.2278 12.742
20.2429 12.675
20.2581 12.425
20.2733 12.164
20.2885 11.766
20.3036 11.840
20.3188 11.958
20.3340 11.749
20.3492 11.821
20.3643 11.913
20.3795 11.536
20.3947 11.476
20.4099 11.280
20.4250 11.074
20.4402 11.149
20.4554 10.985
20.4706 11.070
20.4857 10.871
20.5009 10.877
20.5161 10.964
20.5313 11.015
20.5464 10.900
20.5616 10.835
20.5768 10.818
20.5920 10.944
20.6071 10.920
20.6223 11.096
20.6375 10.920
20.6527 10.750
20.6678 10.837
20.6830 10.946
20.6982 10.907
20.7134 10.730
20.7285 10.892
20.7437 10.869
20.7589 10.730
20.7741 10.620
20.7892 10.520
20.8044 10.699
20.8196 10.537
20.8348 10.705
20.8499 10.645
20.8651 10.639
20.8803 10.372
20.8955 10.370
20.9106 10.368
20.9258 10.276
20.9410 10.243
20.9562 10.062
20.9713 10.148
20.9865 10.060
21.0017 10.512
21.0169 10.371
21.0320 10.217
21.0472 10.147
21.0624 9.978
21.0776 10.008
21.0927 9.888
21.1079 10.065
21.1231 10.017
21.1383 10.069
21.1534 10.009
21.1686 9.775
21.1838 9.949
21.1990 10.059
21.2141 9.631
21.2293 9.563
21.2445 9.639
21.2597 9.757
21.2748 9.342
21.2900 9.474
21.3052 9.541
21.3204 9.414
21.3355 9.757
21.3507 9.547
21.3659 9.751
21.3811 9.400
21.3962 9.476
21.4114 9.394
21.4266 9.442
21.4418 9.127
21.4569 9.629
21.4721 9.306
21.4873 9.159
21.5025 9.446
21.5176 9.724
21.5328 9.130
21.5480 9.186
21.5632 9.398
21.5783 9.461
21.5935 9.086
21.6087 9.093
21.6239 9.123
21.6390 9.308
21.6542 9.270
21.6694 9.185
21.6846 9.008
21.6997 8.916
21.7149 8.979
21.7301 9.155
21.7453 8.986
21.7604 9.110
21.7756 9.173
21.7908 9.046
21.8060 9.010
21.8211 9.205
21.8363 9.353
21.8515 9.409
21.8667 9.025
21.8818 9.064
21.8970 9.152
21.9122 8.911
21.9274 9.010
21.9425 9.041
21.9577 8.928
21.9729 8.801
21.9881 8.876
22.0032 8.929
22.0184 8.737
22.0336 8.877
22.0488 8.975
22.0639 8.754
22.0791 8.672
22.0943 8.635
22.1095 8.637
22.1246 8.803
22.1398 8.575
22.1550 8.414
22.1702 8.628
22.1853 8.790
22.2005 8.870
22.2157 8.583
22.2309 8.566
22.2460 8.693
22.2612 8.663
22.2764 8.666
22.2916 8.652
22.3067 8.666
22.3219 8.846
22.3371 8.673
22.3523 8.331
22.3674 8.543
22.3826 8.606
22.3978 8.341
22.4130 8.613
22.4281 8.509
22.4433 8.596
22.4585 8.348
22.4737 8.373
22.4888 8.674
22.5040 8.628
22.5192 8.548
22.5344 8.500
22.5495 8.196
22.5647 8.573
22.5799 8.561
22.5951 8.293
22.6102 8.322
22.6254 8.404
22.6406 8.493
22.6558 8.475
22.6709 8.330
22.6861 8.548
22.7013 8.032
22.7165 8.159
22.7316 6.655
