'Id: "" Comment: "" Operator: "Lab Manager" Anode: "Mo" Scantype: "Still (Eiger2R_500K (1D mode))" TimePerStep: "300" X: "11.8" Y: "9.4" Z: "11.284" 
7.2532 19.160
7.2684 19.332
7.2836 19.090
7.2987 19.156
7.3139 19.184
7.3291 19.512
7.3443 19.659
7.3594 19.587
7.3746 19.907
7.3898 19.990
7.4050 19.804
7.4201 20.069
7.4353 19.774
7.4505 19.890
7.4657 19.538
7.4808 19.556
7.4960 19.730
7.5112 19.946
7.5264 20.067
7.5415 19.974
7.5567 19.914
7.5719 19.842
7.5871 19.976
7.6022 20.081
7.6174 20.269
7.6326 20.118
7.6478 20.407
7.6629 20.484
7.6781 20.346
7.6933 20.659
7.7085 20.518
7.7236 20.471
7.7388 20.558
7.7540 20.408
7.7692 20.447
7.7843 20.727
7.7995 20.656
7.8147 20.726
7.8299 20.665
7.8450 20.770
7.8602 20.973
7.8754 21.214
7.8905 21.137
7.9057 21.087
7.9209 21.202
7.9361 21.282
7.9512 21.215
7.9664 21.065
7.9816 20.869
7.9968 21.244
8.0119 21.430
8.0271 21.193
8.0423 21.288
8.0575 21.296
8.0726 21.620
8.0878 21.469
8.1030 21.665
8.1182 21.628
8.1333 21.948
8.1485 22.112
8.1637 21.681
8.1789 21.811
8.1940 22.519
8.2092 21.978
8.2244 21.866
8.2396 22.022
8.2547 22.037
8.2699 21.819
8.2851 21.954
8.3003 22.094
8.3154 21.951
8.3306 22.214
8.3458 22.184
8.3610 22.011
8.3761 22.116
8.3913 21.857
8.4065 21.702
8.4217 22.220
8.4368 21.796
8.4520 22.444
8.4672 22.209
8.4824 22.209
8.4975 21.978
8.5127 22.115
8.5279 22.369
8.5431 22.330
8.5582 22.833
8.5734 22.205
8.5886 23.191
8.6038 21.692
8.6189 22.934
8.6341 22.475
8.6493 22.471
8.6645 22.422
8.6796 22.578
8.6948 22.553
8.7100 22.435
8.7252 22.795
8.7403 22.673
8.7555 22.551
8.7707 22.595
8.7859 22.548
8.8010 23.103
8.8162 22.517
8.8314 22.851
8.8466 22.865
8.8617 22.393
8.8769 22.739
8.8921 22.818
8.9073 22.766
8.9224 22.558
8.9376 22.250
8.9528 22.669
8.9680 22.938
8.9831 22.620
8.9983 22.826
9.0135 23.067
9.0287 23.217
9.0438 22.693
9.0590 23.061
9.0742 22.931
9.0894 23.145
9.1045 23.114
9.1197 23.123
9.1349 22.675
9.1501 22.933
9.1652 23.079
9.1804 23.576
9.1956 23.483
9.2108 23.059
9.2259 23.150
9.2411 23.163
9.2563 23.300
9.2715 23.100
9.2866 23.188
9.3018 23.275
9.3170 23.374
9.3322 23.456
9.3473 23.324
9.3625 23.414
9.3777 23.382
9.3929 23.426
9.4080 23.278
9.4232 23.318
9.4384 23.492
9.4536 23.200
9.4687 23.195
9.4839 23.271
9.4991 23.609
9.5143 23.460
9.5294 23.556
9.5446 23.762
9.5598 23.332
9.5750 23.269
9.5901 23.633
9.6053 23.786
9.6205 23.714
9.6357 23.670
9.6508 23.836
9.6660 23.723
9.6812 23.273
9.6964 23.680
9.7115 24.172
9.7267 24.097
9.7419 24.056
9.7571 24.336
9.7722 24.299
9.7874 23.942
9.8026 24.219
9.8178 24.026
9.8329 23.645
9.8481 23.994
9.8633 23.925
9.8785 24.106
9.8936 24.262
9.9088 24.166
9.9240 24.344
9.9392 24.506
9.9543 24.440
9.9695 24.205
9.9847 24.311
9.9999 24.210
10.0150 23.776
10.0302 23.698
10.0454 23.233
10.0606 23.270
10.0757 23.768
10.0909 23.622
10.1061 23.751
10.1213 23.980
10.1364 24.029
10.1516 24.100
10.1668 23.897
10.1820 23.871
10.1971 24.101
10.2123 23.713
10.2275 23.581
10.2427 23.625
10.2578 23.782
10.2730 23.873
10.2882 23.652
10.3034 23.308
10.3185 23.448
10.3337 23.743
10.3489 23.432
10.3641 23.286
10.3792 23.622
10.3944 23.838
10.4096 23.573
10.4248 23.506
10.4399 23.427
10.4551 23.261
10.4703 23.098
10.4855 23.118
10.5006 22.916
10.5158 22.996
10.5310 23.157
10.5462 22.937
10.5613 22.904
10.5765 22.891
10.5917 23.008
10.6069 22.722
10.6220 22.907
10.6372 22.503
10.6524 22.497
10.6676 22.576
10.6827 22.744
10.6979 23.288
10.7131 23.011
10.7283 22.578
10.7434 22.669
10.7586 22.758
10.7738 22.280
10.7890 22.355
10.8041 22.632
10.8193 22.546
10.8345 22.185
10.8497 22.613
10.8648 22.787
10.8800 22.653
10.8952 22.606
10.9104 22.240
10.9255 22.559
10.9407 23.102
10.9559 22.373
10.9711 22.058
10.9862 22.144
11.0014 22.491
11.0166 22.492
11.0318 22.217
11.0469 22.061
11.0621 21.850
11.0773 22.067
11.0925 21.955
11.1076 21.815
11.1228 22.041
11.1380 22.203
11.1532 22.249
11.1683 21.828
11.1835 22.039
11.1987 22.157
11.2139 21.978
11.2290 21.702
11.2442 21.479
11.2594 21.688
11.2746 21.615
11.2897 21.640
11.3049 21.784
11.3201 21.677
11.3353 21.723
11.3504 21.800
11.3656 21.613
11.3808 21.555
11.3960 21.542
11.4111 21.641
11.4263 21.308
11.4415 21.347
11.4567 21.289
11.4718 21.670
11.4870 21.687
11.5022 21.340
11.5174 21.208
11.5325 21.467
11.5477 21.329
11.5629 21.447
11.5781 21.102
11.5932 21.473
11.6084 21.526
11.6236 21.544
11.6388 21.245
11.6539 20.626
11.6691 20.357
11.6843 20.929
11.6995 20.927
11.7146 20.462
11.7298 20.769
11.7450 20.680
11.7602 20.551
11.7753 20.085
11.7905 20.179
11.8057 20.441
11.8209 20.410
11.8360 20.192
11.8512 20.102
11.8664 20.067
11.8816 19.901
11.8967 19.876
11.9119 19.706
11.9271 19.397
11.9423 19.452
11.9574 19.629
11.9726 19.335
11.9878 19.422
12.0030 19.331
12.0181 19.218
12.0333 19.159
12.0485 18.898
12.0637 18.289
12.0788 18.718
12.0940 19.134
12.1092 18.750
12.1244 18.487
12.1395 18.655
12.1547 18.566
12.1699 18.542
12.1851 18.300
12.2002 18.522
12.2154 18.380
12.2306 18.037
12.2458 17.835
12.2609 17.652
12.2761 17.804
12.2913 18.217
12.3065 17.917
12.3216 17.838
12.3368 17.787
12.3520 17.569
12.3672 17.366
12.3823 17.223
12.3975 17.421
12.4127 17.295
12.4279 17.233
12.4430 17.000
12.4582 16.866
12.4734 16.957
12.4886 16.833
12.5037 17.030
12.5189 16.788
12.5341 16.463
12.5493 16.352
12.5644 16.505
12.5796 16.740
12.5948 16.417
12.6100 15.842
12.6251 15.947
12.6403 16.001
12.6555 15.923
12.6707 16.026
12.6858 15.996
12.7010 15.571
12.7162 15.790
12.7314 15.746
12.7465 15.236
12.7617 15.128
12.7769 15.173
12.7921 15.229
12.8072 15.162
12.8224 15.188
12.8376 15.028
12.8528 15.006
12.8679 15.103
12.8831 15.122
12.8983 15.153
12.9135 14.684
12.9286 14.323
12.9438 14.328
12.9590 14.453
12.9742 14.614
12.9893 14.627
13.0045 14.504
13.0197 14.101
13.0349 14.022
13.0500 13.930
13.0652 13.800
13.0804 13.829
13.0956 13.990
13.1107 14.034
13.1259 13.727
13.1411 13.790
13.1563 13.782
13.1714 13.663
13.1866 13.762
13.2018 13.701
13.2170 13.488
13.2321 13.414
13.2473 13.419
13.2625 13.423
13.2777 13.532
13.2928 13.512
13.3080 13.298
13.3232 13.169
13.3384 13.208
13.3535 13.096
13.3687 12.850
13.3839 12.951
13.3991 13.054
13.4142 12.927
13.4294 13.040
13.4446 13.031
13.4598 12.944
13.4749 12.777
13.4901 12.479
13.5053 12.484
13.5205 12.676
13.5356 12.486
13.5508 12.443
13.5660 12.329
13.5812 12.282
13.5963 12.100
13.6115 12.115
13.6267 12.268
13.6419 12.221
13.6570 12.187
13.6722 12.276
13.6874 12.126
13.7026 12.065
13.7177 12.032
13.7329 12.120
13.7481 12.264
13.7633 12.038
13.7784 12.131
13.7936 12.357
13.8088 12.173
13.8239 12.138
13.8391 12.082
13.8543 12.050
13.8695 12.426
13.8846 12.271
13.8998 11.961
13.9150 12.179
13.9302 12.172
13.9453 12.102
13.9605 11.762
13.9757 11.677
13.9909 11.651
14.0060 11.612
14.0212 11.542
14.0364 11.612
14.0516 11.423
14.0667 11.189
14.0819 11.200
14.0971 11.423
14.1123 11.708
14.1274 11.612
14.1426 11.414
14.1578 11.437
14.1730 11.375
14.1881 11.342
14.2033 11.355
14.2185 11.380
14.2337 11.447
14.2488 11.363
14.2640 11.717
14.2792 11.714
14.2944 11.714
14.3095 11.844
14.3247 12.130
14.3399 12.248
14.3551 12.424
14.3702 12.740
14.3854 12.964
14.4006 13.247
14.4158 13.582
14.4309 14.153
14.4461 14.381
14.4613 14.129
14.4765 14.086
14.4916 14.327
14.5068 14.051
14.5220 13.887
14.5372 13.792
14.5523 12.864
14.5675 12.358
14.5827 12.387
14.5979 12.183
14.6130 11.652
14.6282 11.577
14.6434 11.476
14.6586 11.156
14.6737 11.532
14.6889 11.279
14.7041 11.454
14.7193 11.066
14.7344 11.367
14.7496 11.246
14.7648 11.330
14.7800 11.354
14.7951 11.406
14.8103 11.609
14.8255 11.296
14.8407 11.495
14.8558 11.412
14.8710 11.014
14.8862 10.977
14.9014 10.968
14.9165 11.759
14.9317 11.060
14.9469 10.804
14.9621 11.471
14.9772 11.023
14.9924 10.627
15.0076 10.478
15.0228 10.785
15.0379 10.991
15.0531 10.846
15.0683 10.766
15.0835 10.616
15.0986 10.749
15.1138 10.514
15.1290 10.685
15.1442 10.809
15.1593 10.333
15.1745 10.622
15.1897 10.523
15.2049 10.692
15.2200 10.390
15.2352 10.697
15.2504 10.348
15.2656 10.433
15.2807 10.599
15.2959 10.333
15.3111 10.410
15.3263 10.454
15.3414 10.626
15.3566 10.528
15.3718 10.398
15.3870 10.797
15.4021 10.575
15.4173 10.424
15.4325 10.355
15.4477 10.734
15.4628 10.288
15.4780 10.285
15.4932 10.135
15.5084 10.540
15.5235 10.599
15.5387 10.815
15.5539 10.268
15.5691 10.680
15.5842 10.655
15.5994 10.121
15.6146 10.338
15.6298 10.025
15.6449 10.086
15.6601 10.240
15.6753 10.259
15.6905 10.223
15.7056 10.175
15.7208 9.907
15.7360 9.739
15.7512 9.967
15.7663 10.098
15.7815 9.898
15.7967 9.990
15.8119 9.964
15.8270 10.504
15.8422 9.939
15.8574 10.011
15.8726 9.655
15.8877 9.503
15.9029 9.820
15.9181 9.839
15.9333 9.658
15.9484 9.759
15.9636 9.839
15.9788 9.926
15.9940 9.989
16.0091 9.458
16.0243 9.709
16.0395 9.746
16.0547 9.889
16.0698 9.808
16.0850 9.738
16.1002 9.933
16.1154 9.859
16.1305 9.846
16.1457 9.881
16.1609 9.818
16.1761 9.736
16.1912 9.756
16.2064 9.832
16.2216 9.949
16.2368 9.984
16.2519 9.879
16.2671 10.357
16.2823 10.260
16.2975 10.210
16.3126 10.061
16.3278 10.100
16.3430 10.103
16.3582 9.949
16.3733 10.388
16.3885 10.451
16.4037 10.324
16.4189 10.280
16.4340 10.070
16.4492 10.092
16.4644 10.161
16.4796 9.941
16.4947 9.843
16.5099 10.118
16.5251 9.990
16.5403 9.806
16.5554 9.926
16.5706 9.656
16.5858 9.765
16.6010 9.824
16.6161 9.899
16.6313 9.980
16.6465 9.937
16.6617 10.081
16.6768 10.200
16.6920 10.029
16.7072 10.032
16.7224 10.448
16.7375 10.531
16.7527 10.266
16.7679 9.986
16.7831 10.044
16.7982 9.924
16.8134 9.942
16.8286 10.209
16.8438 10.205
16.8589 10.047
16.8741 9.940
16.8893 10.060
16.9045 10.105
16.9196 9.844
16.9348 9.814
16.9500 10.054
16.9652 10.055
16.9803 10.062
16.9955 10.115
17.0107 10.165
17.0259 10.110
17.0410 10.059
17.0562 10.176
17.0714 10.406
17.0866 10.558
17.1017 10.531
17.1169 10.774
17.1321 11.197
17.1473 11.702
17.1624 12.313
17.1776 12.675
17.1928 13.269
17.2080 14.225
17.2231 15.189
17.2383 16.098
17.2535 17.485
17.2687 19.053
17.2838 19.282
17.2990 18.236
17.3142 17.193
17.3294 16.717
17.3445 16.498
17.3597 16.218
17.3749 15.965
17.3901 15.407
17.4052 14.321
17.4204 13.393
17.4356 12.512
17.4508 11.722
17.4659 11.625
17.4811 11.519
17.4963 11.193
17.5115 11.043
17.5266 10.975
17.5418 10.652
17.5570 10.431
17.5722 10.663
17.5873 10.763
17.6025 10.600
17.6177 10.491
17.6329 10.418
17.6480 10.408
17.6632 10.610
17.6784 10.803
17.6936 11.143
17.7087 11.312
17.7239 11.400
17.7391 11.655
17.7543 11.777
17.7694 11.841
17.7846 12.176
17.7998 12.564
17.8150 12.612
17.8301 12.612
17.8453 12.523
17.8605 12.382
17.8757 12.703
17.8908 12.491
17.9060 12.074
17.9212 12.030
17.9364 11.715
17.9515 11.598
17.9667 11.488
17.9819 11.135
17.9971 10.949
18.0122 10.881
18.0274 10.778
18.0426 10.506
18.0578 10.369
18.0729 10.386
18.0881 10.444
18.1033 10.279
18.1185 10.304
18.1336 10.306
18.1488 10.251
18.1640 10.143
18.1792 10.139
18.1943 10.196
18.2095 10.019
18.2247 9.832
18.2399 9.834
18.2550 10.013
18.2702 9.898
18.2854 9.921
18.3006 9.950
18.3157 10.084
18.3309 10.014
18.3461 9.883
18.3613 10.020
18.3764 10.120
18.3916 10.163
18.4068 10.136
18.4220 10.022
18.4371 9.822
18.4523 10.044
18.4675 10.055
18.4827 9.933
18.4978 9.988
18.5130 9.909
18.5282 9.897
18.5434 9.795
18.5585 9.791
18.5737 9.883
18.5889 9.713
18.6041 9.662
18.6192 9.892
18.6344 10.009
18.6496 9.831
18.6648 9.834
18.6799 9.725
18.6951 9.803
18.7103 9.976
18.7255 9.897
18.7406 9.765
18.7558 9.780
18.7710 9.957
18.7862 10.083
18.8013 9.983
18.8165 9.819
18.8317 10.000
18.8469 10.009
18.8620 9.870
18.8772 10.103
18.8924 10.098
18.9076 9.908
18.9227 9.863
18.9379 10.027
18.9531 10.133
18.9683 10.104
18.9834 10.167
18.9986 10.044
19.0138 10.258
19.0290 10.359
19.0441 10.029
19.0593 10.451
19.0745 10.452
19.0897 10.323
19.1048 10.399
19.1200 10.341
19.1352 10.425
19.1504 10.492
19.1655 10.539
19.1807 10.661
19.1959 10.771
19.2111 10.766
19.2262 10.820
19.2414 11.142
19.2566 11.112
19.2718 10.887
19.2869 10.933
19.3021 11.048
19.3173 11.032
19.3325 11.156
19.3476 11.278
19.3628 11.216
19.3780 11.119
19.3932 11.020
19.4083 11.020
19.4235 11.166
19.4387 11.288
19.4539 11.264
19.4690 11.439
19.4842 11.500
19.4994 11.492
19.5146 11.450
19.5297 11.428
19.5449 11.651
19.5601 11.675
19.5753 11.732
19.5904 11.742
19.6056 11.800
19.6208 11.650
19.6360 11.627
19.6511 12.002
19.6663 11.989
19.6815 11.586
19.6967 11.550
19.7118 11.715
19.7270 11.887
19.7422 11.857
19.7574 11.799
19.7725 11.837
19.7877 11.809
19.8029 11.845
19.8180 11.839
19.8332 11.955
19.8484 12.360
19.8636 12.591
19.8787 12.559
19.8939 12.825
19.9091 13.284
19.9243 13.592
19.9394 13.875
19.9546 14.146
19.9698 14.416
19.9850 14.639
20.0001 14.655
20.0153 14.533
20.0305 14.196
20.0457 13.864
20.0608 13.970
20.0760 14.131
20.0912 14.064
20.1064 13.871
20.1215 13.491
20.1367 13.163
20.1519 13.212
20.1671 13.103
20.1822 12.738
20.1974 12.600
20.2126 12.692
20.2278 12.747
20.2429 12.394
20.2581 12.182
20.2733 11.913
20.2885 11.515
20.3036 11.474
20.3188 11.700
20.3340 11.675
20.3492 11.731
20.3643 11.867
20.3795 11.557
20.3947 11.195
20.4099 11.467
20.4250 11.403
20.4402 11.387
20.4554 11.584
20.4706 11.471
20.4857 11.429
20.5009 11.574
20.5161 11.278
20.5313 11.329
20.5464 11.534
20.5616 11.579
20.5768 11.357
20.5920 11.276
20.6071 11.147
20.6223 11.188
20.6375 10.878
20.6527 10.985
20.6678 10.902
20.6830 11.101
20.6982 11.176
20.7134 11.206
20.7285 10.792
20.7437 10.729
20.7589 10.668
20.7741 10.636
20.7892 10.603
20.8044 10.572
20.8196 10.532
20.8348 10.681
20.8499 10.560
20.8651 10.384
20.8803 10.386
20.8955 10.457
20.9106 10.322
20.9258 10.459
20.9410 10.643
20.9562 10.489
20.9713 10.741
20.9865 10.702
21.0017 10.889
21.0169 10.814
21.0320 10.341
21.0472 10.349
21.0624 10.483
21.0776 10.185
21.0927 10.241
21.1079 10.211
21.1231 10.306
21.1383 10.410
21.1534 9.919
21.1686 9.826
21.1838 9.803
21.1990 9.983
21.2141 9.613
21.2293 9.693
21.2445 10.220
21.2597 9.577
21.2748 9.749
21.2900 9.473
21.3052 9.622
21.3204 9.675
21.3355 9.497
21.3507 9.670
21.3659 9.463
21.3811 9.542
21.3962 9.629
21.4114 9.621
21.4266 9.577
21.4418 9.195
21.4569 9.378
21.4721 9.773
21.4873 9.593
21.5025 9.522
21.5176 9.228
21.5328 8.989
21.5480 9.501
21.5632 9.547
21.5783 9.471
21.5935 9.480
21.6087 9.208
21.6239 9.074
21.6390 9.015
21.6542 9.112
21.6694 9.401
21.6846 9.195
21.6997 9.207
21.7149 9.082
21.7301 9.091
21.7453 8.894
21.7604 9.195
21.7756 9.101
21.7908 9.065
21.8060 9.068
21.8211 9.048
21.8363 8.904
21.8515 8.957
21.8667 9.114
21.8818 8.975
21.8970 8.962
21.9122 9.147
21.9274 9.119
21.9425 9.069
21.9577 9.103
21.9729 9.041
21.9881 8.848
22.0032 8.841
22.0184 8.785
22.0336 8.710
22.0488 8.563
22.0639 8.701
22.0791 8.961
22.0943 8.794
22.1095 8.535
22.1246 8.621
22.1398 8.704
22.1550 8.638
22.1702 8.758
22.1853 8.742
22.2005 8.725
22.2157 8.563
22.2309 8.353
22.2460 8.121
22.2612 8.455
22.2764 8.431
22.2916 8.634
22.3067 8.447
22.3219 8.584
22.3371 8.625
22.3523 8.409
22.3674 8.496
22.3826 8.621
22.3978 8.511
22.4130 8.728
22.4281 8.572
22.4433 8.671
22.4585 8.367
22.4737 8.534
22.4888 8.550
22.5040 8.618
22.5192 8.473
22.5344 8.592
22.5495 8.447
22.5647 8.485
22.5799 8.704
22.5951 8.591
22.6102 8.673
22.6254 8.630
22.6406 8.410
22.6558 8.535
22.6709 8.388
22.6861 8.337
22.7013 8.320
22.7165 7.975
22.7316 6.445
