'Id: "" Comment: "" Operator: "Lab Manager" Anode: "Mo" Scantype: "Still (Eiger2R_500K (1D mode))" TimePerStep: "300" X: "11.8" Y: "9.4" Z: "11.284" 
7.2532 18.260
7.2684 18.241
7.2836 18.566
7.2987 18.861
7.3139 18.728
7.3291 18.846
7.3443 18.871
7.3594 18.978
7.3746 19.238
7.3898 19.049
7.4050 19.058
7.4201 19.258
7.4353 19.315
7.4505 19.421
7.4657 19.200
7.4808 19.666
7.4960 19.591
7.5112 19.581
7.5264 19.707
7.5415 20.063
7.5567 19.733
7.5719 20.020
7.5871 19.923
7.6022 19.874
7.6174 19.967
7.6326 19.898
7.6478 19.716
7.6629 19.988
7.6781 20.174
7.6933 20.124
7.7085 20.330
7.7236 20.323
7.7388 20.190
7.7540 20.240
7.7692 20.505
7.7843 20.591
7.7995 20.295
7.8147 20.260
7.8299 20.493
7.8450 20.720
7.8602 20.767
7.8754 20.694
7.8905 20.923
7.9057 20.892
7.9209 20.821
7.9361 20.652
7.9512 20.668
7.9664 20.819
7.9816 20.940
7.9968 20.865
8.0119 20.794
8.0271 20.991
8.0423 20.901
8.0575 20.680
8.0726 20.678
8.0878 21.017
8.1030 21.237
8.1182 21.170
8.1333 21.204
8.1485 21.211
8.1637 21.286
8.1789 21.587
8.1940 21.503
8.2092 21.286
8.2244 21.487
8.2396 21.301
8.2547 21.445
8.2699 21.326
8.2851 21.601
8.3003 21.475
8.3154 21.500
8.3306 21.512
8.3458 21.957
8.3610 21.312
8.3761 21.782
8.3913 21.640
8.4065 21.703
8.4217 21.913
8.4368 21.734
8.4520 21.644
8.4672 21.734
8.4824 21.381
8.4975 21.420
8.5127 21.604
8.5279 21.711
8.5431 21.603
8.5582 21.771
8.5734 21.786
8.5886 22.365
8.6038 21.973
8.6189 22.512
8.6341 22.093
8.6493 21.770
8.6645 22.289
8.6796 22.297
8.6948 21.907
8.7100 22.114
8.7252 21.987
8.7403 22.245
8.7555 22.117
8.7707 22.090
8.7859 22.449
8.8010 22.203
8.8162 22.476
8.8314 21.875
8.8466 21.968
8.8617 22.389
8.8769 22.513
8.8921 22.442
8.9073 22.479
8.9224 22.206
8.9376 22.304
8.9528 22.388
8.9680 22.179
8.9831 22.970
8.9983 22.631
9.0135 22.567
9.0287 22.225
9.0438 22.241
9.0590 22.822
9.0742 23.092
9.0894 22.820
9.1045 22.266
9.1197 22.595
9.1349 22.806
9.1501 22.717
9.1652 22.588
9.1804 22.600
9.1956 22.731
9.2108 22.689
9.2259 22.730
9.2411 23.138
9.2563 22.709
9.2715 22.819
9.2866 22.721
9.3018 22.631
9.3170 22.850
9.3322 22.791
9.3473 22.558
9.3625 22.638
9.3777 22.951
9.3929 23.162
9.4080 23.185
9.4232 22.816
9.4384 23.110
9.4536 23.008
9.4687 23.141
9.4839 23.284
9.4991 22.897
9.5143 22.922
9.5294 23.163
9.5446 23.122
9.5598 23.025
9.5750 23.027
9.5901 23.110
9.6053 23.167
9.6205 23.158
9.6357 23.027
9.6508 22.998
9.6660 23.295
9.6812 23.603
9.6964 23.804
9.7115 23.853
9.7267 23.670
9.7419 24.279
9.7571 24.408
9.7722 23.974
9.7874 23.885
9.8026 23.427
9.8178 23.018
9.8329 23.060
9.8481 23.302
9.8633 23.296
9.8785 23.079
9.8936 23.124
9.9088 23.013
9.9240 23.098
9.9392 23.020
9.9543 22.998
9.9695 23.169
9.9847 23.134
9.9999 23.208
10.0150 23.267
10.0302 23.301
10.0454 23.299
10.0606 23.237
10.0757 23.263
10.0909 23.461
10.1061 23.283
10.1213 23.115
10.1364 23.455
10.1516 23.330
10.1668 23.178
10.1820 22.984
10.1971 23.170
10.2123 23.216
10.2275 23.067
10.2427 23.244
10.2578 22.803
10.2730 22.547
10.2882 22.762
10.3034 22.930
10.3185 22.977
10.3337 23.076
10.3489 22.604
10.3641 22.383
10.3792 22.407
10.3944 22.648
10.4096 22.925
10.4248 22.735
10.4399 22.369
10.4551 22.416
10.4703 22.546
10.4855 22.463
10.5006 22.293
10.5158 22.288
10.5310 22.335
10.5462 22.118
10.5613 21.945
10.5765 22.651
10.5917 22.667
10.6069 22.280
10.6220 22.183
10.6372 22.567
10.6524 22.663
10.6676 22.318
10.6827 22.425
10.6979 22.689
10.7131 22.663
10.7283 22.404
10.7434 22.139
10.7586 22.477
10.7738 22.333
10.7890 22.194
10.8041 22.315
10.8193 22.235
10.8345 21.896
10.8497 22.351
10.8648 22.422
10.8800 22.035
10.8952 21.794
10.9104 22.113
10.9255 22.024
10.9407 21.868
10.9559 22.095
10.9711 22.110
10.9862 22.123
11.0014 22.422
11.0166 22.215
11.0318 22.174
11.0469 22.174
11.0621 21.737
11.0773 21.724
11.0925 21.420
11.1076 21.457
11.1228 21.508
11.1380 21.941
11.1532 21.992
11.1683 21.695
11.1835 21.527
11.1987 21.806
11.2139 21.656
11.2290 21.942
11.2442 21.598
11.2594 21.414
11.2746 21.561
11.2897 21.649
11.3049 21.249
11.3201 21.286
11.3353 21.450
11.3504 21.342
11.3656 21.355
11.3808 21.078
11.3960 21.045
11.4111 21.121
11.4263 21.218
11.4415 21.280
11.4567 20.902
11.4718 20.725
11.4870 20.345
11.5022 20.753
11.5174 21.177
11.5325 20.873
11.5477 21.131
11.5629 21.128
11.5781 20.887
11.5932 20.699
11.6084 20.728
11.6236 20.442
11.6388 20.775
11.6539 20.827
11.6691 20.664
11.6843 20.753
11.6995 20.836
11.7146 20.879
11.7298 20.647
11.7450 20.387
11.7602 20.538
11.7753 20.411
11.7905 20.059
11.8057 19.624
11.8209 19.896
11.8360 20.133
11.8512 19.778
11.8664 19.590
11.8816 19.826
11.8967 19.656
11.9119 19.577
11.9271 19.610
11.9423 19.286
11.9574 19.266
11.9726 19.053
11.9878 19.299
12.0030 19.528
12.0181 19.417
12.0333 19.254
12.0485 19.210
12.0637 18.885
12.0788 18.401
12.0940 18.069
12.1092 18.431
12.1244 18.487
12.1395 18.222
12.1547 18.285
12.1699 18.377
12.1851 18.097
12.2002 18.192
12.2154 18.318
12.2306 18.278
12.2458 18.306
12.2609 18.234
12.2761 17.866
12.2913 17.627
12.3065 17.723
12.3216 17.529
12.3368 17.420
12.3520 17.393
12.3672 17.562
12.3823 17.282
12.3975 17.151
12.4127 16.984
12.4279 17.027
12.4430 17.067
12.4582 16.807
12.4734 16.563
12.4886 16.656
12.5037 16.671
12.5189 16.534
12.5341 16.331
12.5493 16.310
12.5644 16.325
12.5796 16.415
12.5948 16.445
12.6100 16.267
12.6251 15.786
12.6403 15.581
12.6555 15.828
12.6707 15.694
12.6858 15.514
12.7010 15.494
12.7162 15.528
12.7314 15.386
12.7465 15.447
12.7617 15.491
12.7769 15.426
12.7921 15.171
12.8072 15.094
12.8224 15.038
12.8376 14.788
12.8528 14.762
12.8679 14.755
12.8831 14.867
12.8983 14.769
12.9135 14.551
12.9286 14.608
12.9438 14.574
12.9590 14.562
12.9742 14.430
12.9893 14.382
13.0045 14.404
13.0197 14.284
13.0349 14.046
13.0500 13.856
13.0652 14.022
13.0804 14.190
13.0956 13.857
13.1107 13.630
13.1259 13.799
13.1411 13.640
13.1563 13.443
13.1714 13.600
13.1866 13.583
13.2018 13.343
13.2170 13.158
13.2321 13.303
13.2473 13.298
13.2625 13.059
13.2777 13.270
13.2928 13.220
13.3080 13.161
13.3232 13.352
13.3384 13.133
13.3535 13.066
13.3687 13.258
13.3839 13.046
13.3991 12.873
13.4142 12.834
13.4294 12.841
13.4446 12.876
13.4598 12.652
13.4749 12.804
13.4901 12.607
13.5053 12.393
13.5205 12.423
13.5356 12.588
13.5508 12.568
13.5660 12.428
13.5812 12.274
13.5963 12.043
13.6115 12.223
13.6267 12.143
13.6419 12.027
13.6570 12.341
13.6722 12.269
13.6874 12.104
13.7026 12.060
13.7177 11.872
13.7329 12.032
13.7481 12.100
13.7633 11.967
13.7784 11.954
13.7936 12.017
13.8088 12.262
13.8239 12.340
13.8391 12.647
13.8543 12.235
13.8695 12.325
13.8846 12.507
13.8998 12.267
13.9150 11.891
13.9302 12.021
13.9453 12.157
13.9605 11.650
13.9757 11.458
13.9909 11.616
14.0060 11.977
14.0212 11.852
14.0364 11.627
14.0516 11.948
14.0667 11.943
14.0819 11.909
14.0971 11.934
14.1123 11.905
14.1274 11.824
14.1426 11.959
14.1578 11.878
14.1730 11.821
14.1881 11.557
14.2033 11.845
14.2185 11.767
14.2337 11.649
14.2488 11.769
14.2640 11.952
14.2792 11.602
14.2944 11.705
14.3095 11.891
14.3247 11.877
14.3399 12.149
14.3551 12.535
14.3702 12.833
14.3854 12.982
14.4006 13.295
14.4158 13.263
14.4309 13.090
14.4461 12.896
14.4613 12.620
14.4765 12.622
14.4916 12.201
14.5068 11.710
14.5220 11.204
14.5372 11.222
14.5523 11.027
14.5675 11.175
14.5827 11.181
14.5979 10.968
14.6130 10.851
14.6282 11.061
14.6434 10.813
14.6586 11.075
14.6737 10.940
14.6889 10.692
14.7041 10.802
14.7193 10.552
14.7344 10.391
14.7496 10.308
14.7648 10.414
14.7800 10.287
14.7951 10.424
14.8103 10.299
14.8255 10.390
14.8407 10.509
14.8558 10.300
14.8710 10.369
14.8862 10.456
14.9014 10.317
14.9165 10.602
14.9317 10.613
14.9469 10.420
14.9621 10.317
14.9772 10.196
14.9924 10.125
15.0076 10.272
15.0228 10.124
15.0379 10.186
15.0531 10.639
15.0683 10.197
15.0835 10.007
15.0986 10.071
15.1138 10.129
15.1290 10.260
15.1442 10.085
15.1593 9.965
15.1745 10.079
15.1897 9.819
15.2049 9.947
15.2200 10.264
15.2352 10.134
15.2504 9.996
15.2656 10.256
15.2807 9.834
15.2959 10.131
15.3111 10.098
15.3263 10.020
15.3414 10.375
15.3566 9.913
15.3718 10.030
15.3870 10.005
15.4021 10.315
15.4173 9.942
15.4325 10.048
15.4477 10.201
15.4628 10.165
15.4780 9.956
15.4932 10.056
15.5084 10.127
15.5235 10.169
15.5387 10.077
15.5539 9.990
15.5691 9.876
15.5842 10.034
15.5994 9.815
15.6146 9.977
15.6298 9.651
15.6449 9.540
15.6601 10.005
15.6753 9.739
15.6905 9.754
15.7056 9.683
15.7208 9.691
15.7360 9.975
15.7512 9.681
15.7663 9.485
15.7815 9.609
15.7967 9.562
15.8119 9.727
15.8270 9.468
15.8422 9.558
15.8574 9.456
15.8726 9.600
15.8877 9.464
15.9029 9.369
15.9181 9.933
15.9333 9.742
15.9484 9.748
15.9636 9.778
15.9788 9.564
15.9940 9.728
16.0091 9.502
16.0243 9.372
16.0395 9.415
16.0547 9.691
16.0698 9.608
16.0850 9.737
16.1002 9.746
16.1154 9.645
16.1305 9.444
16.1457 9.502
16.1609 9.532
16.1761 9.629
16.1912 9.594
16.2064 9.814
16.2216 9.765
16.2368 10.028
16.2519 9.837
16.2671 9.618
16.2823 9.488
16.2975 9.589
16.3126 9.734
16.3278 9.830
16.3430 9.831
16.3582 9.936
16.3733 9.692
16.3885 9.865
16.4037 10.015
16.4189 9.736
16.4340 9.673
16.4492 9.766
16.4644 9.714
16.4796 9.592
16.4947 9.551
16.5099 9.533
16.5251 9.730
16.5403 9.717
16.5554 9.538
16.5706 9.550
16.5858 9.510
16.6010 9.369
16.6161 9.469
16.6313 9.569
16.6465 9.764
16.6617 9.680
16.6768 9.594
16.6920 9.757
16.7072 9.791
16.7224 9.680
16.7375 9.798
16.7527 10.046
16.7679 10.213
16.7831 9.871
16.7982 9.770
16.8134 9.913
16.8286 10.095
16.8438 10.147
16.8589 9.921
16.8741 9.539
16.8893 9.552
16.9045 9.824
16.9196 9.923
16.9348 9.605
16.9500 9.538
16.9652 9.667
16.9803 9.800
16.9955 9.885
17.0107 9.888
17.0259 9.956
17.0410 9.893
17.0562 10.043
17.0714 10.291
17.0866 10.337
17.1017 10.345
17.1169 10.547
17.1321 10.810
17.1473 11.115
17.1624 11.555
17.1776 12.244
17.1928 13.180
17.2080 14.126
17.2231 15.168
17.2383 16.543
17.2535 17.898
17.2687 18.470
17.2838 18.289
17.2990 17.849
17.3142 16.990
17.3294 16.212
17.3445 16.083
17.3597 16.179
17.3749 16.253
17.3901 15.611
17.4052 14.360
17.4204 13.173
17.4356 12.498
17.4508 12.328
17.4659 12.020
17.4811 11.745
17.4963 11.675
17.5115 11.485
17.5266 11.223
17.5418 11.143
17.5570 11.133
17.5722 10.862
17.5873 10.823
17.6025 11.024
17.6177 10.975
17.6329 11.219
17.6480 11.311
17.6632 11.386
17.6784 11.458
17.6936 11.442
17.7087 11.567
17.7239 11.455
17.7391 11.221
17.7543 10.936
17.7694 10.836
17.7846 10.775
17.7998 10.746
17.8150 10.775
17.8301 10.560
17.8453 10.490
17.8605 10.389
17.8757 10.382
17.8908 10.368
17.9060 10.398
17.9212 10.462
17.9364 10.418
17.9515 10.201
17.9667 9.918
17.9819 10.117
17.9971 10.006
18.0122 10.021
18.0274 10.236
18.0426 10.162
18.0578 10.181
18.0729 10.246
18.0881 10.003
18.1033 9.987
18.1185 10.078
18.1336 10.079
18.1488 9.859
18.1640 9.946
18.1792 9.963
18.1943 10.073
18.2095 9.830
18.2247 9.602
18.2399 9.947
18.2550 10.007
18.2702 9.956
18.2854 9.666
18.3006 9.651
18.3157 9.678
18.3309 9.659
18.3461 9.813
18.3613 9.942
18.3764 9.911
18.3916 9.821
18.4068 9.619
18.4220 9.689
18.4371 9.881
18.4523 9.915
18.4675 9.780
18.4827 9.811
18.4978 9.886
18.5130 9.743
18.5282 9.590
18.5434 9.655
18.5585 9.660
18.5737 9.716
18.5889 9.836
18.6041 9.612
18.6192 9.578
18.6344 9.647
18.6496 9.814
18.6648 9.937
18.6799 9.853
18.6951 9.981
18.7103 9.963
18.7255 9.759
18.7406 9.602
18.7558 9.820
18.7710 9.894
18.7862 9.823
18.8013 9.635
18.8165 9.629
18.8317 9.824
18.8469 9.889
18.8620 9.816
18.8772 9.789
18.8924 9.866
18.9076 10.049
18.9227 9.923
18.9379 9.827
18.9531 9.754
18.9683 9.821
18.9834 9.998
18.9986 10.180
19.0138 10.119
19.0290 10.208
19.0441 10.432
19.0593 10.183
19.0745 10.295
19.0897 10.339
19.1048 10.411
19.1200 10.551
19.1352 10.327
19.1504 10.270
19.1655 10.571
19.1807 10.415
19.1959 10.451
19.2111 10.436
19.2262 10.402
19.2414 10.656
19.2566 10.958
19.2718 11.050
19.2869 10.918
19.3021 10.768
19.3173 10.858
19.3325 11.142
19.3476 10.970
19.3628 10.663
19.3780 10.752
19.3932 11.213
19.4083 11.387
19.4235 11.255
19.4387 11.189
19.4539 11.207
19.4690 11.474
19.4842 11.564
19.4994 11.401
19.5146 11.462
19.5297 11.653
19.5449 11.736
19.5601 11.502
19.5753 11.616
19.5904 11.615
19.6056 11.574
19.6208 11.602
19.6360 11.678
19.6511 11.881
19.6663 11.753
19.6815 11.608
19.6967 11.688
19.7118 11.896
19.7270 11.810
19.7422 11.489
19.7574 11.786
19.7725 12.181
19.7877 12.094
19.8029 11.776
19.8180 11.981
19.8332 12.234
19.8484 12.107
19.8636 12.218
19.8787 12.616
19.8939 12.849
19.9091 12.992
19.9243 13.585
19.9394 13.991
19.9546 14.197
19.9698 14.430
19.9850 14.539
20.0001 14.345
20.0153 14.109
20.0305 14.146
20.0457 14.304
20.0608 14.222
20.0760 13.936
20.0912 13.947
20.1064 14.011
20.1215 13.669
20.1367 13.226
20.1519 13.113
20.1671 12.982
20.1822 12.828
20.1974 12.659
20.2126 12.827
20.2278 12.668
20.2429 12.761
20.2581 12.658
20.2733 12.477
20.2885 12.219
20.3036 12.131
20.3188 12.179
20.3340 12.057
20.3492 12.147
20.3643 12.376
20.3795 12.150
20.3947 11.908
20.4099 12.001
20.4250 12.089
20.4402 11.823
20.4554 11.675
20.4706 11.711
20.4857 11.773
20.5009 11.717
20.5161 11.476
20.5313 11.596
20.5464 11.413
20.5616 11.383
20.5768 11.236
20.5920 10.853
20.6071 11.080
20.6223 11.094
20.6375 10.968
20.6527 10.797
20.6678 10.753
20.6830 10.487
20.6982 10.369
20.7134 10.425
20.7285 10.407
20.7437 10.551
20.7589 10.526
20.7741 10.276
20.7892 10.328
20.8044 10.266
20.8196 10.478
20.8348 10.306
20.8499 10.136
20.8651 10.190
20.8803 10.315
20.8955 9.997
20.9106 10.322
20.9258 10.067
20.9410 10.059
20.9562 10.297
20.9713 10.009
20.9865 10.058
21.0017 10.253
21.0169 10.221
21.0320 9.869
21.0472 10.212
21.0624 10.044
21.0776 9.827
21.0927 10.295
21.1079 9.803
21.1231 9.681
21.1383 9.933
21.1534 9.837
21.1686 9.518
21.1838 9.920
21.1990 9.642
21.2141 9.824
21.2293 9.715
21.2445 9.547
21.2597 9.667
21.2748 9.721
21.2900 9.348
21.3052 9.554
21.3204 9.734
21.3355 9.788
21.3507 9.660
21.3659 9.644
21.3811 9.509
21.3962 9.377
21.4114 9.453
21.4266 9.427
21.4418 9.699
21.4569 9.614
21.4721 9.229
21.4873 9.300
21.5025 9.347
21.5176 9.605
21.5328 9.413
21.5480 9.166
21.5632 9.327
21.5783 9.114
21.5935 9.041
21.6087 9.004
21.6239 9.050
21.6390 9.052
21.6542 9.276
21.6694 9.035
21.6846 9.131
21.6997 9.325
21.7149 9.116
21.7301 9.111
21.7453 9.050
21.7604 9.259
21.7756 9.076
21.7908 9.112
21.8060 9.229
21.8211 9.083
21.8363 9.029
21.8515 9.124
21.8667 9.168
21.8818 9.061
21.8970 9.001
21.9122 9.144
21.9274 9.061
21.9425 9.008
21.9577 8.979
21.9729 8.964
21.9881 9.126
22.0032 9.133
22.0184 8.907
22.0336 8.963
22.0488 8.878
22.0639 8.832
22.0791 8.723
22.0943 8.510
22.1095 8.534
22.1246 8.606
22.1398 8.628
22.1550 8.671
22.1702 8.652
22.1853 8.558
22.2005 8.626
22.2157 8.819
22.2309 8.677
22.2460 8.652
22.2612 8.500
22.2764 8.607
22.2916 8.601
22.3067 8.476
22.3219 8.611
22.3371 8.585
22.3523 8.600
22.3674 8.685
22.3826 8.465
22.3978 8.518
22.4130 8.614
22.4281 8.469
22.4433 8.225
22.4585 8.406
22.4737 8.208
22.4888 8.160
22.5040 8.540
22.5192 8.409
22.5344 8.299
22.5495 8.349
22.5647 8.451
22.5799 8.252
22.5951 8.213
22.6102 8.295
22.6254 7.931
22.6406 8.229
22.6558 8.531
22.6709 8.172
22.6861 7.945
22.7013 8.177
22.7165 7.933
22.7316 6.444
