'Id: "" Comment: "" Operator: "Lab Manager" Anode: "Mo" Scantype: "Still (Eiger2R_500K (1D mode))" TimePerStep: "300" X: "11.8" Y: "9.4" Z: "11.284" 
7.2532 18.947
7.2684 18.826
7.2836 18.871
7.2987 19.163
7.3139 18.728
7.3291 19.254
7.3443 19.345
7.3594 19.266
7.3746 19.858
7.3898 19.562
7.4050 19.509
7.4201 19.508
7.4353 19.569
7.4505 19.428
7.4657 19.630
7.4808 19.258
7.4960 19.763
7.5112 19.562
7.5264 19.851
7.5415 19.693
7.5567 19.531
7.5719 20.180
7.5871 19.977
7.6022 20.052
7.6174 19.908
7.6326 20.204
7.6478 20.463
7.6629 20.397
7.6781 20.255
7.6933 20.099
7.7085 20.383
7.7236 20.362
7.7388 20.757
7.7540 20.783
7.7692 20.584
7.7843 20.372
7.7995 20.467
7.8147 20.719
7.8299 20.531
7.8450 20.797
7.8602 20.830
7.8754 20.749
7.8905 20.896
7.9057 21.129
7.9209 21.347
7.9361 21.153
7.9512 21.038
7.9664 21.034
7.9816 20.865
7.9968 20.830
8.0119 21.072
8.0271 21.521
8.0423 21.325
8.0575 21.441
8.0726 21.224
8.0878 21.306
8.1030 21.205
8.1182 21.424
8.1333 21.695
8.1485 21.710
8.1637 21.365
8.1789 21.510
8.1940 21.302
8.2092 21.047
8.2244 21.338
8.2396 21.720
8.2547 21.861
8.2699 21.437
8.2851 21.797
8.3003 21.592
8.3154 21.683
8.3306 21.477
8.3458 21.907
8.3610 22.026
8.3761 21.634
8.3913 21.666
8.4065 21.746
8.4217 22.235
8.4368 21.996
8.4520 22.165
8.4672 22.165
8.4824 22.217
8.4975 22.050
8.5127 21.798
8.5279 22.088
8.5431 22.107
8.5582 21.930
8.5734 22.133
8.5886 22.261
8.6038 22.252
8.6189 22.480
8.6341 22.593
8.6493 22.285
8.6645 22.662
8.6796 22.451
8.6948 22.856
8.7100 22.458
8.7252 22.811
8.7403 22.360
8.7555 22.796
8.7707 22.351
8.7859 21.908
8.8010 22.907
8.8162 23.120
8.8314 22.859
8.8466 22.346
8.8617 22.648
8.8769 22.711
8.8921 22.539
8.9073 22.627
8.9224 22.490
8.9376 22.439
8.9528 23.367
8.9680 22.734
8.9831 22.748
8.9983 22.592
9.0135 22.997
9.0287 22.725
9.0438 22.437
9.0590 22.536
9.0742 22.834
9.0894 23.033
9.1045 23.241
9.1197 23.244
9.1349 22.773
9.1501 23.130
9.1652 23.151
9.1804 23.060
9.1956 23.019
9.2108 23.015
9.2259 23.196
9.2411 23.175
9.2563 23.149
9.2715 23.029
9.2866 22.956
9.3018 22.877
9.3170 23.277
9.3322 23.301
9.3473 23.303
9.3625 23.160
9.3777 22.985
9.3929 22.934
9.4080 23.229
9.4232 23.251
9.4384 23.678
9.4536 23.878
9.4687 23.009
9.4839 23.111
9.4991 23.336
9.5143 23.227
9.5294 23.363
9.5446 23.132
9.5598 23.197
9.5750 23.286
9.5901 23.152
9.6053 23.125
9.6205 23.259
9.6357 23.551
9.6508 23.671
9.6660 23.712
9.6812 23.748
9.6964 24.075
9.7115 24.137
9.7267 24.108
9.7419 23.918
9.7571 23.610
9.7722 23.891
9.7874 24.080
9.8026 24.085
9.8178 23.913
9.8329 23.669
9.8481 23.831
9.8633 23.767
9.8785 23.872
9.8936 23.650
9.9088 23.171
9.9240 23.286
9.9392 23.589
9.9543 23.527
9.9695 23.598
9.9847 23.796
9.9999 23.634
10.0150 23.142
10.0302 23.346
10.0454 23.589
10.0606 23.344
10.0757 23.450
10.0909 23.738
10.1061 23.339
10.1213 23.290
10.1364 23.685
10.1516 23.552
10.1668 23.141
10.1820 23.170
10.1971 22.885
10.2123 22.598
10.2275 22.911
10.2427 22.845
10.2578 23.269
10.2730 23.365
10.2882 23.236
10.3034 23.041
10.3185 22.911
10.3337 23.135
10.3489 23.176
10.3641 22.984
10.3792 23.183
10.3944 23.056
10.4096 22.757
10.4248 23.008
10.4399 22.787
10.4551 22.856
10.4703 23.123
10.4855 22.852
10.5006 22.653
10.5158 22.473
10.5310 22.781
10.5462 23.080
10.5613 22.871
10.5765 22.630
10.5917 22.464
10.6069 22.830
10.6220 22.898
10.6372 22.837
10.6524 22.582
10.6676 22.251
10.6827 22.528
10.6979 22.725
10.7131 22.424
10.7283 22.053
10.7434 22.316
10.7586 22.752
10.7738 22.674
10.7890 22.415
10.8041 22.048
10.8193 22.051
10.8345 22.247
10.8497 22.471
10.8648 21.986
10.8800 21.980
10.8952 22.112
10.9104 22.368
10.9255 22.245
10.9407 21.963
10.9559 22.029
10.9711 21.712
10.9862 22.070
11.0014 22.204
11.0166 21.935
11.0318 21.996
11.0469 21.876
11.0621 22.038
11.0773 21.769
11.0925 21.621
11.1076 21.712
11.1228 21.786
11.1380 21.868
11.1532 21.690
11.1683 21.406
11.1835 21.730
11.1987 21.695
11.2139 21.681
11.2290 21.658
11.2442 21.668
11.2594 21.764
11.2746 21.634
11.2897 21.506
11.3049 21.658
11.3201 21.822
11.3353 21.556
11.3504 21.467
11.3656 21.335
11.3808 21.576
11.3960 21.383
11.4111 21.644
11.4263 21.694
11.4415 21.344
11.4567 21.268
11.4718 20.845
11.4870 21.120
11.5022 21.235
11.5174 21.191
11.5325 21.098
11.5477 21.286
11.5629 21.205
11.5781 21.032
11.5932 20.869
11.6084 21.094
11.6236 21.229
11.6388 21.104
11.6539 20.734
11.6691 20.765
11.6843 20.922
11.6995 20.448
11.7146 20.300
11.7298 20.068
11.7450 19.984
11.7602 20.110
11.7753 20.159
11.7905 19.909
11.8057 20.395
11.8209 20.197
11.8360 20.127
11.8512 19.935
11.8664 19.871
11.8816 20.125
11.8967 19.964
11.9119 19.447
11.9271 19.569
11.9423 19.601
11.9574 19.628
11.9726 19.511
11.9878 19.480
12.0030 19.466
12.0181 19.307
12.0333 19.185
12.0485 19.268
12.0637 19.199
12.0788 19.060
12.0940 18.626
12.1092 18.686
12.1244 18.886
12.1395 18.975
12.1547 18.599
12.1699 18.480
12.1851 18.165
12.2002 18.094
12.2154 18.176
12.2306 18.150
12.2458 17.847
12.2609 17.921
12.2761 17.924
12.2913 17.656
12.3065 17.679
12.3216 17.674
12.3368 17.674
12.3520 17.517
12.3672 17.432
12.3823 17.433
12.3975 17.165
12.4127 17.189
12.4279 17.246
12.4430 17.495
12.4582 17.144
12.4734 16.850
12.4886 16.628
12.5037 16.382
12.5189 16.415
12.5341 16.557
12.5493 16.753
12.5644 16.728
12.5796 16.511
12.5948 15.924
12.6100 15.696
12.6251 16.051
12.6403 16.272
12.6555 15.797
12.6707 15.741
12.6858 16.036
12.7010 15.938
12.7162 15.616
12.7314 15.426
12.7465 15.425
12.7617 15.628
12.7769 15.588
12.7921 15.298
12.8072 15.222
12.8224 15.221
12.8376 15.251
12.8528 15.336
12.8679 14.898
12.8831 14.542
12.8983 14.517
12.9135 14.584
12.9286 14.449
12.9438 14.270
12.9590 14.327
12.9742 14.300
12.9893 14.394
13.0045 14.335
13.0197 14.335
13.0349 14.457
13.0500 14.275
13.0652 14.082
13.0804 14.166
13.0956 14.230
13.1107 14.016
13.1259 13.702
13.1411 13.573
13.1563 13.519
13.1714 13.364
13.1866 13.483
13.2018 13.476
13.2170 13.383
13.2321 13.545
13.2473 13.358
13.2625 13.259
13.2777 13.327
13.2928 13.285
13.3080 13.272
13.3232 13.143
13.3384 13.084
13.3535 13.108
13.3687 13.280
13.3839 13.253
13.3991 12.914
13.4142 12.726
13.4294 12.838
13.4446 13.062
13.4598 13.184
13.4749 12.981
13.4901 12.716
13.5053 12.585
13.5205 12.592
13.5356 12.765
13.5508 12.652
13.5660 12.555
13.5812 12.442
13.5963 12.446
13.6115 12.565
13.6267 12.481
13.6419 12.266
13.6570 12.286
13.6722 12.361
13.6874 12.082
13.7026 12.162
13.7177 12.040
13.7329 12.144
13.7481 12.026
13.7633 11.985
13.7784 12.277
13.7936 12.295
13.8088 12.204
13.8239 12.229
13.8391 12.259
13.8543 12.094
13.8695 12.196
13.8846 12.077
13.8998 12.221
13.9150 12.154
13.9302 12.036
13.9453 11.966
13.9605 11.933
13.9757 11.792
13.9909 11.740
14.0060 11.508
14.0212 11.720
14.0364 11.565
14.0516 11.432
14.0667 11.424
14.0819 11.605
14.0971 11.515
14.1123 11.273
14.1274 11.383
14.1426 11.577
14.1578 11.624
14.1730 11.373
14.1881 11.583
14.2033 11.236
14.2185 11.367
14.2337 11.546
14.2488 11.556
14.2640 11.575
14.2792 11.827
14.2944 11.711
14.3095 11.998
14.3247 12.107
14.3399 12.256
14.3551 12.482
14.3702 12.847
14.3854 12.943
14.4006 13.443
14.4158 13.268
14.4309 13.064
14.4461 12.800
14.4613 13.292
14.4765 12.621
14.4916 12.433
14.5068 12.250
14.5220 11.695
14.5372 11.731
14.5523 11.419
14.5675 11.490
14.5827 11.067
14.5979 11.440
14.6130 11.350
14.6282 10.906
14.6434 11.107
14.6586 11.167
14.6737 10.949
14.6889 10.848
14.7041 10.993
14.7193 11.228
14.7344 10.967
14.7496 10.793
14.7648 10.951
14.7800 10.760
14.7951 10.908
14.8103 10.817
14.8255 10.755
14.8407 10.638
14.8558 10.765
14.8710 10.525
14.8862 10.506
14.9014 10.539
14.9165 10.608
14.9317 10.848
14.9469 10.514
14.9621 10.538
14.9772 10.584
14.9924 10.745
15.0076 10.550
15.0228 10.614
15.0379 10.285
15.0531 10.689
15.0683 10.443
15.0835 10.418
15.0986 10.347
15.1138 10.546
15.1290 9.952
15.1442 10.449
15.1593 10.220
15.1745 10.601
15.1897 10.211
15.2049 10.493
15.2200 10.166
15.2352 10.319
15.2504 10.042
15.2656 10.267
15.2807 10.151
15.2959 9.971
15.3111 10.088
15.3263 10.499
15.3414 10.358
15.3566 10.124
15.3718 10.503
15.3870 10.339
15.4021 10.409
15.4173 10.134
15.4325 10.209
15.4477 10.578
15.4628 10.580
15.4780 10.390
15.4932 10.146
15.5084 10.582
15.5235 10.271
15.5387 10.618
15.5539 10.392
15.5691 10.113
15.5842 10.009
15.5994 10.520
15.6146 10.220
15.6298 9.913
15.6449 9.816
15.6601 9.853
15.6753 10.037
15.6905 9.923
15.7056 10.038
15.7208 10.085
15.7360 9.817
15.7512 9.720
15.7663 9.654
15.7815 9.954
15.7967 9.961
15.8119 9.854
15.8270 9.804
15.8422 9.751
15.8574 9.865
15.8726 9.535
15.8877 9.616
15.9029 9.637
15.9181 9.647
15.9333 9.487
15.9484 9.996
15.9636 10.057
15.9788 9.670
15.9940 9.880
16.0091 9.953
16.0243 9.926
16.0395 9.783
16.0547 9.821
16.0698 9.660
16.0850 9.674
16.1002 9.766
16.1154 9.598
16.1305 9.730
16.1457 9.698
16.1609 9.883
16.1761 9.914
16.1912 9.734
16.2064 9.842
16.2216 9.555
16.2368 9.640
16.2519 9.773
16.2671 9.908
16.2823 9.926
16.2975 9.909
16.3126 9.900
16.3278 10.010
16.3430 10.096
16.3582 9.866
16.3733 10.115
16.3885 10.248
16.4037 10.310
16.4189 10.395
16.4340 9.949
16.4492 9.698
16.4644 9.906
16.4796 9.981
16.4947 9.812
16.5099 9.856
16.5251 9.827
16.5403 9.744
16.5554 9.736
16.5706 9.544
16.5858 9.641
16.6010 9.910
16.6161 9.687
16.6313 9.530
16.6465 9.711
16.6617 9.696
16.6768 9.750
16.6920 10.073
16.7072 9.979
16.7224 10.141
16.7375 10.364
16.7527 10.123
16.7679 10.088
16.7831 10.216
16.7982 9.868
16.8134 9.807
16.8286 10.077
16.8438 10.043
16.8589 9.980
16.8741 10.114
16.8893 10.018
16.9045 9.787
16.9196 9.800
16.9348 9.925
16.9500 9.993
16.9652 9.888
16.9803 9.888
16.9955 9.936
17.0107 9.860
17.0259 9.898
17.0410 9.847
17.0562 10.174
17.0714 10.502
17.0866 10.746
17.1017 11.166
17.1169 11.059
17.1321 10.979
17.1473 11.276
17.1624 11.841
17.1776 12.658
17.1928 13.273
17.2080 13.919
17.2231 14.913
17.2383 16.445
17.2535 17.718
17.2687 18.646
17.2838 18.933
17.2990 18.101
17.3142 17.231
17.3294 16.550
17.3445 16.131
17.3597 16.026
17.3749 15.472
17.3901 14.946
17.4052 14.155
17.4204 12.981
17.4356 12.211
17.4508 11.769
17.4659 11.546
17.4811 11.381
17.4963 11.209
17.5115 10.871
17.5266 10.872
17.5418 10.918
17.5570 10.631
17.5722 10.509
17.5873 10.695
17.6025 10.752
17.6177 10.654
17.6329 10.777
17.6480 10.910
17.6632 10.963
17.6784 11.069
17.6936 11.173
17.7087 11.098
17.7239 10.944
17.7391 10.749
17.7543 10.827
17.7694 11.011
17.7846 10.852
17.7998 10.924
17.8150 11.113
17.8301 10.977
17.8453 10.811
17.8605 10.748
17.8757 10.694
17.8908 10.793
17.9060 10.801
17.9212 10.392
17.9364 10.340
17.9515 10.491
17.9667 10.431
17.9819 10.147
17.9971 10.104
18.0122 10.378
18.0274 10.252
18.0426 10.327
18.0578 10.479
18.0729 10.392
18.0881 10.222
18.1033 10.081
18.1185 9.985
18.1336 9.744
18.1488 9.873
18.1640 10.092
18.1792 10.084
18.1943 9.925
18.2095 9.812
18.2247 9.907
18.2399 9.866
18.2550 9.984
18.2702 10.050
18.2854 10.130
18.3006 9.955
18.3157 9.900
18.3309 9.811
18.3461 9.737
18.3613 9.731
18.3764 9.734
18.3916 9.743
18.4068 9.664
18.4220 9.500
18.4371 9.582
18.4523 9.757
18.4675 9.726
18.4827 9.797
18.4978 9.894
18.5130 9.689
18.5282 9.728
18.5434 9.777
18.5585 9.772
18.5737 9.777
18.5889 9.563
18.6041 9.685
18.6192 9.696
18.6344 9.799
18.6496 9.844
18.6648 9.862
18.6799 9.890
18.6951 9.792
18.7103 9.816
18.7255 9.668
18.7406 9.597
18.7558 9.807
18.7710 9.614
18.7862 9.686
18.8013 9.682
18.8165 9.532
18.8317 9.780
18.8469 10.005
18.8620 10.092
18.8772 10.283
18.8924 10.151
18.9076 9.994
18.9227 9.875
18.9379 9.909
18.9531 10.031
18.9683 10.006
18.9834 10.024
18.9986 9.875
19.0138 9.905
19.0290 10.146
19.0441 10.130
19.0593 10.127
19.0745 10.459
19.0897 10.582
19.1048 10.433
19.1200 10.412
19.1352 10.408
19.1504 10.458
19.1655 10.660
19.1807 10.537
19.1959 10.570
19.2111 10.846
19.2262 10.706
19.2414 10.624
19.2566 10.593
19.2718 10.678
19.2869 11.032
19.3021 11.094
19.3173 10.952
19.3325 11.050
19.3476 11.231
19.3628 11.034
19.3780 10.890
19.3932 11.082
19.4083 11.087
19.4235 11.125
19.4387 11.002
19.4539 11.193
19.4690 11.369
19.4842 11.034
19.4994 11.266
19.5146 11.506
19.5297 11.437
19.5449 11.483
19.5601 11.373
19.5753 11.411
19.5904 11.616
19.6056 11.784
19.6208 11.830
19.6360 11.657
19.6511 11.565
19.6663 11.511
19.6815 11.514
19.6967 11.670
19.7118 11.771
19.7270 11.897
19.7422 11.829
19.7574 11.522
19.7725 11.537
19.7877 11.739
19.8029 11.885
19.8180 12.270
19.8332 12.278
19.8484 12.147
19.8636 12.176
19.8787 12.479
19.8939 12.778
19.9091 12.985
19.9243 13.308
19.9394 13.832
19.9546 14.113
19.9698 14.150
19.9850 14.332
20.0001 14.253
20.0153 14.110
20.0305 14.046
20.0457 13.796
20.0608 13.588
20.0760 13.818
20.0912 13.734
20.1064 13.303
20.1215 13.188
20.1367 13.138
20.1519 12.907
20.1671 12.897
20.1822 12.943
20.1974 12.845
20.2126 12.715
20.2278 12.579
20.2429 12.361
20.2581 12.225
20.2733 12.002
20.2885 11.643
20.3036 11.728
20.3188 11.693
20.3340 11.870
20.3492 11.700
20.3643 11.544
20.3795 11.748
20.3947 11.509
20.4099 11.172
20.4250 11.338
20.4402 11.252
20.4554 10.971
20.4706 11.124
20.4857 11.122
20.5009 11.180
20.5161 11.146
20.5313 11.004
20.5464 10.809
20.5616 11.059
20.5768 11.157
20.5920 11.357
20.6071 11.171
20.6223 10.926
20.6375 10.673
20.6527 10.467
20.6678 10.598
20.6830 10.574
20.6982 10.486
20.7134 10.811
20.7285 10.547
20.7437 10.189
20.7589 10.387
20.7741 10.183
20.7892 10.421
20.8044 10.499
20.8196 10.413
20.8348 10.300
20.8499 10.502
20.8651 10.499
20.8803 10.314
20.8955 10.314
20.9106 10.333
20.9258 10.137
20.9410 10.414
20.9562 10.419
20.9713 10.449
20.9865 10.273
21.0017 10.369
21.0169 10.192
21.0320 10.190
21.0472 10.283
21.0624 10.128
21.0776 10.152
21.0927 9.979
21.1079 10.016
21.1231 9.889
21.1383 10.049
21.1534 9.976
21.1686 10.272
21.1838 9.861
21.1990 9.721
21.2141 9.892
21.2293 9.845
21.2445 9.369
21.2597 9.667
21.2748 9.583
21.2900 9.658
21.3052 9.361
21.3204 9.633
21.3355 9.475
21.3507 10.041
21.3659 9.494
21.3811 9.692
21.3962 9.528
21.4114 9.697
21.4266 9.476
21.4418 9.576
21.4569 9.372
21.4721 9.414
21.4873 9.249
21.5025 9.214
21.5176 9.599
21.5328 9.470
21.5480 9.168
21.5632 9.121
21.5783 9.176
21.5935 9.204
21.6087 9.302
21.6239 9.361
21.6390 9.275
21.6542 9.112
21.6694 9.230
21.6846 9.228
21.6997 9.174
21.7149 9.291
21.7301 9.180
21.7453 9.278
21.7604 9.250
21.7756 9.134
21.7908 9.002
21.8060 9.001
21.8211 9.125
21.8363 9.090
21.8515 8.904
21.8667 9.123
21.8818 9.214
21.8970 9.173
21.9122 8.946
21.9274 9.034
21.9425 9.232
21.9577 9.100
21.9729 9.154
21.9881 9.071
22.0032 9.012
22.0184 9.132
22.0336 9.005
22.0488 8.883
22.0639 8.783
22.0791 8.710
22.0943 8.723
22.1095 8.779
22.1246 8.830
22.1398 8.522
22.1550 8.466
22.1702 8.616
22.1853 8.702
22.2005 8.790
22.2157 8.845
22.2309 8.817
22.2460 8.694
22.2612 8.633
22.2764 8.788
22.2916 8.734
22.3067 8.742
22.3219 8.600
22.3371 8.426
22.3523 8.645
22.3674 8.511
22.3826 8.461
22.3978 8.254
22.4130 8.374
22.4281 8.347
22.4433 8.583
22.4585 8.586
22.4737 8.551
22.4888 8.339
22.5040 8.642
22.5192 8.421
22.5344 8.187
22.5495 8.585
22.5647 8.332
22.5799 8.452
22.5951 8.316
22.6102 8.435
22.6254 8.488
22.6406 8.569
22.6558 8.479
22.6709 8.364
22.6861 8.096
22.7013 8.157
22.7165 8.290
22.7316 6.392
