'Id: "" Comment: "" Operator: "Lab Manager" Anode: "Mo" Scantype: "Still (Eiger2R_500K (1D mode))" TimePerStep: "300" X: "11.8" Y: "9.4" Z: "11.284" 
7.2532 18.688
7.2684 18.368
7.2836 18.903
7.2987 18.714
7.3139 19.208
7.3291 18.664
7.3443 18.658
7.3594 19.217
7.3746 19.231
7.3898 19.613
7.4050 19.459
7.4201 19.481
7.4353 19.324
7.4505 19.132
7.4657 19.098
7.4808 19.400
7.4960 19.626
7.5112 19.918
7.5264 19.959
7.5415 19.957
7.5567 19.565
7.5719 19.730
7.5871 20.208
7.6022 20.039
7.6174 20.086
7.6326 19.895
7.6478 19.962
7.6629 20.106
7.6781 20.074
7.6933 20.182
7.7085 20.266
7.7236 20.375
7.7388 20.319
7.7540 20.073
7.7692 20.103
7.7843 20.234
7.7995 20.415
7.8147 20.623
7.8299 20.769
7.8450 20.725
7.8602 20.452
7.8754 20.487
7.8905 20.495
7.9057 20.511
7.9209 20.395
7.9361 20.694
7.9512 20.587
7.9664 20.788
7.9816 20.989
7.9968 21.001
8.0119 21.026
8.0271 20.961
8.0423 20.926
8.0575 20.938
8.0726 21.214
8.0878 21.152
8.1030 21.409
8.1182 21.272
8.1333 21.312
8.1485 21.318
8.1637 21.078
8.1789 21.169
8.1940 21.383
8.2092 21.005
8.2244 21.480
8.2396 21.705
8.2547 21.588
8.2699 21.868
8.2851 21.260
8.3003 21.189
8.3154 21.466
8.3306 21.522
8.3458 21.240
8.3610 21.539
8.3761 21.733
8.3913 21.905
8.4065 22.078
8.4217 21.744
8.4368 21.363
8.4520 21.758
8.4672 21.671
8.4824 21.981
8.4975 21.916
8.5127 21.870
8.5279 21.668
8.5431 22.183
8.5582 22.119
8.5734 22.064
8.5886 22.029
8.6038 21.624
8.6189 21.992
8.6341 22.146
8.6493 22.295
8.6645 22.373
8.6796 22.017
8.6948 22.047
8.7100 22.255
8.7252 22.157
8.7403 22.393
8.7555 22.585
8.7707 22.126
8.7859 22.134
8.8010 22.573
8.8162 22.099
8.8314 22.075
8.8466 22.761
8.8617 22.708
8.8769 22.232
8.8921 22.319
8.9073 22.164
8.9224 22.241
8.9376 22.398
8.9528 22.362
8.9680 22.116
8.9831 22.586
8.9983 22.643
9.0135 22.339
9.0287 22.826
9.0438 22.787
9.0590 22.563
9.0742 22.922
9.0894 22.399
9.1045 22.679
9.1197 22.534
9.1349 23.043
9.1501 23.012
9.1652 22.694
9.1804 23.124
9.1956 23.195
9.2108 22.451
9.2259 22.473
9.2411 22.894
9.2563 22.885
9.2715 23.051
9.2866 22.788
9.3018 22.462
9.3170 22.665
9.3322 22.709
9.3473 22.862
9.3625 23.012
9.3777 23.281
9.3929 23.006
9.4080 22.638
9.4232 22.852
9.4384 22.883
9.4536 22.727
9.4687 22.983
9.4839 22.919
9.4991 22.915
9.5143 22.951
9.5294 22.753
9.5446 22.759
9.5598 23.004
9.5750 23.184
9.5901 22.993
9.6053 23.043
9.6205 23.241
9.6357 23.379
9.6508 23.515
9.6660 23.385
9.6812 23.323
9.6964 24.103
9.7115 24.160
9.7267 23.746
9.7419 23.640
9.7571 23.603
9.7722 23.825
9.7874 23.870
9.8026 23.584
9.8178 23.276
9.8329 23.209
9.8481 23.232
9.8633 23.162
9.8785 23.191
9.8936 23.243
9.9088 23.056
9.9240 23.129
9.9392 23.261
9.9543 23.496
9.9695 23.479
9.9847 23.472
9.9999 23.317
10.0150 23.229
10.0302 23.408
10.0454 23.586
10.0606 23.296
10.0757 22.991
10.0909 22.801
10.1061 22.867
10.1213 23.163
10.1364 23.441
10.1516 23.310
10.1668 23.223
10.1820 22.926
10.1971 22.894
10.2123 22.944
10.2275 22.875
10.2427 23.051
10.2578 23.051
10.2730 22.808
10.2882 22.983
10.3034 23.007
10.3185 22.799
10.3337 22.747
10.3489 22.685
10.3641 22.793
10.3792 22.964
10.3944 23.028
10.4096 22.594
10.4248 22.918
10.4399 22.741
10.4551 22.431
10.4703 22.403
10.4855 22.669
10.5006 22.509
10.5158 22.560
10.5310 22.420
10.5462 22.481
10.5613 22.515
10.5765 22.631
10.5917 22.342
10.6069 22.304
10.6220 22.546
10.6372 22.874
10.6524 22.551
10.6676 22.485
10.6827 22.526
10.6979 22.245
10.7131 22.084
10.7283 22.028
10.7434 22.572
10.7586 22.553
10.7738 21.993
10.7890 22.349
10.8041 22.516
10.8193 22.218
10.8345 22.151
10.8497 22.408
10.8648 22.122
10.8800 22.300
10.8952 21.914
10.9104 21.712
10.9255 21.606
10.9407 21.798
10.9559 21.775
10.9711 21.638
10.9862 21.359
11.0014 21.647
11.0166 21.960
11.0318 21.819
11.0469 21.624
11.0621 21.421
11.0773 21.380
11.0925 21.749
11.1076 21.853
11.1228 21.929
11.1380 21.835
11.1532 21.514
11.1683 21.596
11.1835 21.439
11.1987 21.523
11.2139 21.592
11.2290 21.687
11.2442 21.834
11.2594 21.385
11.2746 21.275
11.2897 21.604
11.3049 21.571
11.3201 21.498
11.3353 20.954
11.3504 21.125
11.3656 20.921
11.3808 21.187
11.3960 21.072
11.4111 21.058
11.4263 21.263
11.4415 21.861
11.4567 21.614
11.4718 21.250
11.4870 21.082
11.5022 20.976
11.5174 21.162
11.5325 20.854
11.5477 21.078
11.5629 20.757
11.5781 21.012
11.5932 21.118
11.6084 21.127
11.6236 20.720
11.6388 20.608
11.6539 20.513
11.6691 20.322
11.6843 20.385
11.6995 20.200
11.7146 20.280
11.7298 20.317
11.7450 20.256
11.7602 20.517
11.7753 20.261
11.7905 20.024
11.8057 20.000
11.8209 20.169
11.8360 19.964
11.8512 19.990
11.8664 19.936
11.8816 19.420
11.8967 19.485
11.9119 19.450
11.9271 19.554
11.9423 19.559
11.9574 19.614
11.9726 19.509
11.9878 19.170
12.0030 19.140
12.0181 19.132
12.0333 18.878
12.0485 18.507
12.0637 18.984
12.0788 19.094
12.0940 18.848
12.1092 19.284
12.1244 18.913
12.1395 18.551
12.1547 18.140
12.1699 18.267
12.1851 18.465
12.2002 18.477
12.2154 18.057
12.2306 18.187
12.2458 18.222
12.2609 17.868
12.2761 17.908
12.2913 18.028
12.3065 17.826
12.3216 17.414
12.3368 17.441
12.3520 17.435
12.3672 17.504
12.3823 17.090
12.3975 17.000
12.4127 17.129
12.4279 16.765
12.4430 16.508
12.4582 16.610
12.4734 16.676
12.4886 16.695
12.5037 16.604
12.5189 16.810
12.5341 16.826
12.5493 16.529
12.5644 16.457
12.5796 16.213
12.5948 16.131
12.6100 16.077
12.6251 15.970
12.6403 16.032
12.6555 15.965
12.6707 15.935
12.6858 15.799
12.7010 15.826
12.7162 15.785
12.7314 15.672
12.7465 15.235
12.7617 15.277
12.7769 15.593
12.7921 15.378
12.8072 15.131
12.8224 15.171
12.8376 15.345
12.8528 15.311
12.8679 15.050
12.8831 14.977
12.8983 14.891
12.9135 14.621
12.9286 14.448
12.9438 14.486
12.9590 14.440
12.9742 14.310
12.9893 14.424
13.0045 14.444
13.0197 14.210
13.0349 14.338
13.0500 14.244
13.0652 14.012
13.0804 13.696
13.0956 13.504
13.1107 13.714
13.1259 13.944
13.1411 13.704
13.1563 13.499
13.1714 13.731
13.1866 13.676
13.2018 13.557
13.2170 13.547
13.2321 13.473
13.2473 13.412
13.2625 13.288
13.2777 13.067
13.2928 13.207
13.3080 13.278
13.3232 13.295
13.3384 13.192
13.3535 12.953
13.3687 13.042
13.3839 13.130
13.3991 13.130
13.4142 12.969
13.4294 12.837
13.4446 12.671
13.4598 12.602
13.4749 12.646
13.4901 12.642
13.5053 12.830
13.5205 12.444
13.5356 12.015
13.5508 12.343
13.5660 12.616
13.5812 12.463
13.5963 12.235
13.6115 12.248
13.6267 12.147
13.6419 12.248
13.6570 12.272
13.6722 12.344
13.6874 12.200
13.7026 11.999
13.7177 11.997
13.7329 12.011
13.7481 12.012
13.7633 12.205
13.7784 12.408
13.7936 12.109
13.8088 12.261
13.8239 12.277
13.8391 12.195
13.8543 12.348
13.8695 12.203
13.8846 12.415
13.8998 12.193
13.9150 12.282
13.9302 12.323
13.9453 12.100
13.9605 11.937
13.9757 11.628
13.9909 11.357
14.0060 11.725
14.0212 11.927
14.0364 11.970
14.0516 11.715
14.0667 11.488
14.0819 11.502
14.0971 11.454
14.1123 11.586
14.1274 11.848
14.1426 11.712
14.1578 11.562
14.1730 11.644
14.1881 11.911
14.2033 11.632
14.2185 11.703
14.2337 11.940
14.2488 11.786
14.2640 11.734
14.2792 11.946
14.2944 11.949
14.3095 11.960
14.3247 11.970
14.3399 12.239
14.3551 12.351
14.3702 12.586
14.3854 12.679
14.4006 12.761
14.4158 13.012
14.4309 12.959
14.4461 12.505
14.4613 12.425
14.4765 12.406
14.4916 12.268
14.5068 12.004
14.5220 11.721
14.5372 11.552
14.5523 11.207
14.5675 11.194
14.5827 10.956
14.5979 10.906
14.6130 10.812
14.6282 10.697
14.6434 10.978
14.6586 10.781
14.6737 10.925
14.6889 10.795
14.7041 10.587
14.7193 10.539
14.7344 10.765
14.7496 10.724
14.7648 11.101
14.7800 10.481
14.7951 10.487
14.8103 10.489
14.8255 10.646
14.8407 10.602
14.8558 10.529
14.8710 10.131
14.8862 10.618
14.9014 10.341
14.9165 10.567
14.9317 10.699
14.9469 10.358
14.9621 10.458
14.9772 10.281
14.9924 10.040
15.0076 10.405
15.0228 10.496
15.0379 10.198
15.0531 10.381
15.0683 10.567
15.0835 10.331
15.0986 10.105
15.1138 10.229
15.1290 10.231
15.1442 9.954
15.1593 10.135
15.1745 9.715
15.1897 10.229
15.2049 10.249
15.2200 10.320
15.2352 9.947
15.2504 10.044
15.2656 10.067
15.2807 9.981
15.2959 10.347
15.3111 9.882
15.3263 10.143
15.3414 10.175
15.3566 10.137
15.3718 10.106
15.3870 9.801
15.4021 10.182
15.4173 10.246
15.4325 10.109
15.4477 10.126
15.4628 9.930
15.4780 10.167
15.4932 9.965
15.5084 10.178
15.5235 10.019
15.5387 10.159
15.5539 10.150
15.5691 10.213
15.5842 9.885
15.5994 9.856
15.6146 9.900
15.6298 9.760
15.6449 9.864
15.6601 9.783
15.6753 9.632
15.6905 9.966
15.7056 9.701
15.7208 9.713
15.7360 10.044
15.7512 9.806
15.7663 9.993
15.7815 9.865
15.7967 9.575
15.8119 9.600
15.8270 9.864
15.8422 9.704
15.8574 9.661
15.8726 9.305
15.8877 9.459
15.9029 9.291
15.9181 9.542
15.9333 9.482
15.9484 9.393
15.9636 9.230
15.9788 9.478
15.9940 9.710
16.0091 9.861
16.0243 9.598
16.0395 9.730
16.0547 9.598
16.0698 9.695
16.0850 9.464
16.1002 9.573
16.1154 9.388
16.1305 9.437
16.1457 9.795
16.1609 9.547
16.1761 9.593
16.1912 9.497
16.2064 9.802
16.2216 9.867
16.2368 9.641
16.2519 9.922
16.2671 9.788
16.2823 9.645
16.2975 9.623
16.3126 9.882
16.3278 9.829
16.3430 9.848
16.3582 9.627
16.3733 9.647
16.3885 9.922
16.4037 10.025
16.4189 9.926
16.4340 9.710
16.4492 9.768
16.4644 9.820
16.4796 9.721
16.4947 9.684
16.5099 9.572
16.5251 9.469
16.5403 9.395
16.5554 9.451
16.5706 9.561
16.5858 9.517
16.6010 9.679
16.6161 9.591
16.6313 9.559
16.6465 9.714
16.6617 9.843
16.6768 9.821
16.6920 9.921
16.7072 9.959
16.7224 9.840
16.7375 10.056
16.7527 9.954
16.7679 9.957
16.7831 9.975
16.7982 9.876
16.8134 9.970
16.8286 9.981
16.8438 9.963
16.8589 9.974
16.8741 10.038
16.8893 9.926
16.9045 10.014
16.9196 9.870
16.9348 9.480
16.9500 9.563
16.9652 9.993
16.9803 9.954
16.9955 9.934
17.0107 9.794
17.0259 9.843
17.0410 9.865
17.0562 9.896
17.0714 10.037
17.0866 10.069
17.1017 10.332
17.1169 10.540
17.1321 10.871
17.1473 11.414
17.1624 11.485
17.1776 12.072
17.1928 13.193
17.2080 13.857
17.2231 14.859
17.2383 16.220
17.2535 17.445
17.2687 18.407
17.2838 18.840
17.2990 18.099
17.3142 17.163
17.3294 16.948
17.3445 16.241
17.3597 16.014
17.3749 16.264
17.3901 15.778
17.4052 14.667
17.4204 13.488
17.4356 12.749
17.4508 12.288
17.4659 11.943
17.4811 11.797
17.4963 11.682
17.5115 11.184
17.5266 11.090
17.5418 10.921
17.5570 10.803
17.5722 10.887
17.5873 10.743
17.6025 10.911
17.6177 10.896
17.6329 11.084
17.6480 11.470
17.6632 11.500
17.6784 11.518
17.6936 11.656
17.7087 11.351
17.7239 11.189
17.7391 11.357
17.7543 11.153
17.7694 10.892
17.7846 11.032
17.7998 10.972
17.8150 10.788
17.8301 10.569
17.8453 10.218
17.8605 10.312
17.8757 10.570
17.8908 10.445
17.9060 10.294
17.9212 10.346
17.9364 10.401
17.9515 10.159
17.9667 10.038
17.9819 10.081
17.9971 10.233
18.0122 10.235
18.0274 10.106
18.0426 10.134
18.0578 10.091
18.0729 9.905
18.0881 9.959
18.1033 10.057
18.1185 10.053
18.1336 10.135
18.1488 10.061
18.1640 10.117
18.1792 9.948
18.1943 9.667
18.2095 9.812
18.2247 10.070
18.2399 10.082
18.2550 10.050
18.2702 9.930
18.2854 9.978
18.3006 9.979
18.3157 9.802
18.3309 10.027
18.3461 9.956
18.3613 9.931
18.3764 9.792
18.3916 9.518
18.4068 9.822
18.4220 9.911
18.4371 9.858
18.4523 9.645
18.4675 9.548
18.4827 9.484
18.4978 9.598
18.5130 9.708
18.5282 9.732
18.5434 9.837
18.5585 9.935
18.5737 9.897
18.5889 9.808
18.6041 9.592
18.6192 9.666
18.6344 9.824
18.6496 9.679
18.6648 9.855
18.6799 9.872
18.6951 9.804
18.7103 9.863
18.7255 9.853
18.7406 9.521
18.7558 9.866
18.7710 9.703
18.7862 9.886
18.8013 9.845
18.8165 9.776
18.8317 9.857
18.8469 9.919
18.8620 9.918
18.8772 10.019
18.8924 9.941
18.9076 9.907
18.9227 9.944
18.9379 10.147
18.9531 10.098
18.9683 10.040
18.9834 10.091
18.9986 9.957
19.0138 10.039
19.0290 10.095
19.0441 10.022
19.0593 10.114
19.0745 10.312
19.0897 10.378
19.1048 10.376
19.1200 10.305
19.1352 10.381
19.1504 10.648
19.1655 10.652
19.1807 10.550
19.1959 10.560
19.2111 10.636
19.2262 10.642
19.2414 10.725
19.2566 10.829
19.2718 10.629
19.2869 10.772
19.3021 10.866
19.3173 10.966
19.3325 11.088
19.3476 11.034
19.3628 10.997
19.3780 11.194
19.3932 11.316
19.4083 11.181
19.4235 11.236
19.4387 11.379
19.4539 11.363
19.4690 11.289
19.4842 11.443
19.4994 11.433
19.5146 11.455
19.5297 11.519
19.5449 11.293
19.5601 11.401
19.5753 11.679
19.5904 11.766
19.6056 11.743
19.6208 11.679
19.6360 11.696
19.6511 11.670
19.6663 11.901
19.6815 11.812
19.6967 11.459
19.7118 11.711
19.7270 11.712
19.7422 11.661
19.7574 11.770
19.7725 11.678
19.7877 11.756
19.8029 11.816
19.8180 12.065
19.8332 12.084
19.8484 12.192
19.8636 12.615
19.8787 12.682
19.8939 12.761
19.9091 13.205
19.9243 13.533
19.9394 13.644
19.9546 13.808
19.9698 14.374
19.9850 14.647
20.0001 14.396
20.0153 14.148
20.0305 13.795
20.0457 13.568
20.0608 13.877
20.0760 13.838
20.0912 13.587
20.1064 14.082
20.1215 13.815
20.1367 13.273
20.1519 13.200
20.1671 12.932
20.1822 12.702
20.1974 12.894
20.2126 13.122
20.2278 13.160
20.2429 12.968
20.2581 12.390
20.2733 12.236
20.2885 12.214
20.3036 12.164
20.3188 12.143
20.3340 12.195
20.3492 12.252
20.3643 11.900
20.3795 11.931
20.3947 11.757
20.4099 11.865
20.4250 11.803
20.4402 11.951
20.4554 11.949
20.4706 12.081
20.4857 11.561
20.5009 11.855
20.5161 11.706
20.5313 11.305
20.5464 11.308
20.5616 11.495
20.5768 11.258
20.5920 10.991
20.6071 11.082
20.6223 10.954
20.6375 10.902
20.6527 10.841
20.6678 10.770
20.6830 10.885
20.6982 10.299
20.7134 10.338
20.7285 10.776
20.7437 10.496
20.7589 10.407
20.7741 10.448
20.7892 10.346
20.8044 10.293
20.8196 10.268
20.8348 10.148
20.8499 10.283
20.8651 10.379
20.8803 10.088
20.8955 10.433
20.9106 10.149
20.9258 10.301
20.9410 10.218
20.9562 9.961
20.9713 10.217
20.9865 10.103
21.0017 9.889
21.0169 10.061
21.0320 10.496
21.0472 9.889
21.0624 9.917
21.0776 9.822
21.0927 10.069
21.1079 9.770
21.1231 9.729
21.1383 9.547
21.1534 9.646
21.1686 9.868
21.1838 9.707
21.1990 9.468
21.2141 9.699
21.2293 9.904
21.2445 9.871
21.2597 9.385
21.2748 9.452
21.2900 9.626
21.3052 9.823
21.3204 9.533
21.3355 9.677
21.3507 9.704
21.3659 9.639
21.3811 9.585
21.3962 9.483
21.4114 9.034
21.4266 9.169
21.4418 9.564
21.4569 9.455
21.4721 9.460
21.4873 9.331
21.5025 8.952
21.5176 9.301
21.5328 9.491
21.5480 9.340
21.5632 9.269
21.5783 9.358
21.5935 9.367
21.6087 9.177
21.6239 9.334
21.6390 9.308
21.6542 9.116
21.6694 9.195
21.6846 9.100
21.6997 9.051
21.7149 9.139
21.7301 9.029
21.7453 9.158
21.7604 9.095
21.7756 8.912
21.7908 8.887
21.8060 8.983
21.8211 8.980
21.8363 9.170
21.8515 9.205
21.8667 9.193
21.8818 9.236
21.8970 9.067
21.9122 8.877
21.9274 8.908
21.9425 9.036
21.9577 9.022
21.9729 9.105
21.9881 8.938
22.0032 8.644
22.0184 8.748
22.0336 8.912
22.0488 8.855
22.0639 8.696
22.0791 8.603
22.0943 8.747
22.1095 8.805
22.1246 8.850
22.1398 8.558
22.1550 8.511
22.1702 8.493
22.1853 8.393
22.2005 8.490
22.2157 8.333
22.2309 8.189
22.2460 8.406
22.2612 8.753
22.2764 8.457
22.2916 8.313
22.3067 8.449
22.3219 8.641
22.3371 8.314
22.3523 8.262
22.3674 8.355
22.3826 8.345
22.3978 8.233
22.4130 8.351
22.4281 8.167
22.4433 8.608
22.4585 8.603
22.4737 8.470
22.4888 8.416
22.5040 8.475
22.5192 8.652
22.5344 8.526
22.5495 8.385
22.5647 8.622
22.5799 8.600
22.5951 8.494
22.6102 8.425
22.6254 8.445
22.6406 8.304
22.6558 8.609
22.6709 8.041
22.6861 8.287
22.7013 8.214
22.7165 7.810
22.7316 6.402
