'Id: "" Comment: "" Operator: "Lab Manager" Anode: "Mo" Scantype: "Still (Eiger2R_500K (1D mode))" TimePerStep: "300" X: "11.8" Y: "9.4" Z: "11.284" 
7.2532 18.855
7.2684 18.514
7.2836 18.377
7.2987 19.173
7.3139 18.970
7.3291 18.487
7.3443 19.363
7.3594 18.981
7.3746 19.034
7.3898 18.930
7.4050 19.112
7.4201 19.362
7.4353 19.387
7.4505 19.167
7.4657 19.341
7.4808 19.676
7.4960 19.093
7.5112 19.699
7.5264 20.013
7.5415 19.866
7.5567 19.625
7.5719 20.008
7.5871 20.113
7.6022 20.111
7.6174 20.160
7.6326 20.062
7.6478 20.303
7.6629 20.056
7.6781 20.089
7.6933 20.167
7.7085 20.199
7.7236 20.160
7.7388 20.336
7.7540 20.027
7.7692 20.229
7.7843 20.484
7.7995 20.731
7.8147 20.789
7.8299 20.495
7.8450 20.388
7.8602 20.486
7.8754 20.493
7.8905 20.664
7.9057 20.601
7.9209 20.391
7.9361 20.528
7.9512 20.566
7.9664 20.863
7.9816 20.915
7.9968 20.969
8.0119 21.013
8.0271 20.705
8.0423 20.821
8.0575 21.165
8.0726 21.326
8.0878 21.233
8.1030 21.216
8.1182 20.870
8.1333 21.035
8.1485 21.140
8.1637 20.846
8.1789 20.736
8.1940 21.122
8.2092 21.984
8.2244 21.056
8.2396 21.443
8.2547 21.955
8.2699 21.181
8.2851 21.286
8.3003 21.697
8.3154 21.684
8.3306 21.525
8.3458 21.013
8.3610 21.963
8.3761 21.929
8.3913 21.645
8.4065 21.965
8.4217 21.438
8.4368 21.669
8.4520 21.895
8.4672 21.942
8.4824 22.406
8.4975 22.143
8.5127 21.637
8.5279 22.261
8.5431 21.486
8.5582 22.026
8.5734 22.033
8.5886 21.857
8.6038 22.034
8.6189 22.002
8.6341 22.044
8.6493 22.376
8.6645 22.227
8.6796 22.153
8.6948 22.185
8.7100 22.141
8.7252 22.181
8.7403 22.380
8.7555 22.606
8.7707 22.366
8.7859 22.397
8.8010 21.987
8.8162 21.859
8.8314 22.350
8.8466 22.443
8.8617 22.347
8.8769 22.251
8.8921 22.286
8.9073 22.202
8.9224 22.765
8.9376 22.769
8.9528 22.042
8.9680 22.319
8.9831 22.418
8.9983 22.433
9.0135 22.911
9.0287 22.663
9.0438 22.527
9.0590 22.772
9.0742 22.751
9.0894 22.401
9.1045 22.247
9.1197 22.692
9.1349 22.317
9.1501 23.113
9.1652 22.717
9.1804 22.498
9.1956 22.650
9.2108 22.578
9.2259 22.616
9.2411 22.675
9.2563 22.965
9.2715 23.157
9.2866 23.043
9.3018 22.831
9.3170 22.755
9.3322 22.725
9.3473 22.767
9.3625 23.036
9.3777 22.921
9.3929 22.828
9.4080 22.990
9.4232 23.091
9.4384 23.045
9.4536 22.887
9.4687 22.866
9.4839 23.277
9.4991 23.321
9.5143 23.139
9.5294 23.068
9.5446 22.964
9.5598 23.084
9.5750 23.103
9.5901 23.124
9.6053 23.211
9.6205 23.187
9.6357 23.308
9.6508 23.366
9.6660 23.464
9.6812 23.424
9.6964 23.533
9.7115 23.899
9.7267 24.109
9.7419 23.907
9.7571 23.638
9.7722 24.107
9.7874 24.081
9.8026 23.495
9.8178 23.517
9.8329 23.663
9.8481 23.626
9.8633 23.499
9.8785 23.219
9.8936 23.070
9.9088 22.964
9.9240 23.132
9.9392 23.260
9.9543 23.169
9.9695 23.134
9.9847 23.208
9.9999 23.243
10.0150 22.877
10.0302 23.170
10.0454 23.304
10.0606 22.903
10.0757 22.922
10.0909 23.149
10.1061 22.990
10.1213 23.052
10.1364 23.193
10.1516 23.299
10.1668 23.142
10.1820 23.421
10.1971 23.344
10.2123 23.242
10.2275 23.500
10.2427 23.215
10.2578 22.795
10.2730 23.108
10.2882 22.676
10.3034 22.345
10.3185 22.796
10.3337 23.272
10.3489 22.755
10.3641 22.493
10.3792 22.737
10.3944 22.806
10.4096 22.640
10.4248 22.777
10.4399 23.107
10.4551 22.797
10.4703 22.669
10.4855 22.944
10.5006 22.435
10.5158 22.474
10.5310 22.619
10.5462 22.631
10.5613 22.318
10.5765 22.160
10.5917 22.146
10.6069 22.531
10.6220 22.395
10.6372 22.369
10.6524 22.406
10.6676 22.626
10.6827 22.595
10.6979 22.608
10.7131 22.667
10.7283 22.725
10.7434 22.330
10.7586 22.296
10.7738 22.247
10.7890 22.165
10.8041 22.015
10.8193 22.236
10.8345 22.298
10.8497 22.412
10.8648 22.529
10.8800 22.330
10.8952 22.216
10.9104 22.111
10.9255 21.858
10.9407 21.831
10.9559 22.106
10.9711 22.184
10.9862 21.936
11.0014 21.869
11.0166 22.154
11.0318 22.279
11.0469 21.918
11.0621 21.779
11.0773 22.091
11.0925 22.136
11.1076 21.880
11.1228 21.770
11.1380 22.059
11.1532 21.862
11.1683 21.772
11.1835 21.265
11.1987 21.408
11.2139 21.711
11.2290 21.580
11.2442 21.653
11.2594 21.910
11.2746 21.875
11.2897 21.561
11.3049 21.523
11.3201 21.520
11.3353 21.437
11.3504 21.455
11.3656 21.470
11.3808 21.407
11.3960 21.353
11.4111 21.301
11.4263 21.367
11.4415 21.442
11.4567 21.349
11.4718 21.267
11.4870 21.258
11.5022 21.221
11.5174 21.316
11.5325 20.846
11.5477 21.031
11.5629 20.881
11.5781 20.937
11.5932 20.830
11.6084 20.848
11.6236 20.889
11.6388 20.831
11.6539 20.543
11.6691 20.545
11.6843 20.494
11.6995 20.405
11.7146 20.295
11.7298 20.293
11.7450 20.104
11.7602 20.502
11.7753 20.320
11.7905 19.964
11.8057 20.294
11.8209 20.112
11.8360 20.193
11.8512 19.885
11.8664 19.921
11.8816 20.045
11.8967 19.830
11.9119 19.597
11.9271 19.574
11.9423 19.712
11.9574 19.485
11.9726 19.616
11.9878 19.299
12.0030 19.387
12.0181 19.177
12.0333 19.174
12.0485 19.093
12.0637 19.168
12.0788 19.010
12.0940 19.135
12.1092 19.000
12.1244 18.929
12.1395 18.604
12.1547 18.855
12.1699 18.793
12.1851 18.658
12.2002 18.486
12.2154 17.906
12.2306 17.951
12.2458 17.927
12.2609 17.841
12.2761 17.672
12.2913 17.696
12.3065 17.703
12.3216 17.651
12.3368 17.481
12.3520 17.486
12.3672 17.353
12.3823 16.981
12.3975 16.813
12.4127 17.177
12.4279 17.112
12.4430 16.990
12.4582 16.872
12.4734 17.001
12.4886 16.850
12.5037 16.739
12.5189 16.503
12.5341 16.558
12.5493 16.570
12.5644 16.217
12.5796 16.068
12.5948 16.276
12.6100 16.071
12.6251 15.732
12.6403 15.767
12.6555 15.815
12.6707 15.741
12.6858 15.740
12.7010 15.773
12.7162 15.460
12.7314 15.358
12.7465 15.391
12.7617 15.271
12.7769 15.377
12.7921 15.348
12.8072 15.270
12.8224 15.131
12.8376 14.981
12.8528 14.619
12.8679 14.698
12.8831 15.086
12.8983 15.035
12.9135 14.693
12.9286 14.473
12.9438 14.396
12.9590 14.365
12.9742 14.569
12.9893 14.339
13.0045 14.096
13.0197 14.048
13.0349 14.000
13.0500 13.827
13.0652 14.007
13.0804 14.146
13.0956 13.879
13.1107 13.715
13.1259 13.739
13.1411 13.828
13.1563 13.718
13.1714 13.492
13.1866 13.599
13.2018 13.546
13.2170 13.471
13.2321 13.675
13.2473 13.621
13.2625 13.663
13.2777 13.571
13.2928 13.413
13.3080 13.262
13.3232 13.150
13.3384 13.092
13.3535 13.130
13.3687 13.064
13.3839 12.902
13.3991 13.051
13.4142 13.055
13.4294 12.656
13.4446 12.682
13.4598 12.829
13.4749 12.901
13.4901 12.825
13.5053 12.506
13.5205 12.399
13.5356 12.452
13.5508 12.650
13.5660 12.275
13.5812 12.212
13.5963 12.326
13.6115 12.225
13.6267 12.491
13.6419 12.426
13.6570 12.218
13.6722 11.973
13.6874 11.877
13.7026 11.936
13.7177 12.074
13.7329 12.218
13.7481 12.111
13.7633 12.025
13.7784 12.256
13.7936 12.245
13.8088 12.354
13.8239 12.472
13.8391 12.158
13.8543 12.106
13.8695 12.279
13.8846 12.262
13.8998 12.139
13.9150 12.032
13.9302 12.052
13.9453 12.270
13.9605 12.151
13.9757 11.703
13.9909 11.754
14.0060 11.862
14.0212 11.784
14.0364 11.736
14.0516 11.956
14.0667 11.806
14.0819 11.587
14.0971 11.837
14.1123 11.667
14.1274 11.720
14.1426 11.803
14.1578 11.307
14.1730 11.394
14.1881 11.657
14.2033 11.756
14.2185 11.461
14.2337 11.710
14.2488 11.781
14.2640 11.780
14.2792 11.674
14.2944 11.943
14.3095 12.433
14.3247 12.253
14.3399 12.268
14.3551 12.463
14.3702 12.670
14.3854 13.075
14.4006 12.840
14.4158 13.036
14.4309 12.790
14.4461 12.725
14.4613 12.705
14.4765 12.632
14.4916 12.253
14.5068 11.940
14.5220 11.885
14.5372 11.433
14.5523 11.097
14.5675 11.068
14.5827 11.033
14.5979 11.105
14.6130 10.723
14.6282 10.872
14.6434 10.988
14.6586 10.895
14.6737 10.671
14.6889 10.722
14.7041 10.584
14.7193 10.490
14.7344 10.576
14.7496 10.621
14.7648 10.697
14.7800 10.407
14.7951 10.631
14.8103 10.355
14.8255 10.374
14.8407 10.816
14.8558 10.594
14.8710 10.477
14.8862 10.501
14.9014 10.648
14.9165 10.966
14.9317 10.859
14.9469 10.427
14.9621 10.487
14.9772 10.419
14.9924 10.562
15.0076 10.429
15.0228 10.036
15.0379 10.251
15.0531 10.434
15.0683 10.159
15.0835 10.368
15.0986 10.522
15.1138 10.212
15.1290 10.380
15.1442 10.081
15.1593 10.006
15.1745 10.167
15.1897 10.153
15.2049 10.054
15.2200 10.023
15.2352 10.230
15.2504 10.064
15.2656 10.277
15.2807 10.081
15.2959 10.271
15.3111 10.508
15.3263 9.932
15.3414 9.933
15.3566 9.942
15.3718 10.389
15.3870 9.881
15.4021 9.886
15.4173 9.965
15.4325 10.011
15.4477 9.828
15.4628 10.439
15.4780 10.009
15.4932 10.150
15.5084 10.149
15.5235 9.745
15.5387 9.860
15.5539 9.936
15.5691 9.974
15.5842 9.742
15.5994 9.957
15.6146 9.832
15.6298 9.765
15.6449 9.562
15.6601 9.543
15.6753 9.685
15.6905 9.497
15.7056 9.705
15.7208 9.661
15.7360 9.463
15.7512 9.485
15.7663 9.707
15.7815 9.821
15.7967 9.611
15.8119 9.706
15.8270 10.035
15.8422 9.883
15.8574 9.640
15.8726 9.505
15.8877 9.652
15.9029 9.380
15.9181 9.453
15.9333 9.573
15.9484 9.516
15.9636 9.623
15.9788 9.816
15.9940 10.020
16.0091 9.837
16.0243 9.688
16.0395 10.126
16.0547 9.615
16.0698 9.245
16.0850 9.486
16.1002 9.437
16.1154 9.678
16.1305 9.705
16.1457 9.541
16.1609 9.570
16.1761 9.589
16.1912 9.438
16.2064 9.588
16.2216 9.704
16.2368 9.930
16.2519 9.892
16.2671 9.900
16.2823 9.856
16.2975 10.125
16.3126 9.972
16.3278 9.730
16.3430 9.737
16.3582 9.815
16.3733 9.795
16.3885 9.828
16.4037 9.773
16.4189 9.695
16.4340 9.621
16.4492 9.444
16.4644 9.525
16.4796 9.507
16.4947 9.569
16.5099 9.540
16.5251 9.744
16.5403 9.508
16.5554 9.317
16.5706 9.525
16.5858 9.539
16.6010 9.427
16.6161 9.623
16.6313 9.522
16.6465 9.518
16.6617 9.623
16.6768 9.653
16.6920 9.900
16.7072 9.947
16.7224 9.886
16.7375 9.878
16.7527 9.853
16.7679 9.788
16.7831 9.913
16.7982 9.967
16.8134 9.916
16.8286 9.756
16.8438 9.681
16.8589 9.726
16.8741 9.831
16.8893 9.861
16.9045 9.654
16.9196 9.682
16.9348 9.692
16.9500 9.657
16.9652 9.786
16.9803 9.618
16.9955 9.771
17.0107 9.793
17.0259 9.752
17.0410 9.790
17.0562 9.879
17.0714 10.209
17.0866 10.468
17.1017 10.446
17.1169 10.726
17.1321 11.040
17.1473 11.317
17.1624 11.671
17.1776 12.214
17.1928 13.122
17.2080 14.128
17.2231 15.056
17.2383 16.147
17.2535 17.548
17.2687 18.585
17.2838 18.777
17.2990 18.007
17.3142 17.009
17.3294 16.480
17.3445 16.227
17.3597 16.056
17.3749 15.988
17.3901 15.295
17.4052 14.308
17.4204 13.445
17.4356 12.612
17.4508 12.165
17.4659 11.908
17.4811 11.662
17.4963 11.501
17.5115 11.397
17.5266 11.080
17.5418 10.942
17.5570 10.952
17.5722 10.973
17.5873 11.138
17.6025 11.191
17.6177 11.081
17.6329 11.185
17.6480 11.276
17.6632 11.123
17.6784 11.201
17.6936 11.420
17.7087 11.219
17.7239 11.203
17.7391 11.192
17.7543 11.148
17.7694 11.219
17.7846 10.959
17.7998 10.846
17.8150 10.846
17.8301 10.615
17.8453 10.407
17.8605 10.328
17.8757 10.234
17.8908 10.333
17.9060 10.295
17.9212 10.074
17.9364 9.989
17.9515 10.303
17.9667 10.158
17.9819 10.127
17.9971 10.449
18.0122 10.402
18.0274 10.250
18.0426 10.133
18.0578 10.200
18.0729 10.152
18.0881 10.088
18.1033 9.892
18.1185 10.088
18.1336 10.282
18.1488 10.177
18.1640 10.005
18.1792 10.022
18.1943 9.959
18.2095 9.799
18.2247 9.858
18.2399 9.980
18.2550 9.881
18.2702 9.701
18.2854 9.802
18.3006 9.968
18.3157 9.941
18.3309 9.815
18.3461 9.940
18.3613 9.926
18.3764 9.736
18.3916 9.784
18.4068 9.823
18.4220 9.691
18.4371 9.534
18.4523 9.776
18.4675 9.734
18.4827 9.728
18.4978 9.563
18.5130 9.751
18.5282 9.913
18.5434 9.907
18.5585 9.999
18.5737 10.089
18.5889 9.962
18.6041 9.633
18.6192 9.501
18.6344 9.775
18.6496 9.745
18.6648 9.698
18.6799 9.878
18.6951 9.847
18.7103 9.782
18.7255 9.972
18.7406 9.895
18.7558 9.989
18.7710 9.929
18.7862 10.044
18.8013 10.055
18.8165 9.658
18.8317 9.767
18.8469 9.755
18.8620 9.891
18.8772 10.215
18.8924 9.946
18.9076 9.759
18.9227 10.063
18.9379 9.993
18.9531 9.815
18.9683 9.669
18.9834 9.854
18.9986 10.032
19.0138 10.188
19.0290 10.294
19.0441 9.935
19.0593 10.139
19.0745 10.393
19.0897 10.388
19.1048 10.332
19.1200 10.407
19.1352 10.577
19.1504 10.561
19.1655 10.534
19.1807 10.574
19.1959 10.586
19.2111 10.502
19.2262 10.619
19.2414 10.808
19.2566 10.946
19.2718 10.907
19.2869 10.766
19.3021 11.063
19.3173 11.163
19.3325 10.953
19.3476 11.136
19.3628 11.193
19.3780 11.209
19.3932 11.170
19.4083 11.211
19.4235 11.334
19.4387 11.284
19.4539 11.274
19.4690 11.276
19.4842 11.456
19.4994 11.500
19.5146 11.416
19.5297 11.450
19.5449 11.583
19.5601 11.894
19.5753 11.851
19.5904 11.706
19.6056 11.646
19.6208 11.891
19.6360 11.879
19.6511 11.758
19.6663 11.880
19.6815 12.054
19.6967 11.959
19.7118 11.764
19.7270 11.806
19.7422 11.792
19.7574 12.032
19.7725 12.236
19.7877 11.839
19.8029 11.928
19.8180 12.217
19.8332 12.210
19.8484 12.411
19.8636 12.455
19.8787 12.588
19.8939 13.131
19.9091 13.296
19.9243 13.694
19.9394 14.356
19.9546 14.343
19.9698 14.279
19.9850 14.415
20.0001 14.472
20.0153 14.461
20.0305 14.110
20.0457 14.001
20.0608 14.144
20.0760 14.222
20.0912 14.192
20.1064 13.844
20.1215 13.765
20.1367 13.439
20.1519 13.262
20.1671 12.976
20.1822 13.018
20.1974 12.893
20.2126 12.971
20.2278 13.188
20.2429 12.837
20.2581 12.268
20.2733 12.006
20.2885 12.144
20.3036 12.038
20.3188 12.020
20.3340 12.082
20.3492 12.210
20.3643 12.160
20.3795 11.633
20.3947 11.664
20.4099 11.735
20.4250 12.025
20.4402 11.951
20.4554 11.804
20.4706 11.647
20.4857 11.440
20.5009 11.582
20.5161 11.367
20.5313 11.322
20.5464 11.328
20.5616 11.355
20.5768 11.385
20.5920 11.297
20.6071 11.259
20.6223 11.204
20.6375 10.808
20.6527 10.505
20.6678 10.686
20.6830 10.962
20.6982 10.714
20.7134 10.665
20.7285 10.823
20.7437 10.411
20.7589 10.450
20.7741 10.530
20.7892 10.601
20.8044 10.470
20.8196 10.219
20.8348 10.277
20.8499 10.699
20.8651 10.301
20.8803 10.368
20.8955 10.230
20.9106 10.089
20.9258 10.008
20.9410 9.845
20.9562 10.218
20.9713 10.217
20.9865 10.552
21.0017 10.202
21.0169 10.410
21.0320 10.371
21.0472 10.199
21.0624 10.041
21.0776 9.958
21.0927 9.779
21.1079 9.483
21.1231 9.768
21.1383 9.625
21.1534 9.862
21.1686 9.968
21.1838 10.208
21.1990 9.907
21.2141 9.738
21.2293 10.011
21.2445 9.917
21.2597 10.078
21.2748 9.611
21.2900 9.714
21.3052 9.890
21.3204 9.977
21.3355 9.864
21.3507 9.651
21.3659 9.575
21.3811 9.818
21.3962 9.803
21.4114 9.482
21.4266 9.561
21.4418 9.538
21.4569 9.560
21.4721 9.410
21.4873 9.367
21.5025 8.851
21.5176 9.279
21.5328 9.609
21.5480 9.530
21.5632 9.462
21.5783 9.377
21.5935 9.202
21.6087 9.108
21.6239 9.174
21.6390 9.288
21.6542 9.244
21.6694 9.303
21.6846 9.250
21.6997 9.064
21.7149 9.082
21.7301 9.010
21.7453 8.869
21.7604 9.003
21.7756 8.976
21.7908 9.041
21.8060 9.184
21.8211 9.313
21.8363 9.188
21.8515 8.795
21.8667 8.959
21.8818 9.066
21.8970 9.110
21.9122 9.005
21.9274 8.884
21.9425 8.866
21.9577 8.812
21.9729 8.692
21.9881 8.852
22.0032 8.855
22.0184 8.811
22.0336 8.950
22.0488 8.813
22.0639 8.785
22.0791 8.756
22.0943 8.810
22.1095 8.826
22.1246 8.751
22.1398 8.830
22.1550 8.818
22.1702 8.567
22.1853 8.677
22.2005 8.582
22.2157 8.671
22.2309 8.495
22.2460 8.433
22.2612 8.646
22.2764 8.434
22.2916 8.566
22.3067 8.594
22.3219 8.606
22.3371 8.549
22.3523 8.473
22.3674 8.430
22.3826 8.418
22.3978 8.505
22.4130 8.570
22.4281 8.756
22.4433 8.751
22.4585 8.555
22.4737 8.678
22.4888 8.385
22.5040 8.521
22.5192 8.457
22.5344 8.479
22.5495 8.424
22.5647 8.589
22.5799 8.429
22.5951 8.583
22.6102 8.559
22.6254 8.545
22.6406 8.708
22.6558 8.391
22.6709 8.449
22.6861 8.188
22.7013 8.493
22.7165 8.130
22.7316 6.438
