'Id: "" Comment: "" Operator: "Lab Manager" Anode: "Mo" Scantype: "Still (Eiger2R_500K (1D mode))" TimePerStep: "300" X: "11.8" Y: "9.4" Z: "11.284" 
7.2532 19.204
7.2684 18.320
7.2836 18.813
7.2987 18.757
7.3139 19.291
7.3291 18.553
7.3443 19.143
7.3594 18.762
7.3746 19.056
7.3898 19.135
7.4050 19.179
7.4201 19.191
7.4353 19.672
7.4505 19.308
7.4657 18.875
7.4808 19.259
7.4960 19.610
7.5112 19.868
7.5264 19.677
7.5415 19.606
7.5567 19.498
7.5719 19.646
7.5871 19.992
7.6022 19.726
7.6174 20.042
7.6326 20.109
7.6478 19.819
7.6629 19.659
7.6781 20.188
7.6933 20.113
7.7085 20.143
7.7236 20.271
7.7388 20.483
7.7540 20.233
7.7692 19.994
7.7843 20.167
7.7995 20.202
7.8147 20.189
7.8299 20.336
7.8450 20.483
7.8602 20.473
7.8754 20.598
7.8905 20.738
7.9057 20.691
7.9209 20.601
7.9361 20.842
7.9512 20.621
7.9664 20.268
7.9816 20.372
7.9968 20.398
8.0119 20.509
8.0271 21.099
8.0423 21.078
8.0575 21.011
8.0726 20.913
8.0878 21.157
8.1030 21.320
8.1182 21.223
8.1333 21.052
8.1485 21.243
8.1637 21.075
8.1789 21.003
8.1940 21.560
8.2092 21.215
8.2244 21.105
8.2396 21.123
8.2547 20.897
8.2699 21.614
8.2851 21.386
8.3003 21.371
8.3154 21.582
8.3306 21.184
8.3458 21.612
8.3610 21.518
8.3761 21.939
8.3913 21.606
8.4065 21.893
8.4217 21.629
8.4368 21.570
8.4520 21.780
8.4672 21.842
8.4824 21.763
8.4975 22.297
8.5127 22.110
8.5279 21.594
8.5431 21.954
8.5582 21.972
8.5734 22.048
8.5886 22.007
8.6038 22.138
8.6189 22.029
8.6341 21.746
8.6493 22.266
8.6645 21.941
8.6796 21.714
8.6948 22.053
8.7100 21.950
8.7252 21.743
8.7403 22.134
8.7555 22.088
8.7707 22.375
8.7859 22.306
8.8010 21.993
8.8162 22.564
8.8314 22.597
8.8466 22.409
8.8617 22.342
8.8769 22.400
8.8921 22.128
8.9073 22.434
8.9224 22.361
8.9376 22.406
8.9528 22.680
8.9680 22.217
8.9831 22.274
8.9983 22.298
9.0135 22.307
9.0287 22.529
9.0438 22.715
9.0590 22.369
9.0742 22.698
9.0894 22.931
9.1045 22.721
9.1197 22.753
9.1349 22.421
9.1501 22.467
9.1652 22.901
9.1804 22.848
9.1956 22.776
9.2108 22.742
9.2259 22.763
9.2411 22.793
9.2563 22.711
9.2715 22.894
9.2866 22.951
9.3018 22.603
9.3170 22.656
9.3322 22.963
9.3473 22.912
9.3625 22.811
9.3777 22.840
9.3929 23.030
9.4080 22.868
9.4232 23.135
9.4384 23.164
9.4536 22.953
9.4687 22.788
9.4839 22.570
9.4991 22.778
9.5143 22.830
9.5294 22.952
9.5446 22.998
9.5598 23.478
9.5750 23.401
9.5901 23.207
9.6053 23.553
9.6205 23.238
9.6357 23.151
9.6508 23.454
9.6660 23.474
9.6812 23.490
9.6964 23.752
9.7115 24.100
9.7267 24.187
9.7419 24.001
9.7571 24.005
9.7722 23.985
9.7874 23.602
9.8026 23.377
9.8178 23.625
9.8329 23.498
9.8481 23.090
9.8633 23.192
9.8785 23.274
9.8936 23.298
9.9088 23.342
9.9240 22.937
9.9392 23.188
9.9543 23.061
9.9695 23.127
9.9847 23.185
9.9999 23.303
10.0150 23.276
10.0302 22.918
10.0454 23.057
10.0606 22.946
10.0757 23.069
10.0909 23.235
10.1061 23.169
10.1213 23.566
10.1364 23.825
10.1516 23.380
10.1668 23.314
10.1820 23.245
10.1971 23.136
10.2123 23.162
10.2275 22.959
10.2427 22.946
10.2578 22.959
10.2730 22.824
10.2882 22.779
10.3034 23.070
10.3185 22.819
10.3337 22.391
10.3489 22.538
10.3641 22.762
10.3792 22.457
10.3944 22.414
10.4096 22.711
10.4248 22.760
10.4399 22.846
10.4551 22.519
10.4703 22.442
10.4855 22.660
10.5006 22.672
10.5158 22.488
10.5310 22.133
10.5462 22.266
10.5613 22.591
10.5765 22.588
10.5917 22.414
10.6069 22.662
10.6220 22.575
10.6372 22.610
10.6524 22.540
10.6676 22.365
10.6827 22.304
10.6979 22.617
10.7131 22.649
10.7283 22.516
10.7434 22.302
10.7586 22.074
10.7738 22.101
10.7890 22.308
10.8041 22.302
10.8193 22.073
10.8345 22.315
10.8497 22.412
10.8648 22.073
10.8800 21.740
10.8952 22.303
10.9104 22.389
10.9255 21.996
10.9407 21.770
10.9559 21.589
10.9711 21.744
10.9862 22.092
11.0014 22.194
11.0166 22.186
11.0318 21.888
11.0469 21.453
11.0621 21.656
11.0773 21.631
11.0925 21.513
11.1076 21.557
11.1228 21.615
11.1380 21.503
11.1532 21.558
11.1683 21.523
11.1835 21.192
11.1987 21.230
11.2139 21.474
11.2290 21.477
11.2442 21.452
11.2594 21.848
11.2746 21.787
11.2897 21.488
11.3049 21.663
11.3201 21.397
11.3353 21.156
11.3504 21.265
11.3656 21.421
11.3808 21.272
11.3960 21.500
11.4111 21.336
11.4263 21.464
11.4415 20.955
11.4567 20.519
11.4718 21.100
11.4870 21.135
11.5022 20.614
11.5174 20.814
11.5325 20.801
11.5477 20.807
11.5629 20.986
11.5781 20.437
11.5932 20.300
11.6084 20.720
11.6236 20.710
11.6388 20.921
11.6539 20.609
11.6691 20.721
11.6843 20.434
11.6995 20.227
11.7146 20.609
11.7298 20.750
11.7450 20.657
11.7602 20.461
11.7753 20.528
11.7905 20.146
11.8057 19.790
11.8209 20.005
11.8360 20.149
11.8512 20.331
11.8664 20.193
11.8816 19.802
11.8967 19.547
11.9119 19.680
11.9271 19.639
11.9423 19.033
11.9574 19.248
11.9726 19.181
11.9878 19.257
12.0030 19.026
12.0181 18.987
12.0333 19.119
12.0485 19.103
12.0637 19.198
12.0788 19.268
12.0940 18.452
12.1092 18.484
12.1244 18.418
12.1395 18.425
12.1547 18.390
12.1699 18.397
12.1851 18.494
12.2002 18.309
12.2154 18.346
12.2306 18.487
12.2458 17.572
12.2609 17.425
12.2761 17.798
12.2913 17.607
12.3065 17.435
12.3216 17.622
12.3368 17.701
12.3520 17.401
12.3672 17.147
12.3823 17.494
12.3975 17.257
12.4127 16.889
12.4279 16.971
12.4430 16.835
12.4582 16.777
12.4734 17.026
12.4886 16.859
12.5037 16.671
12.5189 16.713
12.5341 16.418
12.5493 16.260
12.5644 16.191
12.5796 15.986
12.5948 15.867
12.6100 16.180
12.6251 16.156
12.6403 15.830
12.6555 15.478
12.6707 15.290
12.6858 15.490
12.7010 15.721
12.7162 15.724
12.7314 15.524
12.7465 15.435
12.7617 15.237
12.7769 15.158
12.7921 15.246
12.8072 15.094
12.8224 14.889
12.8376 14.790
12.8528 14.839
12.8679 14.902
12.8831 14.595
12.8983 14.573
12.9135 14.728
12.9286 14.702
12.9438 14.619
12.9590 14.664
12.9742 14.500
12.9893 14.082
13.0045 13.988
13.0197 14.231
13.0349 14.264
13.0500 14.170
13.0652 13.841
13.0804 13.692
13.0956 14.045
13.1107 13.997
13.1259 13.913
13.1411 13.945
13.1563 13.748
13.1714 13.696
13.1866 13.615
13.2018 13.434
13.2170 13.429
13.2321 13.417
13.2473 13.328
13.2625 13.242
13.2777 13.137
13.2928 13.205
13.3080 13.266
13.3232 12.973
13.3384 12.975
13.3535 13.179
13.3687 12.965
13.3839 12.756
13.3991 12.706
13.4142 12.783
13.4294 12.945
13.4446 12.956
13.4598 12.713
13.4749 12.629
13.4901 12.565
13.5053 12.530
13.5205 12.366
13.5356 12.309
13.5508 12.555
13.5660 12.282
13.5812 12.066
13.5963 12.360
13.6115 12.547
13.6267 12.398
13.6419 12.110
13.6570 12.088
13.6722 12.196
13.6874 12.070
13.7026 11.979
13.7177 12.007
13.7329 11.982
13.7481 12.141
13.7633 12.207
13.7784 12.022
13.7936 11.961
13.8088 12.139
13.8239 11.930
13.8391 12.132
13.8543 12.416
13.8695 12.339
13.8846 12.259
13.8998 12.068
13.9150 12.194
13.9302 11.934
13.9453 11.657
13.9605 11.744
13.9757 11.813
13.9909 11.847
14.0060 11.744
14.0212 11.660
14.0364 11.711
14.0516 11.485
14.0667 11.567
14.0819 11.585
14.0971 11.628
14.1123 11.740
14.1274 11.471
14.1426 11.610
14.1578 11.700
14.1730 11.629
14.1881 11.506
14.2033 11.419
14.2185 11.771
14.2337 11.683
14.2488 11.468
14.2640 11.559
14.2792 11.976
14.2944 11.972
14.3095 12.045
14.3247 12.401
14.3399 12.316
14.3551 12.435
14.3702 12.486
14.3854 12.614
14.4006 13.127
14.4158 12.823
14.4309 12.814
14.4461 12.782
14.4613 12.652
14.4765 12.390
14.4916 12.054
14.5068 11.625
14.5220 11.707
14.5372 11.718
14.5523 11.207
14.5675 11.144
14.5827 11.159
14.5979 11.040
14.6130 10.948
14.6282 10.768
14.6434 10.474
14.6586 10.439
14.6737 10.461
14.6889 10.767
14.7041 10.603
14.7193 10.681
14.7344 10.748
14.7496 10.461
14.7648 10.501
14.7800 10.385
14.7951 10.634
14.8103 10.584
14.8255 10.502
14.8407 10.666
14.8558 10.355
14.8710 10.249
14.8862 10.161
14.9014 10.507
14.9165 10.510
14.9317 10.823
14.9469 10.174
14.9621 10.456
14.9772 10.697
14.9924 10.179
15.0076 10.315
15.0228 10.706
15.0379 9.984
15.0531 10.045
15.0683 10.324
15.0835 10.150
15.0986 10.381
15.1138 9.996
15.1290 10.113
15.1442 10.267
15.1593 10.060
15.1745 9.834
15.1897 10.234
15.2049 9.766
15.2200 10.012
15.2352 10.051
15.2504 10.329
15.2656 10.367
15.2807 10.138
15.2959 9.929
15.3111 10.011
15.3263 10.024
15.3414 10.132
15.3566 9.959
15.3718 10.108
15.3870 9.839
15.4021 9.928
15.4173 9.955
15.4325 10.634
15.4477 10.374
15.4628 10.136
15.4780 10.134
15.4932 9.958
15.5084 9.953
15.5235 10.193
15.5387 10.247
15.5539 9.982
15.5691 10.096
15.5842 10.255
15.5994 9.883
15.6146 9.824
15.6298 9.758
15.6449 9.748
15.6601 9.732
15.6753 9.952
15.6905 9.791
15.7056 9.766
15.7208 9.633
15.7360 9.288
15.7512 9.601
15.7663 9.548
15.7815 9.861
15.7967 9.495
15.8119 9.624
15.8270 9.776
15.8422 9.935
15.8574 9.561
15.8726 9.455
15.8877 9.537
15.9029 9.639
15.9181 9.539
15.9333 9.475
15.9484 9.495
15.9636 9.362
15.9788 9.602
15.9940 9.673
16.0091 9.651
16.0243 9.648
16.0395 9.937
16.0547 9.831
16.0698 9.695
16.0850 9.699
16.1002 9.640
16.1154 9.672
16.1305 9.404
16.1457 9.569
16.1609 9.387
16.1761 9.501
16.1912 9.468
16.2064 10.013
16.2216 9.936
16.2368 9.558
16.2519 9.346
16.2671 9.325
16.2823 9.685
16.2975 9.724
16.3126 9.764
16.3278 9.744
16.3430 9.650
16.3582 9.669
16.3733 9.735
16.3885 9.781
16.4037 9.689
16.4189 9.764
16.4340 9.708
16.4492 9.670
16.4644 9.656
16.4796 9.755
16.4947 9.931
16.5099 9.681
16.5251 9.760
16.5403 9.953
16.5554 9.719
16.5706 9.500
16.5858 9.590
16.6010 9.555
16.6161 9.512
16.6313 9.386
16.6465 9.270
16.6617 9.398
16.6768 9.578
16.6920 9.620
16.7072 9.753
16.7224 9.974
16.7375 9.955
16.7527 9.917
16.7679 9.963
16.7831 9.949
16.7982 9.828
16.8134 9.708
16.8286 9.721
16.8438 9.862
16.8589 9.810
16.8741 9.803
16.8893 9.666
16.9045 9.634
16.9196 9.735
16.9348 9.855
16.9500 9.943
16.9652 9.758
16.9803 9.748
16.9955 9.849
17.0107 10.067
17.0259 10.010
17.0410 10.120
17.0562 10.345
17.0714 10.257
17.0866 10.202
17.1017 10.364
17.1169 10.567
17.1321 10.984
17.1473 11.521
17.1624 11.913
17.1776 12.345
17.1928 13.124
17.2080 13.922
17.2231 14.876
17.2383 16.031
17.2535 17.478
17.2687 18.600
17.2838 18.549
17.2990 17.832
17.3142 17.049
17.3294 16.364
17.3445 15.913
17.3597 15.760
17.3749 15.808
17.3901 15.496
17.4052 14.350
17.4204 13.347
17.4356 12.744
17.4508 11.958
17.4659 11.401
17.4811 11.425
17.4963 11.432
17.5115 11.070
17.5266 10.857
17.5418 10.913
17.5570 11.166
17.5722 11.076
17.5873 11.066
17.6025 11.325
17.6177 11.301
17.6329 11.472
17.6480 11.421
17.6632 11.189
17.6784 11.367
17.6936 11.499
17.7087 11.327
17.7239 11.329
17.7391 11.183
17.7543 11.096
17.7694 10.930
17.7846 11.007
17.7998 11.055
17.8150 10.672
17.8301 10.327
17.8453 10.290
17.8605 10.273
17.8757 10.477
17.8908 10.485
17.9060 10.480
17.9212 10.291
17.9364 10.023
17.9515 10.126
17.9667 10.247
17.9819 10.265
17.9971 10.148
18.0122 10.092
18.0274 10.141
18.0426 10.112
18.0578 10.040
18.0729 9.936
18.0881 9.905
18.1033 9.931
18.1185 9.868
18.1336 10.051
18.1488 9.910
18.1640 9.769
18.1792 9.774
18.1943 9.765
18.2095 9.654
18.2247 9.814
18.2399 9.816
18.2550 9.865
18.2702 9.997
18.2854 9.766
18.3006 9.703
18.3157 9.814
18.3309 9.812
18.3461 9.797
18.3613 9.751
18.3764 9.778
18.3916 9.707
18.4068 9.756
18.4220 9.891
18.4371 9.747
18.4523 9.605
18.4675 9.558
18.4827 9.887
18.4978 10.013
18.5130 9.734
18.5282 9.532
18.5434 9.618
18.5585 9.962
18.5737 10.088
18.5889 9.936
18.6041 9.937
18.6192 9.678
18.6344 9.655
18.6496 9.751
18.6648 9.841
18.6799 9.745
18.6951 9.692
18.7103 9.778
18.7255 9.710
18.7406 9.605
18.7558 9.689
18.7710 9.904
18.7862 10.190
18.8013 9.804
18.8165 9.529
18.8317 9.952
18.8469 9.976
18.8620 9.934
18.8772 9.817
18.8924 9.922
18.9076 9.920
18.9227 9.921
18.9379 10.094
18.9531 9.747
18.9683 9.638
18.9834 9.776
18.9986 10.060
19.0138 10.223
19.0290 10.077
19.0441 9.962
19.0593 10.160
19.0745 10.372
19.0897 10.296
19.1048 10.384
19.1200 10.459
19.1352 10.506
19.1504 10.437
19.1655 10.513
19.1807 10.710
19.1959 10.732
19.2111 10.692
19.2262 11.018
19.2414 11.015
19.2566 10.851
19.2718 10.851
19.2869 10.730
19.3021 10.923
19.3173 10.928
19.3325 10.968
19.3476 11.011
19.3628 11.111
19.3780 11.280
19.3932 11.362
19.4083 11.173
19.4235 11.232
19.4387 11.358
19.4539 11.256
19.4690 11.447
19.4842 11.402
19.4994 11.426
19.5146 11.663
19.5297 11.467
19.5449 11.573
19.5601 11.790
19.5753 11.687
19.5904 11.491
19.6056 11.482
19.6208 11.670
19.6360 11.747
19.6511 11.736
19.6663 11.585
19.6815 11.543
19.6967 11.514
19.7118 11.621
19.7270 11.782
19.7422 11.775
19.7574 11.859
19.7725 11.847
19.7877 11.966
19.8029 12.089
19.8180 12.109
19.8332 12.130
19.8484 12.250
19.8636 12.570
19.8787 12.751
19.8939 12.955
19.9091 13.478
19.9243 13.805
19.9394 13.707
19.9546 14.182
19.9698 14.742
19.9850 14.665
20.0001 14.489
20.0153 14.246
20.0305 14.109
20.0457 14.106
20.0608 14.037
20.0760 14.112
20.0912 13.854
20.1064 13.736
20.1215 13.765
20.1367 13.751
20.1519 13.574
20.1671 12.842
20.1822 12.666
20.1974 12.913
20.2126 13.013
20.2278 12.766
20.2429 12.533
20.2581 12.394
20.2733 12.288
20.2885 12.254
20.3036 12.184
20.3188 12.077
20.3340 12.159
20.3492 12.433
20.3643 12.192
20.3795 11.680
20.3947 11.707
20.4099 11.819
20.4250 11.709
20.4402 11.753
20.4554 11.944
20.4706 11.786
20.4857 11.782
20.5009 11.559
20.5161 11.524
20.5313 11.635
20.5464 11.675
20.5616 11.418
20.5768 11.427
20.5920 11.326
20.6071 11.185
20.6223 11.314
20.6375 10.795
20.6527 11.006
20.6678 10.859
20.6830 10.563
20.6982 10.790
20.7134 10.783
20.7285 10.363
20.7437 10.618
20.7589 10.443
20.7741 10.429
20.7892 10.694
20.8044 10.488
20.8196 10.415
20.8348 10.421
20.8499 10.372
20.8651 10.156
20.8803 10.492
20.8955 10.158
20.9106 10.506
20.9258 9.947
20.9410 10.309
20.9562 10.162
20.9713 10.136
20.9865 10.358
21.0017 10.179
21.0169 10.015
21.0320 10.327
21.0472 10.008
21.0624 10.007
21.0776 9.825
21.0927 10.048
21.1079 9.899
21.1231 9.826
21.1383 9.859
21.1534 9.791
21.1686 9.757
21.1838 10.056
21.1990 9.798
21.2141 9.891
21.2293 9.710
21.2445 9.507
21.2597 9.641
21.2748 9.704
21.2900 9.563
21.3052 9.794
21.3204 9.704
21.3355 9.700
21.3507 9.898
21.3659 9.601
21.3811 9.507
21.3962 9.446
21.4114 9.418
21.4266 9.719
21.4418 9.481
21.4569 9.427
21.4721 9.398
21.4873 9.530
21.5025 9.375
21.5176 9.321
21.5328 9.334
21.5480 9.378
21.5632 9.277
21.5783 9.291
21.5935 9.218
21.6087 9.184
21.6239 9.185
21.6390 9.222
21.6542 9.090
21.6694 9.319
21.6846 9.214
21.6997 9.076
21.7149 9.189
21.7301 9.102
21.7453 9.140
21.7604 8.912
21.7756 9.042
21.7908 8.938
21.8060 9.056
21.8211 9.294
21.8363 8.999
21.8515 8.890
21.8667 9.037
21.8818 9.025
21.8970 9.172
21.9122 9.112
21.9274 8.842
21.9425 8.887
21.9577 8.894
21.9729 8.921
21.9881 8.877
22.0032 8.825
22.0184 8.790
22.0336 8.693
22.0488 8.814
22.0639 8.860
22.0791 8.824
22.0943 8.883
22.1095 8.757
22.1246 8.709
22.1398 8.567
22.1550 8.432
22.1702 8.494
22.1853 8.767
22.2005 8.829
22.2157 8.397
22.2309 8.391
22.2460 8.641
22.2612 8.788
22.2764 8.806
22.2916 8.633
22.3067 8.585
22.3219 8.344
22.3371 8.498
22.3523 8.457
22.3674 8.390
22.3826 8.375
22.3978 8.459
22.4130 8.440
22.4281 8.578
22.4433 8.530
22.4585 8.526
22.4737 8.574
22.4888 8.491
22.5040 8.399
22.5192 8.311
22.5344 8.333
22.5495 8.457
22.5647 8.119
22.5799 8.433
22.5951 8.412
22.6102 8.670
22.6254 8.267
22.6406 7.990
22.6558 8.313
22.6709 8.295
22.6861 8.354
22.7013 8.145
22.7165 7.899
22.7316 6.537
