'Id: "" Comment: "" Operator: "Lab Manager" Anode: "Mo" Scantype: "Still (Eiger2R_500K (1D mode))" TimePerStep: "300" X: "11.8" Y: "9.4" Z: "11.284" 
7.2532 18.577
7.2684 19.161
7.2836 18.658
7.2987 18.938
7.3139 19.049
7.3291 19.252
7.3443 19.397
7.3594 19.103
7.3746 18.968
7.3898 19.097
7.4050 19.330
7.4201 19.503
7.4353 19.238
7.4505 19.352
7.4657 19.413
7.4808 19.703
7.4960 19.612
7.5112 19.528
7.5264 19.247
7.5415 19.908
7.5567 20.040
7.5719 19.652
7.5871 19.813
7.6022 19.818
7.6174 19.901
7.6326 19.886
7.6478 20.298
7.6629 20.138
7.6781 19.671
7.6933 19.867
7.7085 20.394
7.7236 20.367
7.7388 20.298
7.7540 20.639
7.7692 20.832
7.7843 20.425
7.7995 20.243
7.8147 20.559
7.8299 20.868
7.8450 21.029
7.8602 21.038
7.8754 20.638
7.8905 20.728
7.9057 20.689
7.9209 20.879
7.9361 20.957
7.9512 20.991
7.9664 21.111
7.9816 21.316
7.9968 21.217
8.0119 21.211
8.0271 20.839
8.0423 20.902
8.0575 21.048
8.0726 21.053
8.0878 21.258
8.1030 21.121
8.1182 21.367
8.1333 21.412
8.1485 21.489
8.1637 21.410
8.1789 21.010
8.1940 21.330
8.2092 21.356
8.2244 21.569
8.2396 21.449
8.2547 21.378
8.2699 21.327
8.2851 21.667
8.3003 22.055
8.3154 21.661
8.3306 21.665
8.3458 21.823
8.3610 21.913
8.3761 21.844
8.3913 22.026
8.4065 22.126
8.4217 21.607
8.4368 21.610
8.4520 21.756
8.4672 21.865
8.4824 21.978
8.4975 22.600
8.5127 22.428
8.5279 21.963
8.5431 22.398
8.5582 21.983
8.5734 22.031
8.5886 22.564
8.6038 22.404
8.6189 21.927
8.6341 22.706
8.6493 23.065
8.6645 22.514
8.6796 22.271
8.6948 22.508
8.7100 22.795
8.7252 22.657
8.7403 22.711
8.7555 22.638
8.7707 22.824
8.7859 23.002
8.8010 22.679
8.8162 22.704
8.8314 22.413
8.8466 22.358
8.8617 22.334
8.8769 22.661
8.8921 22.751
8.9073 22.758
8.9224 22.784
8.9376 22.595
8.9528 23.201
8.9680 22.989
8.9831 23.089
8.9983 22.765
9.0135 22.888
9.0287 23.218
9.0438 23.041
9.0590 23.122
9.0742 22.984
9.0894 22.668
9.1045 22.938
9.1197 22.998
9.1349 22.713
9.1501 22.728
9.1652 23.146
9.1804 22.902
9.1956 23.275
9.2108 23.149
9.2259 23.021
9.2411 22.983
9.2563 22.996
9.2715 22.840
9.2866 22.720
9.3018 22.827
9.3170 23.003
9.3322 23.571
9.3473 23.341
9.3625 23.362
9.3777 23.089
9.3929 22.949
9.4080 23.128
9.4232 23.153
9.4384 23.258
9.4536 23.117
9.4687 23.183
9.4839 23.418
9.4991 23.231
9.5143 23.228
9.5294 23.522
9.5446 23.331
9.5598 22.962
9.5750 23.044
9.5901 23.327
9.6053 23.361
9.6205 23.402
9.6357 23.641
9.6508 23.508
9.6660 23.601
9.6812 23.786
9.6964 23.722
9.7115 23.852
9.7267 23.889
9.7419 23.907
9.7571 24.048
9.7722 24.040
9.7874 23.817
9.8026 23.748
9.8178 23.682
9.8329 23.973
9.8481 23.840
9.8633 23.370
9.8785 23.291
9.8936 23.196
9.9088 22.964
9.9240 23.044
9.9392 23.254
9.9543 23.659
9.9695 23.506
9.9847 23.315
9.9999 23.472
10.0150 23.327
10.0302 23.213
10.0454 23.252
10.0606 23.132
10.0757 23.178
10.0909 23.462
10.1061 23.171
10.1213 23.064
10.1364 23.225
10.1516 23.490
10.1668 23.427
10.1820 23.242
10.1971 23.455
10.2123 23.571
10.2275 23.393
10.2427 23.291
10.2578 23.510
10.2730 23.579
10.2882 23.416
10.3034 23.327
10.3185 23.164
10.3337 22.919
10.3489 23.071
10.3641 23.040
10.3792 22.914
10.3944 22.880
10.4096 22.719
10.4248 22.911
10.4399 23.002
10.4551 23.004
10.4703 23.004
10.4855 22.462
10.5006 22.380
10.5158 22.592
10.5310 22.755
10.5462 22.806
10.5613 22.640
10.5765 22.634
10.5917 22.826
10.6069 22.538
10.6220 22.632
10.6372 22.603
10.6524 22.685
10.6676 22.846
10.6827 22.534
10.6979 22.432
10.7131 22.143
10.7283 22.531
10.7434 22.648
10.7586 22.550
10.7738 22.709
10.7890 22.558
10.8041 22.484
10.8193 22.661
10.8345 22.251
10.8497 22.425
10.8648 22.599
10.8800 22.277
10.8952 22.327
10.9104 22.305
10.9255 22.055
10.9407 22.207
10.9559 22.056
10.9711 21.847
10.9862 22.351
11.0014 22.205
11.0166 22.224
11.0318 22.164
11.0469 22.049
11.0621 21.695
11.0773 21.622
11.0925 21.706
11.1076 22.148
11.1228 22.200
11.1380 21.877
11.1532 22.071
11.1683 22.105
11.1835 22.051
11.1987 22.018
11.2139 21.915
11.2290 22.104
11.2442 21.905
11.2594 22.319
11.2746 21.699
11.2897 21.792
11.3049 21.805
11.3201 21.707
11.3353 21.869
11.3504 21.646
11.3656 21.561
11.3808 21.652
11.3960 21.592
11.4111 21.408
11.4263 21.334
11.4415 21.416
11.4567 21.123
11.4718 21.358
11.4870 21.475
11.5022 21.199
11.5174 21.154
11.5325 20.975
11.5477 21.050
11.5629 21.354
11.5781 21.126
11.5932 21.106
11.6084 20.890
11.6236 20.798
11.6388 20.644
11.6539 20.771
11.6691 20.678
11.6843 20.529
11.6995 20.491
11.7146 20.322
11.7298 20.380
11.7450 20.275
11.7602 20.545
11.7753 20.579
11.7905 20.760
11.8057 20.717
11.8209 20.398
11.8360 20.051
11.8512 20.001
11.8664 20.029
11.8816 20.017
11.8967 19.811
11.9119 19.857
11.9271 19.713
11.9423 19.560
11.9574 19.297
11.9726 19.407
11.9878 19.369
12.0030 19.272
12.0181 19.032
12.0333 19.202
12.0485 18.984
12.0637 19.180
12.0788 18.985
12.0940 19.010
12.1092 18.941
12.1244 18.992
12.1395 18.880
12.1547 18.579
12.1699 18.367
12.1851 18.200
12.2002 18.428
12.2154 18.126
12.2306 17.812
12.2458 18.122
12.2609 17.933
12.2761 17.866
12.2913 17.883
12.3065 17.721
12.3216 17.710
12.3368 17.650
12.3520 17.765
12.3672 17.586
12.3823 17.500
12.3975 17.365
12.4127 17.347
12.4279 17.171
12.4430 17.195
12.4582 17.132
12.4734 17.221
12.4886 17.071
12.5037 16.677
12.5189 16.743
12.5341 16.694
12.5493 16.446
12.5644 16.450
12.5796 16.449
12.5948 16.216
12.6100 16.303
12.6251 16.484
12.6403 16.142
12.6555 15.885
12.6707 16.127
12.6858 15.979
12.7010 15.780
12.7162 15.777
12.7314 15.592
12.7465 15.404
12.7617 15.476
12.7769 15.566
12.7921 15.594
12.8072 15.401
12.8224 15.244
12.8376 15.241
12.8528 14.913
12.8679 14.683
12.8831 14.891
12.8983 14.954
12.9135 15.090
12.9286 15.116
12.9438 14.640
12.9590 14.656
12.9742 14.703
12.9893 14.382
13.0045 14.576
13.0197 14.513
13.0349 14.186
13.0500 14.327
13.0652 14.453
13.0804 14.372
13.0956 14.115
13.1107 13.946
13.1259 13.941
13.1411 13.871
13.1563 13.766
13.1714 13.784
13.1866 13.941
13.2018 14.021
13.2170 13.892
13.2321 13.816
13.2473 13.703
13.2625 13.377
13.2777 13.113
13.2928 13.160
13.3080 13.409
13.3232 13.180
13.3384 12.916
13.3535 13.222
13.3687 13.246
13.3839 13.085
13.3991 13.158
13.4142 13.029
13.4294 13.000
13.4446 13.044
13.4598 13.194
13.4749 12.936
13.4901 12.630
13.5053 12.800
13.5205 12.744
13.5356 12.565
13.5508 12.688
13.5660 12.597
13.5812 12.379
13.5963 12.331
13.6115 12.471
13.6267 12.546
13.6419 12.341
13.6570 12.182
13.6722 12.094
13.6874 12.130
13.7026 12.386
13.7177 12.201
13.7329 12.100
13.7481 12.175
13.7633 12.031
13.7784 12.194
13.7936 12.510
13.8088 12.467
13.8239 12.537
13.8391 12.469
13.8543 12.375
13.8695 12.396
13.8846 12.276
13.8998 11.998
13.9150 12.060
13.9302 12.199
13.9453 12.025
13.9605 12.054
13.9757 11.922
13.9909 11.831
14.0060 11.685
14.0212 11.799
14.0364 11.692
14.0516 11.743
14.0667 11.864
14.0819 11.687
14.0971 11.628
14.1123 11.640
14.1274 11.798
14.1426 11.507
14.1578 11.692
14.1730 11.649
14.1881 11.746
14.2033 11.674
14.2185 11.586
14.2337 11.690
14.2488 11.731
14.2640 11.522
14.2792 11.552
14.2944 11.701
14.3095 11.823
14.3247 12.081
14.3399 12.247
14.3551 12.275
14.3702 12.400
14.3854 12.492
14.4006 12.589
14.4158 12.334
14.4309 12.355
14.4461 12.167
14.4613 11.861
14.4765 12.143
14.4916 11.957
14.5068 11.929
14.5220 11.379
14.5372 11.483
14.5523 11.209
14.5675 11.199
14.5827 11.345
14.5979 11.556
14.6130 11.404
14.6282 10.900
14.6434 10.966
14.6586 10.921
14.6737 11.229
14.6889 10.888
14.7041 10.858
14.7193 11.038
14.7344 10.833
14.7496 10.685
14.7648 10.554
14.7800 10.909
14.7951 10.887
14.8103 10.433
14.8255 10.889
14.8407 10.549
14.8558 10.692
14.8710 10.968
14.8862 10.495
14.9014 10.860
14.9165 10.821
14.9317 11.083
14.9469 10.774
14.9621 11.041
14.9772 10.187
14.9924 10.387
15.0076 10.550
15.0228 10.516
15.0379 10.513
15.0531 10.601
15.0683 10.259
15.0835 10.063
15.0986 10.619
15.1138 10.562
15.1290 10.868
15.1442 10.220
15.1593 10.591
15.1745 10.381
15.1897 10.434
15.2049 10.233
15.2200 10.160
15.2352 10.370
15.2504 10.498
15.2656 10.348
15.2807 10.365
15.2959 10.160
15.3111 9.986
15.3263 10.342
15.3414 9.990
15.3566 10.114
15.3718 10.174
15.3870 10.536
15.4021 10.468
15.4173 10.652
15.4325 10.456
15.4477 10.278
15.4628 10.503
15.4780 11.040
15.4932 10.823
15.5084 10.495
15.5235 10.360
15.5387 10.267
15.5539 10.450
15.5691 10.063
15.5842 10.506
15.5994 10.029
15.6146 10.265
15.6298 10.014
15.6449 9.801
15.6601 9.793
15.6753 10.319
15.6905 9.900
15.7056 9.901
15.7208 9.877
15.7360 10.065
15.7512 10.111
15.7663 9.811
15.7815 10.146
15.7967 9.923
15.8119 9.860
15.8270 9.833
15.8422 10.075
15.8574 10.000
15.8726 9.650
15.8877 10.046
15.9029 10.145
15.9181 9.758
15.9333 9.798
15.9484 9.872
15.9636 9.919
15.9788 9.962
15.9940 9.881
16.0091 10.056
16.0243 10.041
16.0395 9.901
16.0547 9.779
16.0698 9.792
16.0850 9.775
16.1002 9.607
16.1154 9.686
16.1305 9.764
16.1457 9.820
16.1609 9.786
16.1761 9.934
16.1912 9.814
16.2064 10.070
16.2216 9.842
16.2368 10.044
16.2519 9.955
16.2671 9.930
16.2823 10.088
16.2975 10.031
16.3126 10.131
16.3278 10.001
16.3430 10.023
16.3582 10.066
16.3733 9.967
16.3885 10.028
16.4037 9.960
16.4189 10.005
16.4340 10.028
16.4492 9.985
16.4644 9.845
16.4796 9.862
16.4947 9.883
16.5099 9.967
16.5251 9.859
16.5403 9.888
16.5554 9.948
16.5706 9.843
16.5858 9.841
16.6010 9.741
16.6161 9.866
16.6313 9.915
16.6465 9.828
16.6617 9.946
16.6768 9.984
16.6920 9.836
16.7072 9.773
16.7224 9.953
16.7375 10.072
16.7527 10.176
16.7679 10.088
16.7831 9.748
16.7982 9.784
16.8134 9.883
16.8286 10.032
16.8438 10.207
16.8589 10.280
16.8741 10.005
16.8893 9.659
16.9045 9.591
16.9196 9.803
16.9348 10.132
16.9500 10.022
16.9652 9.960
16.9803 10.029
16.9955 9.948
17.0107 9.947
17.0259 10.027
17.0410 10.201
17.0562 10.062
17.0714 10.190
17.0866 10.820
17.1017 10.907
17.1169 10.873
17.1321 11.237
17.1473 11.355
17.1624 11.726
17.1776 12.759
17.1928 13.449
17.2080 14.155
17.2231 15.432
17.2383 16.449
17.2535 17.512
17.2687 18.492
17.2838 18.733
17.2990 18.190
17.3142 17.018
17.3294 16.173
17.3445 16.142
17.3597 16.119
17.3749 15.689
17.3901 15.105
17.4052 14.429
17.4204 13.425
17.4356 12.438
17.4508 11.996
17.4659 11.745
17.4811 11.643
17.4963 11.412
17.5115 11.148
17.5266 11.048
17.5418 10.919
17.5570 11.039
17.5722 11.249
17.5873 11.196
17.6025 11.017
17.6177 10.911
17.6329 10.650
17.6480 10.586
17.6632 10.608
17.6784 10.454
17.6936 10.454
17.7087 10.596
17.7239 10.530
17.7391 10.341
17.7543 10.289
17.7694 10.222
17.7846 10.228
17.7998 10.223
17.8150 10.024
17.8301 9.972
17.8453 10.183
17.8605 10.235
17.8757 10.075
17.8908 10.006
17.9060 10.228
17.9212 10.324
17.9364 10.239
17.9515 10.003
17.9667 10.101
17.9819 10.359
17.9971 10.300
18.0122 10.371
18.0274 10.006
18.0426 10.060
18.0578 10.369
18.0729 10.293
18.0881 10.300
18.1033 10.232
18.1185 10.098
18.1336 10.256
18.1488 10.184
18.1640 9.931
18.1792 10.082
18.1943 10.063
18.2095 9.964
18.2247 9.905
18.2399 9.911
18.2550 10.035
18.2702 10.035
18.2854 10.089
18.3006 10.045
18.3157 9.828
18.3309 9.684
18.3461 9.824
18.3613 9.821
18.3764 9.738
18.3916 9.842
18.4068 9.690
18.4220 9.560
18.4371 9.657
18.4523 9.686
18.4675 9.825
18.4827 9.912
18.4978 9.845
18.5130 9.869
18.5282 9.867
18.5434 9.831
18.5585 9.775
18.5737 9.615
18.5889 9.604
18.6041 9.741
18.6192 9.756
18.6344 9.846
18.6496 9.763
18.6648 9.784
18.6799 9.611
18.6951 9.568
18.7103 9.656
18.7255 9.671
18.7406 9.565
18.7558 9.637
18.7710 9.811
18.7862 9.909
18.8013 9.636
18.8165 9.613
18.8317 9.758
18.8469 9.852
18.8620 9.818
18.8772 9.878
18.8924 9.958
18.9076 9.830
18.9227 9.722
18.9379 9.942
18.9531 9.769
18.9683 9.693
18.9834 9.884
18.9986 10.061
19.0138 10.103
19.0290 10.252
19.0441 10.184
19.0593 10.158
19.0745 10.245
19.0897 10.310
19.1048 10.515
19.1200 10.473
19.1352 10.469
19.1504 10.363
19.1655 10.479
19.1807 10.518
19.1959 10.568
19.2111 10.691
19.2262 10.575
19.2414 10.693
19.2566 10.844
19.2718 10.853
19.2869 10.858
19.3021 10.983
19.3173 11.023
19.3325 11.207
19.3476 11.032
19.3628 10.944
19.3780 11.069
19.3932 11.172
19.4083 10.928
19.4235 10.882
19.4387 11.146
19.4539 11.264
19.4690 11.365
19.4842 11.383
19.4994 11.460
19.5146 11.270
19.5297 11.349
19.5449 11.537
19.5601 11.504
19.5753 11.513
19.5904 11.591
19.6056 11.649
19.6208 11.803
19.6360 11.784
19.6511 11.645
19.6663 11.649
19.6815 11.615
19.6967 11.753
19.7118 11.934
19.7270 11.992
19.7422 11.971
19.7574 11.820
19.7725 11.682
19.7877 11.828
19.8029 12.064
19.8180 12.053
19.8332 12.061
19.8484 12.193
19.8636 12.351
19.8787 12.624
19.8939 12.845
19.9091 13.259
19.9243 13.569
19.9394 13.710
19.9546 14.193
19.9698 14.358
19.9850 14.507
20.0001 14.680
20.0153 14.355
20.0305 13.970
20.0457 13.759
20.0608 13.701
20.0760 13.490
20.0912 13.569
20.1064 13.733
20.1215 13.579
20.1367 13.307
20.1519 13.161
20.1671 13.030
20.1822 12.953
20.1974 12.497
20.2126 12.732
20.2278 13.018
20.2429 12.581
20.2581 12.336
20.2733 12.010
20.2885 12.075
20.3036 11.887
20.3188 11.917
20.3340 11.786
20.3492 11.857
20.3643 11.801
20.3795 11.413
20.3947 11.210
20.4099 10.922
20.4250 10.932
20.4402 10.875
20.4554 10.774
20.4706 10.674
20.4857 10.671
20.5009 10.504
20.5161 10.714
20.5313 10.818
20.5464 10.747
20.5616 10.669
20.5768 10.687
20.5920 10.769
20.6071 10.583
20.6223 10.436
20.6375 10.562
20.6527 10.622
20.6678 10.519
20.6830 10.471
20.6982 10.287
20.7134 10.341
20.7285 10.385
20.7437 10.367
20.7589 10.155
20.7741 10.401
20.7892 10.487
20.8044 10.116
20.8196 10.057
20.8348 10.105
20.8499 10.455
20.8651 10.269
20.8803 10.278
20.8955 10.280
20.9106 10.128
20.9258 10.315
20.9410 10.145
20.9562 10.170
20.9713 9.912
20.9865 10.288
21.0017 10.045
21.0169 10.103
21.0320 10.150
21.0472 10.052
21.0624 9.804
21.0776 9.903
21.0927 9.630
21.1079 9.626
21.1231 9.775
21.1383 9.666
21.1534 9.942
21.1686 9.676
21.1838 9.207
21.1990 9.419
21.2141 9.714
21.2293 9.717
21.2445 9.706
21.2597 9.535
21.2748 9.557
21.2900 9.273
21.3052 9.519
21.3204 9.708
21.3355 9.639
21.3507 9.686
21.3659 9.547
21.3811 9.665
21.3962 9.375
21.4114 9.665
21.4266 9.321
21.4418 9.491
21.4569 9.322
21.4721 9.662
21.4873 9.408
21.5025 9.313
21.5176 9.448
21.5328 9.351
21.5480 9.478
21.5632 9.248
21.5783 9.365
21.5935 9.517
21.6087 9.549
21.6239 9.177
21.6390 9.271
21.6542 9.045
21.6694 9.103
21.6846 9.250
21.6997 9.244
21.7149 8.901
21.7301 8.809
21.7453 9.001
21.7604 9.326
21.7756 9.203
21.7908 8.960
21.8060 9.122
21.8211 9.170
21.8363 9.217
21.8515 9.010
21.8667 9.074
21.8818 9.276
21.8970 9.248
21.9122 9.338
21.9274 9.007
21.9425 8.696
21.9577 8.865
21.9729 9.044
21.9881 9.138
22.0032 9.102
22.0184 9.035
22.0336 8.923
22.0488 8.800
22.0639 8.855
22.0791 8.698
22.0943 8.664
22.1095 8.847
22.1246 8.784
22.1398 8.789
22.1550 8.775
22.1702 8.810
22.1853 8.786
22.2005 8.587
22.2157 8.722
22.2309 8.716
22.2460 8.730
22.2612 8.621
22.2764 8.693
22.2916 8.956
22.3067 8.769
22.3219 8.595
22.3371 8.573
22.3523 8.397
22.3674 8.811
22.3826 8.805
22.3978 8.749
22.4130 8.641
22.4281 8.609
22.4433 8.675
22.4585 8.501
22.4737 8.317
22.4888 8.250
22.5040 8.350
22.5192 8.497
22.5344 8.568
22.5495 8.457
22.5647 8.544
22.5799 8.458
22.5951 8.582
22.6102 8.459
22.6254 8.232
22.6406 8.649
22.6558 8.428
22.6709 8.426
22.6861 8.357
22.7013 8.301
22.7165 8.062
22.7316 6.545
