'Id: "" Comment: "" Operator: "Lab Manager" Anode: "Mo" Scantype: "Still (Eiger2R_500K (1D mode))" TimePerStep: "300" X: "11.8" Y: "9.4" Z: "11.284" 
7.2532 19.113
7.2684 19.091
7.2836 19.146
7.2987 18.995
7.3139 18.876
7.3291 18.784
7.3443 18.967
7.3594 19.621
7.3746 19.303
7.3898 19.086
7.4050 19.042
7.4201 19.237
7.4353 19.511
7.4505 19.306
7.4657 19.599
7.4808 19.701
7.4960 19.459
7.5112 19.511
7.5264 19.585
7.5415 19.662
7.5567 19.795
7.5719 19.938
7.5871 19.963
7.6022 20.071
7.6174 19.936
7.6326 19.686
7.6478 20.126
7.6629 20.394
7.6781 20.250
7.6933 20.169
7.7085 20.469
7.7236 20.229
7.7388 20.093
7.7540 19.951
7.7692 20.149
7.7843 20.559
7.7995 20.631
7.8147 20.653
7.8299 20.785
7.8450 20.486
7.8602 20.501
7.8754 20.468
7.8905 20.444
7.9057 20.630
7.9209 20.542
7.9361 20.716
7.9512 20.900
7.9664 21.046
7.9816 20.739
7.9968 20.850
8.0119 20.950
8.0271 20.552
8.0423 20.618
8.0575 20.788
8.0726 21.346
8.0878 21.497
8.1030 21.305
8.1182 21.326
8.1333 21.040
8.1485 21.193
8.1637 21.319
8.1789 21.465
8.1940 21.640
8.2092 21.609
8.2244 21.873
8.2396 21.679
8.2547 21.653
8.2699 21.328
8.2851 21.769
8.3003 21.442
8.3154 21.402
8.3306 21.236
8.3458 21.286
8.3610 21.338
8.3761 21.862
8.3913 21.885
8.4065 21.890
8.4217 21.600
8.4368 22.088
8.4520 22.160
8.4672 21.414
8.4824 21.997
8.4975 21.846
8.5127 21.988
8.5279 22.090
8.5431 21.993
8.5582 22.152
8.5734 21.796
8.5886 22.530
8.6038 21.915
8.6189 22.263
8.6341 22.073
8.6493 22.016
8.6645 22.602
8.6796 22.144
8.6948 21.878
8.7100 22.378
8.7252 22.113
8.7403 22.085
8.7555 22.204
8.7707 22.509
8.7859 22.393
8.8010 22.380
8.8162 22.506
8.8314 22.596
8.8466 22.197
8.8617 22.585
8.8769 22.568
8.8921 22.378
8.9073 22.713
8.9224 22.717
8.9376 22.762
8.9528 22.193
8.9680 22.529
8.9831 22.313
8.9983 22.119
9.0135 22.716
9.0287 22.763
9.0438 22.434
9.0590 22.667
9.0742 22.666
9.0894 22.180
9.1045 22.572
9.1197 22.614
9.1349 22.520
9.1501 22.641
9.1652 22.887
9.1804 22.747
9.1956 22.651
9.2108 22.656
9.2259 22.756
9.2411 23.305
9.2563 23.301
9.2715 23.113
9.2866 22.830
9.3018 22.695
9.3170 22.921
9.3322 22.833
9.3473 22.864
9.3625 22.869
9.3777 22.769
9.3929 23.056
9.4080 23.047
9.4232 23.058
9.4384 23.360
9.4536 23.186
9.4687 23.121
9.4839 22.800
9.4991 22.817
9.5143 23.104
9.5294 23.230
9.5446 23.230
9.5598 23.124
9.5750 22.965
9.5901 23.062
9.6053 23.283
9.6205 23.380
9.6357 23.302
9.6508 23.395
9.6660 23.491
9.6812 23.673
9.6964 24.003
9.7115 23.965
9.7267 23.762
9.7419 23.880
9.7571 23.592
9.7722 23.250
9.7874 23.472
9.8026 23.424
9.8178 23.487
9.8329 23.675
9.8481 23.266
9.8633 23.063
9.8785 23.345
9.8936 23.063
9.9088 23.147
9.9240 23.214
9.9392 23.144
9.9543 23.050
9.9695 23.382
9.9847 23.540
9.9999 23.000
10.0150 23.092
10.0302 23.402
10.0454 23.309
10.0606 23.055
10.0757 23.200
10.0909 23.274
10.1061 23.202
10.1213 23.101
10.1364 23.134
10.1516 23.372
10.1668 23.378
10.1820 23.389
10.1971 23.098
10.2123 22.915
10.2275 23.112
10.2427 23.031
10.2578 23.069
10.2730 22.967
10.2882 22.804
10.3034 22.825
10.3185 22.768
10.3337 22.861
10.3489 23.021
10.3641 22.993
10.3792 22.907
10.3944 22.764
10.4096 22.600
10.4248 22.738
10.4399 22.316
10.4551 22.860
10.4703 22.991
10.4855 22.587
10.5006 22.228
10.5158 22.420
10.5310 22.781
10.5462 22.648
10.5613 22.778
10.5765 22.875
10.5917 22.731
10.6069 22.557
10.6220 22.480
10.6372 22.122
10.6524 22.175
10.6676 22.364
10.6827 22.441
10.6979 22.362
10.7131 22.204
10.7283 22.089
10.7434 22.205
10.7586 22.028
10.7738 21.695
10.7890 22.078
10.8041 22.219
10.8193 21.716
10.8345 21.917
10.8497 21.978
10.8648 22.042
10.8800 21.928
10.8952 21.947
10.9104 22.017
10.9255 21.886
10.9407 21.930
10.9559 21.803
10.9711 21.649
10.9862 21.975
11.0014 22.222
11.0166 22.408
11.0318 22.212
11.0469 21.582
11.0621 21.737
11.0773 21.758
11.0925 21.988
11.1076 21.859
11.1228 21.615
11.1380 21.912
11.1532 21.759
11.1683 21.711
11.1835 21.666
11.1987 21.710
11.2139 21.585
11.2290 21.822
11.2442 21.491
11.2594 21.278
11.2746 21.653
11.2897 21.568
11.3049 21.764
11.3201 21.546
11.3353 21.693
11.3504 21.612
11.3656 21.365
11.3808 21.469
11.3960 21.167
11.4111 21.261
11.4263 21.154
11.4415 21.118
11.4567 20.984
11.4718 21.249
11.4870 21.369
11.5022 20.937
11.5174 20.827
11.5325 20.958
11.5477 20.844
11.5629 20.893
11.5781 20.839
11.5932 20.970
11.6084 21.029
11.6236 20.730
11.6388 20.529
11.6539 20.867
11.6691 20.921
11.6843 20.789
11.6995 20.303
11.7146 20.133
11.7298 19.917
11.7450 20.431
11.7602 20.484
11.7753 20.772
11.7905 20.367
11.8057 20.097
11.8209 20.150
11.8360 20.234
11.8512 19.940
11.8664 19.831
11.8816 19.890
11.8967 19.820
11.9119 19.737
11.9271 19.764
11.9423 19.584
11.9574 19.421
11.9726 19.126
11.9878 18.794
12.0030 19.491
12.0181 19.250
12.0333 19.101
12.0485 18.704
12.0637 18.920
12.0788 18.698
12.0940 18.595
12.1092 18.580
12.1244 18.705
12.1395 18.559
12.1547 18.396
12.1699 18.297
12.1851 18.260
12.2002 18.421
12.2154 18.551
12.2306 18.116
12.2458 17.990
12.2609 17.946
12.2761 17.447
12.2913 17.441
12.3065 17.425
12.3216 17.740
12.3368 17.547
12.3520 17.424
12.3672 17.547
12.3823 17.496
12.3975 17.496
12.4127 17.255
12.4279 17.121
12.4430 17.067
12.4582 16.909
12.4734 16.825
12.4886 16.877
12.5037 16.723
12.5189 16.557
12.5341 16.518
12.5493 16.392
12.5644 16.377
12.5796 16.244
12.5948 16.146
12.6100 15.964
12.6251 16.267
12.6403 16.281
12.6555 16.129
12.6707 16.017
12.6858 15.773
12.7010 15.465
12.7162 15.246
12.7314 15.385
12.7465 15.617
12.7617 15.554
12.7769 15.154
12.7921 15.178
12.8072 15.221
12.8224 15.267
12.8376 15.166
12.8528 14.683
12.8679 14.542
12.8831 14.535
12.8983 14.644
12.9135 14.818
12.9286 14.816
12.9438 14.551
12.9590 14.313
12.9742 14.305
12.9893 14.429
13.0045 14.256
13.0197 14.068
13.0349 14.089
13.0500 14.107
13.0652 14.253
13.0804 14.091
13.0956 13.662
13.1107 13.641
13.1259 13.650
13.1411 13.629
13.1563 13.640
13.1714 13.363
13.1866 13.270
13.2018 13.332
13.2170 13.403
13.2321 13.328
13.2473 13.086
13.2625 13.098
13.2777 13.197
13.2928 13.238
13.3080 13.349
13.3232 13.254
13.3384 13.036
13.3535 13.104
13.3687 13.014
13.3839 12.979
13.3991 13.123
13.4142 13.003
13.4294 12.940
13.4446 12.871
13.4598 12.728
13.4749 12.826
13.4901 12.582
13.5053 12.229
13.5205 12.400
13.5356 12.333
13.5508 12.394
13.5660 12.523
13.5812 12.350
13.5963 12.359
13.6115 12.300
13.6267 12.239
13.6419 12.175
13.6570 12.002
13.6722 12.104
13.6874 12.133
13.7026 12.031
13.7177 12.237
13.7329 12.084
13.7481 11.830
13.7633 11.788
13.7784 12.042
13.7936 12.036
13.8088 12.129
13.8239 12.509
13.8391 12.421
13.8543 12.551
13.8695 12.516
13.8846 12.435
13.8998 12.185
13.9150 12.307
13.9302 12.340
13.9453 12.159
13.9605 11.972
13.9757 11.825
13.9909 11.697
14.0060 11.955
14.0212 11.778
14.0364 11.689
14.0516 11.724
14.0667 11.657
14.0819 11.598
14.0971 11.778
14.1123 11.800
14.1274 11.703
14.1426 11.562
14.1578 11.798
14.1730 11.822
14.1881 11.950
14.2033 11.862
14.2185 11.733
14.2337 11.655
14.2488 11.748
14.2640 12.067
14.2792 11.865
14.2944 12.076
14.3095 11.945
14.3247 12.035
14.3399 12.269
14.3551 12.438
14.3702 12.754
14.3854 12.957
14.4006 13.125
14.4158 13.117
14.4309 12.951
14.4461 12.881
14.4613 12.759
14.4765 12.548
14.4916 12.394
14.5068 11.851
14.5220 11.540
14.5372 11.341
14.5523 11.011
14.5675 11.218
14.5827 11.149
14.5979 11.118
14.6130 10.834
14.6282 10.646
14.6434 10.773
14.6586 10.654
14.6737 10.778
14.6889 10.824
14.7041 10.635
14.7193 10.639
14.7344 10.468
14.7496 10.446
14.7648 10.559
14.7800 10.595
14.7951 10.690
14.8103 10.847
14.8255 10.434
14.8407 10.369
14.8558 10.416
14.8710 10.536
14.8862 10.587
14.9014 10.614
14.9165 10.621
14.9317 10.678
14.9469 10.347
14.9621 10.276
14.9772 10.272
14.9924 10.373
15.0076 10.287
15.0228 10.715
15.0379 10.372
15.0531 10.259
15.0683 10.097
15.0835 10.053
15.0986 10.258
15.1138 10.310
15.1290 10.452
15.1442 9.869
15.1593 10.083
15.1745 10.096
15.1897 9.848
15.2049 10.212
15.2200 10.246
15.2352 10.131
15.2504 9.930
15.2656 10.096
15.2807 10.043
15.2959 10.247
15.3111 10.141
15.3263 9.799
15.3414 9.923
15.3566 10.225
15.3718 9.871
15.3870 10.029
15.4021 10.179
15.4173 10.109
15.4325 10.046
15.4477 10.046
15.4628 10.060
15.4780 10.168
15.4932 9.969
15.5084 9.872
15.5235 9.990
15.5387 10.053
15.5539 9.820
15.5691 9.910
15.5842 9.893
15.5994 9.869
15.6146 9.618
15.6298 10.039
15.6449 10.127
15.6601 9.635
15.6753 9.615
15.6905 9.389
15.7056 9.783
15.7208 9.577
15.7360 9.643
15.7512 9.485
15.7663 9.644
15.7815 9.660
15.7967 9.808
15.8119 9.483
15.8270 9.657
15.8422 9.830
15.8574 9.599
15.8726 9.596
15.8877 9.581
15.9029 9.473
15.9181 9.549
15.9333 9.748
15.9484 9.772
15.9636 9.525
15.9788 9.517
15.9940 9.660
16.0091 9.445
16.0243 9.729
16.0395 9.650
16.0547 9.572
16.0698 9.391
16.0850 9.401
16.1002 9.675
16.1154 9.638
16.1305 9.577
16.1457 9.600
16.1609 9.650
16.1761 9.682
16.1912 9.629
16.2064 9.554
16.2216 9.540
16.2368 9.777
16.2519 9.443
16.2671 9.639
16.2823 9.566
16.2975 9.463
16.3126 9.686
16.3278 9.964
16.3430 9.660
16.3582 9.636
16.3733 9.681
16.3885 9.770
16.4037 10.028
16.4189 9.782
16.4340 9.867
16.4492 9.737
16.4644 9.476
16.4796 9.604
16.4947 9.543
16.5099 9.580
16.5251 9.724
16.5403 9.665
16.5554 9.471
16.5706 9.582
16.5858 9.814
16.6010 9.546
16.6161 9.522
16.6313 9.712
16.6465 9.827
16.6617 9.654
16.6768 9.634
16.6920 9.875
16.7072 9.833
16.7224 9.853
16.7375 9.930
16.7527 9.908
16.7679 9.912
16.7831 10.042
16.7982 9.853
16.8134 9.710
16.8286 9.952
16.8438 9.836
16.8589 9.615
16.8741 9.609
16.8893 9.653
16.9045 9.746
16.9196 9.731
16.9348 9.679
16.9500 9.828
16.9652 9.950
16.9803 9.953
16.9955 9.858
17.0107 10.009
17.0259 9.981
17.0410 9.939
17.0562 9.960
17.0714 10.068
17.0866 10.207
17.1017 10.423
17.1169 10.791
17.1321 10.945
17.1473 11.129
17.1624 11.624
17.1776 12.241
17.1928 12.908
17.2080 13.868
17.2231 15.204
17.2383 16.535
17.2535 17.918
17.2687 18.669
17.2838 18.501
17.2990 17.729
17.3142 16.835
17.3294 16.533
17.3445 16.318
17.3597 16.364
17.3749 15.930
17.3901 15.090
17.4052 14.478
17.4204 13.389
17.4356 12.470
17.4508 12.108
17.4659 12.065
17.4811 11.886
17.4963 11.476
17.5115 11.287
17.5266 11.178
17.5418 10.998
17.5570 11.005
17.5722 11.107
17.5873 11.199
17.6025 10.980
17.6177 11.097
17.6329 11.517
17.6480 11.442
17.6632 11.520
17.6784 11.608
17.6936 11.657
17.7087 11.400
17.7239 11.263
17.7391 11.452
17.7543 11.109
17.7694 10.933
17.7846 11.105
17.7998 10.850
17.8150 10.559
17.8301 10.349
17.8453 10.254
17.8605 10.258
17.8757 10.081
17.8908 10.043
17.9060 10.267
17.9212 10.223
17.9364 10.114
17.9515 9.917
17.9667 10.022
17.9819 10.029
17.9971 10.035
18.0122 10.106
18.0274 9.913
18.0426 9.878
18.0578 9.954
18.0729 10.114
18.0881 10.189
18.1033 10.034
18.1185 9.857
18.1336 9.939
18.1488 10.178
18.1640 10.115
18.1792 9.857
18.1943 9.832
18.2095 9.743
18.2247 9.762
18.2399 9.798
18.2550 9.820
18.2702 9.833
18.2854 9.778
18.3006 9.751
18.3157 9.763
18.3309 9.702
18.3461 9.859
18.3613 9.826
18.3764 9.632
18.3916 9.968
18.4068 9.954
18.4220 9.796
18.4371 9.809
18.4523 9.621
18.4675 9.795
18.4827 10.027
18.4978 9.837
18.5130 9.805
18.5282 9.927
18.5434 9.639
18.5585 9.717
18.5737 9.774
18.5889 9.819
18.6041 9.774
18.6192 9.671
18.6344 9.855
18.6496 9.811
18.6648 9.818
18.6799 9.909
18.6951 9.902
18.7103 9.837
18.7255 9.952
18.7406 9.881
18.7558 9.838
18.7710 9.798
18.7862 9.703
18.8013 9.633
18.8165 9.610
18.8317 9.782
18.8469 9.900
18.8620 9.992
18.8772 9.996
18.8924 9.924
18.9076 9.776
18.9227 9.818
18.9379 9.926
18.9531 10.055
18.9683 10.123
18.9834 10.074
18.9986 10.012
19.0138 10.003
19.0290 9.926
19.0441 10.215
19.0593 10.335
19.0745 10.395
19.0897 10.368
19.1048 10.522
19.1200 10.531
19.1352 10.416
19.1504 10.395
19.1655 10.516
19.1807 10.444
19.1959 10.494
19.2111 10.706
19.2262 10.896
19.2414 10.734
19.2566 10.774
19.2718 10.740
19.2869 10.890
19.3021 10.955
19.3173 10.961
19.3325 11.221
19.3476 11.130
19.3628 11.046
19.3780 11.127
19.3932 11.293
19.4083 11.388
19.4235 11.285
19.4387 11.260
19.4539 11.262
19.4690 11.308
19.4842 11.240
19.4994 11.196
19.5146 11.341
19.5297 11.297
19.5449 11.573
19.5601 11.504
19.5753 11.441
19.5904 11.482
19.6056 11.585
19.6208 11.834
19.6360 11.841
19.6511 11.775
19.6663 11.657
19.6815 11.576
19.6967 11.735
19.7118 11.771
19.7270 11.841
19.7422 11.932
19.7574 11.672
19.7725 11.692
19.7877 11.963
19.8029 11.824
19.8180 11.758
19.8332 11.923
19.8484 12.114
19.8636 12.133
19.8787 12.516
19.8939 12.873
19.9091 13.081
19.9243 13.613
19.9394 14.017
19.9546 14.276
19.9698 14.533
19.9850 14.753
20.0001 14.762
20.0153 14.269
20.0305 13.863
20.0457 13.773
20.0608 13.795
20.0760 13.751
20.0912 13.681
20.1064 13.781
20.1215 13.866
20.1367 13.466
20.1519 13.219
20.1671 13.165
20.1822 13.041
20.1974 12.765
20.2126 12.738
20.2278 12.606
20.2429 12.291
20.2581 12.171
20.2733 12.165
20.2885 12.074
20.3036 11.802
20.3188 12.047
20.3340 12.092
20.3492 11.998
20.3643 12.225
20.3795 12.035
20.3947 11.807
20.4099 11.773
20.4250 11.769
20.4402 12.067
20.4554 12.031
20.4706 11.792
20.4857 11.769
20.5009 11.811
20.5161 11.908
20.5313 11.785
20.5464 11.417
20.5616 11.368
20.5768 11.335
20.5920 10.907
20.6071 10.885
20.6223 11.036
20.6375 11.004
20.6527 10.907
20.6678 10.922
20.6830 10.717
20.6982 10.626
20.7134 10.677
20.7285 10.468
20.7437 10.301
20.7589 10.647
20.7741 10.389
20.7892 10.411
20.8044 10.139
20.8196 10.211
20.8348 10.330
20.8499 10.371
20.8651 10.438
20.8803 10.078
20.8955 10.017
20.9106 10.143
20.9258 10.140
20.9410 10.431
20.9562 10.245
20.9713 10.144
20.9865 10.026
21.0017 9.997
21.0169 10.109
21.0320 10.028
21.0472 10.057
21.0624 9.865
21.0776 9.760
21.0927 10.074
21.1079 10.037
21.1231 9.679
21.1383 9.687
21.1534 9.743
21.1686 9.797
21.1838 9.908
21.1990 9.623
21.2141 9.568
21.2293 9.643
21.2445 9.828
21.2597 9.661
21.2748 9.678
21.2900 9.552
21.3052 9.598
21.3204 9.608
21.3355 9.433
21.3507 9.693
21.3659 9.375
21.3811 9.555
21.3962 9.685
21.4114 9.488
21.4266 9.238
21.4418 9.338
21.4569 9.476
21.4721 9.364
21.4873 9.238
21.5025 9.438
21.5176 9.395
21.5328 9.440
21.5480 9.183
21.5632 9.249
21.5783 9.194
21.5935 9.324
21.6087 9.342
21.6239 9.157
21.6390 9.061
21.6542 9.310
21.6694 9.159
21.6846 9.140
21.6997 9.227
21.7149 9.271
21.7301 9.100
21.7453 8.897
21.7604 9.026
21.7756 9.040
21.7908 9.071
21.8060 8.819
21.8211 8.999
21.8363 9.133
21.8515 9.085
21.8667 8.957
21.8818 9.177
21.8970 9.133
21.9122 9.155
21.9274 9.059
21.9425 8.920
21.9577 8.808
21.9729 8.752
21.9881 8.815
22.0032 8.836
22.0184 8.780
22.0336 8.739
22.0488 8.755
22.0639 8.717
22.0791 8.675
22.0943 8.787
22.1095 8.515
22.1246 8.540
22.1398 8.446
22.1550 8.477
22.1702 8.665
22.1853 8.674
22.2005 8.553
22.2157 8.752
22.2309 8.550
22.2460 8.569
22.2612 8.709
22.2764 8.741
22.2916 8.575
22.3067 8.469
22.3219 8.423
22.3371 8.239
22.3523 8.266
22.3674 8.332
22.3826 8.552
22.3978 8.362
22.4130 8.456
22.4281 8.392
22.4433 8.480
22.4585 8.169
22.4737 8.377
22.4888 8.457
22.5040 8.371
22.5192 8.511
22.5344 8.330
22.5495 8.348
22.5647 8.341
22.5799 8.294
22.5951 8.672
22.6102 8.515
22.6254 8.453
22.6406 8.454
22.6558 8.455
22.6709 8.465
22.6861 8.200
22.7013 8.384
22.7165 7.835
22.7316 6.455
