'Id: "" Comment: "" Operator: "Lab Manager" Anode: "Mo" Scantype: "Still (Eiger2R_500K (1D mode))" TimePerStep: "300" X: "11.8" Y: "9.4" Z: "11.284" 
7.2532 18.926
7.2684 18.664
7.2836 18.794
7.2987 18.262
7.3139 18.769
7.3291 19.029
7.3443 19.107
7.3594 19.161
7.3746 19.137
7.3898 19.395
7.4050 19.437
7.4201 19.558
7.4353 19.089
7.4505 19.102
7.4657 19.222
7.4808 19.411
7.4960 19.454
7.5112 19.706
7.5264 19.592
7.5415 19.513
7.5567 19.812
7.5719 19.949
7.5871 19.958
7.6022 19.915
7.6174 20.089
7.6326 19.925
7.6478 20.133
7.6629 20.297
7.6781 20.088
7.6933 20.137
7.7085 20.191
7.7236 20.217
7.7388 20.462
7.7540 20.444
7.7692 20.248
7.7843 20.167
7.7995 20.278
7.8147 20.673
7.8299 20.619
7.8450 20.603
7.8602 20.730
7.8754 20.550
7.8905 20.466
7.9057 20.539
7.9209 20.730
7.9361 20.811
7.9512 21.158
7.9664 20.942
7.9816 20.848
7.9968 20.849
8.0119 20.776
8.0271 20.842
8.0423 20.962
8.0575 21.079
8.0726 21.269
8.0878 20.866
8.1030 21.123
8.1182 20.997
8.1333 21.186
8.1485 21.104
8.1637 21.422
8.1789 21.168
8.1940 21.119
8.2092 21.492
8.2244 21.272
8.2396 21.467
8.2547 21.642
8.2699 21.384
8.2851 21.579
8.3003 21.484
8.3154 21.645
8.3306 21.270
8.3458 21.790
8.3610 21.218
8.3761 21.304
8.3913 21.305
8.4065 21.838
8.4217 21.444
8.4368 21.619
8.4520 21.923
8.4672 21.833
8.4824 22.138
8.4975 22.220
8.5127 21.700
8.5279 21.905
8.5431 21.770
8.5582 21.763
8.5734 21.907
8.5886 22.049
8.6038 22.296
8.6189 21.723
8.6341 22.218
8.6493 21.937
8.6645 21.486
8.6796 22.175
8.6948 21.853
8.7100 22.129
8.7252 21.806
8.7403 22.255
8.7555 22.281
8.7707 22.723
8.7859 22.330
8.8010 22.247
8.8162 22.224
8.8314 22.298
8.8466 22.735
8.8617 22.513
8.8769 22.545
8.8921 22.538
8.9073 22.266
8.9224 22.308
8.9376 22.326
8.9528 22.146
8.9680 22.040
8.9831 22.722
8.9983 22.597
9.0135 22.851
9.0287 22.805
9.0438 22.390
9.0590 22.373
9.0742 22.688
9.0894 22.899
9.1045 22.677
9.1197 22.332
9.1349 22.668
9.1501 22.743
9.1652 22.682
9.1804 22.608
9.1956 23.053
9.2108 23.093
9.2259 22.912
9.2411 23.132
9.2563 22.228
9.2715 22.532
9.2866 23.036
9.3018 22.839
9.3170 22.833
9.3322 22.790
9.3473 22.795
9.3625 22.574
9.3777 22.864
9.3929 22.931
9.4080 23.069
9.4232 22.676
9.4384 22.635
9.4536 22.675
9.4687 22.719
9.4839 22.966
9.4991 23.019
9.5143 23.007
9.5294 23.130
9.5446 23.205
9.5598 23.299
9.5750 23.058
9.5901 23.260
9.6053 23.275
9.6205 23.050
9.6357 23.098
9.6508 23.562
9.6660 23.776
9.6812 23.450
9.6964 23.182
9.7115 23.643
9.7267 23.982
9.7419 23.964
9.7571 23.987
9.7722 23.723
9.7874 23.592
9.8026 23.701
9.8178 23.323
9.8329 23.060
9.8481 23.057
9.8633 22.805
9.8785 23.014
9.8936 23.377
9.9088 23.350
9.9240 23.074
9.9392 22.691
9.9543 22.903
9.9695 23.030
9.9847 23.051
9.9999 22.925
10.0150 22.770
10.0302 22.993
10.0454 23.067
10.0606 23.044
10.0757 23.089
10.0909 23.223
10.1061 23.563
10.1213 23.439
10.1364 22.993
10.1516 23.054
10.1668 23.412
10.1820 23.250
10.1971 23.119
10.2123 23.220
10.2275 23.271
10.2427 23.153
10.2578 23.089
10.2730 23.139
10.2882 22.987
10.3034 22.752
10.3185 22.421
10.3337 22.332
10.3489 22.601
10.3641 22.506
10.3792 22.263
10.3944 22.690
10.4096 22.752
10.4248 22.576
10.4399 22.507
10.4551 22.958
10.4703 22.746
10.4855 22.520
10.5006 22.389
10.5158 22.730
10.5310 22.747
10.5462 22.457
10.5613 22.310
10.5765 22.263
10.5917 22.281
10.6069 22.593
10.6220 22.715
10.6372 22.452
10.6524 22.759
10.6676 22.417
10.6827 22.558
10.6979 22.424
10.7131 22.224
10.7283 22.284
10.7434 22.376
10.7586 22.446
10.7738 22.303
10.7890 22.453
10.8041 22.451
10.8193 22.338
10.8345 22.007
10.8497 21.916
10.8648 21.901
10.8800 22.107
10.8952 21.924
10.9104 22.467
10.9255 22.519
10.9407 22.022
10.9559 21.842
10.9711 21.462
10.9862 21.754
11.0014 22.234
11.0166 22.449
11.0318 22.336
11.0469 22.119
11.0621 21.986
11.0773 21.604
11.0925 21.377
11.1076 21.908
11.1228 21.858
11.1380 21.835
11.1532 21.882
11.1683 21.716
11.1835 21.538
11.1987 21.589
11.2139 21.218
11.2290 21.214
11.2442 21.873
11.2594 21.538
11.2746 21.130
11.2897 21.377
11.3049 21.490
11.3201 21.337
11.3353 21.254
11.3504 21.375
11.3656 21.411
11.3808 21.498
11.3960 21.553
11.4111 21.490
11.4263 21.420
11.4415 20.816
11.4567 20.908
11.4718 21.336
11.4870 21.258
11.5022 21.105
11.5174 20.886
11.5325 21.009
11.5477 20.759
11.5629 20.797
11.5781 20.681
11.5932 20.681
11.6084 20.673
11.6236 20.301
11.6388 20.444
11.6539 20.617
11.6691 20.196
11.6843 20.504
11.6995 20.677
11.7146 20.617
11.7298 20.537
11.7450 20.131
11.7602 20.513
11.7753 20.301
11.7905 20.235
11.8057 20.060
11.8209 19.863
11.8360 20.050
11.8512 20.126
11.8664 19.749
11.8816 19.690
11.8967 19.508
11.9119 19.513
11.9271 19.517
11.9423 19.762
11.9574 19.524
11.9726 19.139
11.9878 19.046
12.0030 19.029
12.0181 18.804
12.0333 19.047
12.0485 19.231
12.0637 18.983
12.0788 18.816
12.0940 19.015
12.1092 18.882
12.1244 18.829
12.1395 18.624
12.1547 18.331
12.1699 18.505
12.1851 18.358
12.2002 18.195
12.2154 17.876
12.2306 17.777
12.2458 17.901
12.2609 17.960
12.2761 17.924
12.2913 17.850
12.3065 18.085
12.3216 17.675
12.3368 17.848
12.3520 17.642
12.3672 17.331
12.3823 17.397
12.3975 17.186
12.4127 16.788
12.4279 16.921
12.4430 16.856
12.4582 16.929
12.4734 17.071
12.4886 16.923
12.5037 16.916
12.5189 16.915
12.5341 16.320
12.5493 16.265
12.5644 16.507
12.5796 16.484
12.5948 16.311
12.6100 16.063
12.6251 15.969
12.6403 15.759
12.6555 15.920
12.6707 16.038
12.6858 15.746
12.7010 15.664
12.7162 15.429
12.7314 15.522
12.7465 15.378
12.7617 15.386
12.7769 15.355
12.7921 15.292
12.8072 15.351
12.8224 15.280
12.8376 14.967
12.8528 14.919
12.8679 14.949
12.8831 14.911
12.8983 14.921
12.9135 14.831
12.9286 14.782
12.9438 14.583
12.9590 14.354
12.9742 14.370
12.9893 14.316
13.0045 14.379
13.0197 14.384
13.0349 14.137
13.0500 13.969
13.0652 13.730
13.0804 13.806
13.0956 13.846
13.1107 13.727
13.1259 13.785
13.1411 13.496
13.1563 13.247
13.1714 13.643
13.1866 13.867
13.2018 13.613
13.2170 13.576
13.2321 13.539
13.2473 13.218
13.2625 13.223
13.2777 13.325
13.2928 13.094
13.3080 13.051
13.3232 12.988
13.3384 12.976
13.3535 12.976
13.3687 13.024
13.3839 13.114
13.3991 12.933
13.4142 12.967
13.4294 12.826
13.4446 12.565
13.4598 12.687
13.4749 12.725
13.4901 12.683
13.5053 12.634
13.5205 12.436
13.5356 12.536
13.5508 12.600
13.5660 12.581
13.5812 12.310
13.5963 12.082
13.6115 12.223
13.6267 12.162
13.6419 12.220
13.6570 12.262
13.6722 12.221
13.6874 12.079
13.7026 12.093
13.7177 12.040
13.7329 12.143
13.7481 12.199
13.7633 12.062
13.7784 11.978
13.7936 12.130
13.8088 12.150
13.8239 12.321
13.8391 12.612
13.8543 12.483
13.8695 12.242
13.8846 12.011
13.8998 12.117
13.9150 12.184
13.9302 12.135
13.9453 12.035
13.9605 12.076
13.9757 11.763
13.9909 11.807
14.0060 11.795
14.0212 11.588
14.0364 11.250
14.0516 11.526
14.0667 11.689
14.0819 11.794
14.0971 11.803
14.1123 11.832
14.1274 11.833
14.1426 11.706
14.1578 11.272
14.1730 11.579
14.1881 11.872
14.2033 11.881
14.2185 11.738
14.2337 11.597
14.2488 11.367
14.2640 11.547
14.2792 12.029
14.2944 11.914
14.3095 11.838
14.3247 12.116
14.3399 12.207
14.3551 12.134
14.3702 12.724
14.3854 12.735
14.4006 12.735
14.4158 12.930
14.4309 12.939
14.4461 12.876
14.4613 12.619
14.4765 12.253
14.4916 11.909
14.5068 12.397
14.5220 11.855
14.5372 11.414
14.5523 11.426
14.5675 11.530
14.5827 11.001
14.5979 10.950
14.6130 10.763
14.6282 11.254
14.6434 11.007
14.6586 10.649
14.6737 10.552
14.6889 10.657
14.7041 10.546
14.7193 10.586
14.7344 10.664
14.7496 10.411
14.7648 10.594
14.7800 10.491
14.7951 10.570
14.8103 10.708
14.8255 10.401
14.8407 10.537
14.8558 10.587
14.8710 10.579
14.8862 10.350
14.9014 10.544
14.9165 10.513
14.9317 10.387
14.9469 10.341
14.9621 10.412
14.9772 10.174
14.9924 10.266
15.0076 10.091
15.0228 10.136
15.0379 10.513
15.0531 10.167
15.0683 10.043
15.0835 10.401
15.0986 10.209
15.1138 10.284
15.1290 10.091
15.1442 10.175
15.1593 10.053
15.1745 9.612
15.1897 10.278
15.2049 10.145
15.2200 10.134
15.2352 9.957
15.2504 9.772
15.2656 10.044
15.2807 9.869
15.2959 10.017
15.3111 10.166
15.3263 10.230
15.3414 10.402
15.3566 10.228
15.3718 10.155
15.3870 10.116
15.4021 10.111
15.4173 10.087
15.4325 10.354
15.4477 9.994
15.4628 10.336
15.4780 10.076
15.4932 9.928
15.5084 10.205
15.5235 10.098
15.5387 10.043
15.5539 10.206
15.5691 9.628
15.5842 10.041
15.5994 10.167
15.6146 10.026
15.6298 9.729
15.6449 9.676
15.6601 9.740
15.6753 9.648
15.6905 9.809
15.7056 9.600
15.7208 9.599
15.7360 9.552
15.7512 9.668
15.7663 9.439
15.7815 9.733
15.7967 9.769
15.8119 9.691
15.8270 9.812
15.8422 9.497
15.8574 9.768
15.8726 9.310
15.8877 9.256
15.9029 9.542
15.9181 9.418
15.9333 9.619
15.9484 9.553
15.9636 9.772
15.9788 9.408
15.9940 9.414
16.0091 9.491
16.0243 9.637
16.0395 9.633
16.0547 9.716
16.0698 9.401
16.0850 9.640
16.1002 9.466
16.1154 9.397
16.1305 9.732
16.1457 9.416
16.1609 9.705
16.1761 9.523
16.1912 9.655
16.2064 9.876
16.2216 9.582
16.2368 9.657
16.2519 9.631
16.2671 9.557
16.2823 9.539
16.2975 9.461
16.3126 9.704
16.3278 9.794
16.3430 9.701
16.3582 9.734
16.3733 9.667
16.3885 9.757
16.4037 9.724
16.4189 9.903
16.4340 9.783
16.4492 9.603
16.4644 9.689
16.4796 9.722
16.4947 9.756
16.5099 9.520
16.5251 9.301
16.5403 9.389
16.5554 9.638
16.5706 9.652
16.5858 9.497
16.6010 9.543
16.6161 9.651
16.6313 9.761
16.6465 9.759
16.6617 9.815
16.6768 9.817
16.6920 9.854
16.7072 9.738
16.7224 9.880
16.7375 10.015
16.7527 9.971
16.7679 9.661
16.7831 9.786
16.7982 9.898
16.8134 9.969
16.8286 9.975
16.8438 9.690
16.8589 9.674
16.8741 9.818
16.8893 9.744
16.9045 9.729
16.9196 9.855
16.9348 9.793
16.9500 9.640
16.9652 9.772
16.9803 9.852
16.9955 9.849
17.0107 9.973
17.0259 9.968
17.0410 9.870
17.0562 9.858
17.0714 9.913
17.0866 10.241
17.1017 10.577
17.1169 10.815
17.1321 10.834
17.1473 11.077
17.1624 11.633
17.1776 12.182
17.1928 12.815
17.2080 13.767
17.2231 15.186
17.2383 16.278
17.2535 17.635
17.2687 18.495
17.2838 18.501
17.2990 18.082
17.3142 16.960
17.3294 16.158
17.3445 16.159
17.3597 16.363
17.3749 16.061
17.3901 15.338
17.4052 14.348
17.4204 13.190
17.4356 12.429
17.4508 11.949
17.4659 11.750
17.4811 11.727
17.4963 11.460
17.5115 11.372
17.5266 11.011
17.5418 10.984
17.5570 11.108
17.5722 10.963
17.5873 11.039
17.6025 10.930
17.6177 11.097
17.6329 11.201
17.6480 11.484
17.6632 11.541
17.6784 11.204
17.6936 11.284
17.7087 11.306
17.7239 11.038
17.7391 11.146
17.7543 11.345
17.7694 11.141
17.7846 11.122
17.7998 10.985
17.8150 10.769
17.8301 10.684
17.8453 10.292
17.8605 10.245
17.8757 10.398
17.8908 10.341
17.9060 10.311
17.9212 10.238
17.9364 10.214
17.9515 10.055
17.9667 10.083
17.9819 10.015
17.9971 9.955
18.0122 10.051
18.0274 10.183
18.0426 10.321
18.0578 10.196
18.0729 10.027
18.0881 10.080
18.1033 10.018
18.1185 9.803
18.1336 10.032
18.1488 10.146
18.1640 10.032
18.1792 10.313
18.1943 10.302
18.2095 10.003
18.2247 9.779
18.2399 9.678
18.2550 9.703
18.2702 9.766
18.2854 9.759
18.3006 9.691
18.3157 9.790
18.3309 9.867
18.3461 9.733
18.3613 9.655
18.3764 9.623
18.3916 9.699
18.4068 9.786
18.4220 9.679
18.4371 9.811
18.4523 9.691
18.4675 9.681
18.4827 9.850
18.4978 9.735
18.5130 9.763
18.5282 10.012
18.5434 9.761
18.5585 9.624
18.5737 9.645
18.5889 9.797
18.6041 9.959
18.6192 9.897
18.6344 9.652
18.6496 9.744
18.6648 9.880
18.6799 9.835
18.6951 10.085
18.7103 9.894
18.7255 9.732
18.7406 9.591
18.7558 9.969
18.7710 10.076
18.7862 9.731
18.8013 9.588
18.8165 9.541
18.8317 9.905
18.8469 10.003
18.8620 9.960
18.8772 9.979
18.8924 10.000
18.9076 9.782
18.9227 9.761
18.9379 9.957
18.9531 10.134
18.9683 10.217
18.9834 10.243
18.9986 10.132
19.0138 10.180
19.0290 10.319
19.0441 10.224
19.0593 10.120
19.0745 10.332
19.0897 10.289
19.1048 10.330
19.1200 10.592
19.1352 10.522
19.1504 10.533
19.1655 10.636
19.1807 10.373
19.1959 10.340
19.2111 10.348
19.2262 10.578
19.2414 11.017
19.2566 11.011
19.2718 10.905
19.2869 11.019
19.3021 11.090
19.3173 11.067
19.3325 10.730
19.3476 10.902
19.3628 11.250
19.3780 11.237
19.3932 11.396
19.4083 11.487
19.4235 11.165
19.4387 11.242
19.4539 11.247
19.4690 11.302
19.4842 11.414
19.4994 11.496
19.5146 11.426
19.5297 11.333
19.5449 11.573
19.5601 11.695
19.5753 11.867
19.5904 11.760
19.6056 11.620
19.6208 11.621
19.6360 11.621
19.6511 11.658
19.6663 11.615
19.6815 11.752
19.6967 11.896
19.7118 11.836
19.7270 11.778
19.7422 11.780
19.7574 11.898
19.7725 12.117
19.7877 12.117
19.8029 12.185
19.8180 12.274
19.8332 12.108
19.8484 12.239
19.8636 12.426
19.8787 12.573
19.8939 12.945
19.9091 13.207
19.9243 13.619
19.9394 13.790
19.9546 13.965
19.9698 14.303
19.9850 14.461
20.0001 14.609
20.0153 14.021
20.0305 13.712
20.0457 13.768
20.0608 13.844
20.0760 13.888
20.0912 13.730
20.1064 13.604
20.1215 13.564
20.1367 13.417
20.1519 13.270
20.1671 13.134
20.1822 13.120
20.1974 12.816
20.2126 12.766
20.2278 12.871
20.2429 13.059
20.2581 12.631
20.2733 12.251
20.2885 12.220
20.3036 12.148
20.3188 12.102
20.3340 11.995
20.3492 11.973
20.3643 12.028
20.3795 11.491
20.3947 11.567
20.4099 11.914
20.4250 11.798
20.4402 11.885
20.4554 12.086
20.4706 12.161
20.4857 12.036
20.5009 11.805
20.5161 11.602
20.5313 11.424
20.5464 11.492
20.5616 11.269
20.5768 11.080
20.5920 11.050
20.6071 11.200
20.6223 11.278
20.6375 10.954
20.6527 10.557
20.6678 10.828
20.6830 10.665
20.6982 10.630
20.7134 10.859
20.7285 10.515
20.7437 10.464
20.7589 10.519
20.7741 10.137
20.7892 10.535
20.8044 10.150
20.8196 10.327
20.8348 10.772
20.8499 10.542
20.8651 10.380
20.8803 10.564
20.8955 10.580
20.9106 10.223
20.9258 10.247
20.9410 10.020
20.9562 10.455
20.9713 10.396
20.9865 10.253
21.0017 10.335
21.0169 9.843
21.0320 9.749
21.0472 9.746
21.0624 10.231
21.0776 10.209
21.0927 9.651
21.1079 9.698
21.1231 10.171
21.1383 9.963
21.1534 9.663
21.1686 9.909
21.1838 10.162
21.1990 9.725
21.2141 9.832
21.2293 9.902
21.2445 9.542
21.2597 9.574
21.2748 9.694
21.2900 9.673
21.3052 9.403
21.3204 9.420
21.3355 9.860
21.3507 9.477
21.3659 9.819
21.3811 9.778
21.3962 9.886
21.4114 9.489
21.4266 9.835
21.4418 9.429
21.4569 9.502
21.4721 9.324
21.4873 9.574
21.5025 9.124
21.5176 9.359
21.5328 9.365
21.5480 9.330
21.5632 9.149
21.5783 9.067
21.5935 9.244
21.6087 9.256
21.6239 9.179
21.6390 9.038
21.6542 9.232
21.6694 9.490
21.6846 9.182
21.6997 8.842
21.7149 9.053
21.7301 9.104
21.7453 9.255
21.7604 9.095
21.7756 9.083
21.7908 9.125
21.8060 8.963
21.8211 8.995
21.8363 9.021
21.8515 8.999
21.8667 8.991
21.8818 9.002
21.8970 9.008
21.9122 8.929
21.9274 8.890
21.9425 8.996
21.9577 8.851
21.9729 8.846
21.9881 8.851
22.0032 8.952
22.0184 8.936
22.0336 8.926
22.0488 8.876
22.0639 8.926
22.0791 8.966
22.0943 8.647
22.1095 8.635
22.1246 8.826
22.1398 8.578
22.1550 8.606
22.1702 8.853
22.1853 8.694
22.2005 8.698
22.2157 8.529
22.2309 8.494
22.2460 8.567
22.2612 8.464
22.2764 8.661
22.2916 8.574
22.3067 8.410
22.3219 8.569
22.3371 8.360
22.3523 8.512
22.3674 8.158
22.3826 8.288
22.3978 8.410
22.4130 8.642
22.4281 8.511
22.4433 8.234
22.4585 8.123
22.4737 8.308
22.4888 8.400
22.5040 8.526
22.5192 8.501
22.5344 8.135
22.5495 8.848
22.5647 8.550
22.5799 8.289
22.5951 8.467
22.6102 8.622
22.6254 8.499
22.6406 8.115
22.6558 8.311
22.6709 8.328
22.6861 8.374
22.7013 7.998
22.7165 7.739
22.7316 6.384
