'Id: "" Comment: "" Operator: "Lab Manager" Anode: "Mo" Scantype: "Still (Eiger2R_500K (1D mode))" TimePerStep: "300" X: "11.8" Y: "9.4" Z: "11.284" 
7.2532 19.044
7.2684 18.550
7.2836 18.748
7.2987 18.815
7.3139 18.982
7.3291 19.392
7.3443 19.288
7.3594 19.000
7.3746 19.148
7.3898 19.115
7.4050 19.563
7.4201 19.253
7.4353 19.350
7.4505 19.233
7.4657 19.492
7.4808 19.605
7.4960 19.731
7.5112 19.915
7.5264 19.272
7.5415 19.159
7.5567 19.784
7.5719 20.041
7.5871 20.308
7.6022 20.135
7.6174 19.819
7.6326 20.185
7.6478 20.075
7.6629 20.049
7.6781 20.167
7.6933 20.083
7.7085 20.376
7.7236 20.482
7.7388 20.327
7.7540 20.454
7.7692 20.366
7.7843 20.580
7.7995 20.675
7.8147 20.083
7.8299 20.303
7.8450 20.574
7.8602 20.807
7.8754 20.696
7.8905 20.566
7.9057 20.866
7.9209 20.894
7.9361 20.740
7.9512 21.151
7.9664 21.228
7.9816 21.041
7.9968 20.892
8.0119 20.703
8.0271 20.796
8.0423 21.053
8.0575 21.197
8.0726 20.919
8.0878 20.885
8.1030 21.124
8.1182 21.797
8.1333 21.494
8.1485 21.238
8.1637 21.578
8.1789 21.364
8.1940 21.089
8.2092 21.057
8.2244 21.696
8.2396 21.834
8.2547 21.657
8.2699 21.221
8.2851 21.618
8.3003 21.443
8.3154 21.596
8.3306 21.609
8.3458 21.803
8.3610 21.878
8.3761 21.856
8.3913 22.054
8.4065 21.800
8.4217 21.840
8.4368 22.099
8.4520 22.037
8.4672 22.062
8.4824 21.755
8.4975 22.145
8.5127 22.061
8.5279 21.950
8.5431 22.135
8.5582 22.272
8.5734 22.095
8.5886 21.497
8.6038 22.315
8.6189 22.260
8.6341 22.223
8.6493 22.400
8.6645 22.355
8.6796 22.327
8.6948 22.282
8.7100 22.491
8.7252 22.276
8.7403 22.590
8.7555 22.768
8.7707 22.778
8.7859 22.617
8.8010 22.336
8.8162 22.350
8.8314 21.914
8.8466 22.663
8.8617 22.034
8.8769 22.587
8.8921 22.635
8.9073 22.572
8.9224 22.088
8.9376 22.652
8.9528 22.717
8.9680 22.866
8.9831 22.881
8.9983 22.709
9.0135 22.840
9.0287 22.956
9.0438 23.048
9.0590 22.865
9.0742 22.885
9.0894 22.767
9.1045 22.664
9.1197 22.943
9.1349 23.077
9.1501 23.057
9.1652 23.128
9.1804 22.937
9.1956 22.699
9.2108 22.783
9.2259 22.924
9.2411 22.791
9.2563 23.278
9.2715 23.206
9.2866 23.038
9.3018 23.164
9.3170 22.985
9.3322 22.961
9.3473 22.866
9.3625 22.839
9.3777 23.002
9.3929 23.325
9.4080 23.105
9.4232 23.009
9.4384 23.281
9.4536 23.326
9.4687 23.184
9.4839 23.407
9.4991 23.539
9.5143 22.980
9.5294 23.168
9.5446 23.442
9.5598 23.375
9.5750 23.383
9.5901 23.377
9.6053 23.596
9.6205 23.638
9.6357 23.421
9.6508 23.617
9.6660 23.980
9.6812 24.015
9.6964 24.152
9.7115 24.290
9.7267 24.066
9.7419 24.183
9.7571 24.185
9.7722 24.021
9.7874 23.835
9.8026 24.022
9.8178 23.842
9.8329 23.595
9.8481 23.381
9.8633 23.339
9.8785 23.398
9.8936 22.958
9.9088 23.187
9.9240 23.431
9.9392 23.207
9.9543 23.239
9.9695 23.071
9.9847 23.437
9.9999 23.640
10.0150 23.467
10.0302 23.450
10.0454 23.390
10.0606 23.441
10.0757 23.494
10.0909 23.567
10.1061 23.525
10.1213 23.378
10.1364 23.291
10.1516 23.541
10.1668 23.383
10.1820 23.065
10.1971 23.008
10.2123 22.990
10.2275 23.399
10.2427 23.054
10.2578 22.810
10.2730 22.917
10.2882 22.764
10.3034 22.745
10.3185 22.709
10.3337 22.913
10.3489 22.662
10.3641 22.639
10.3792 22.606
10.3944 22.648
10.4096 22.931
10.4248 22.450
10.4399 22.618
10.4551 22.488
10.4703 22.723
10.4855 22.702
10.5006 22.813
10.5158 22.626
10.5310 22.537
10.5462 22.368
10.5613 22.361
10.5765 22.581
10.5917 22.396
10.6069 22.443
10.6220 22.764
10.6372 22.605
10.6524 22.312
10.6676 22.472
10.6827 22.559
10.6979 22.634
10.7131 22.617
10.7283 22.503
10.7434 22.145
10.7586 22.110
10.7738 22.495
10.7890 22.399
10.8041 22.501
10.8193 22.547
10.8345 22.409
10.8497 22.303
10.8648 21.890
10.8800 22.334
10.8952 22.178
10.9104 22.119
10.9255 22.066
10.9407 21.859
10.9559 22.157
10.9711 21.775
10.9862 21.968
11.0014 21.808
11.0166 22.096
11.0318 22.478
11.0469 22.025
11.0621 21.935
11.0773 21.572
11.0925 21.955
11.1076 21.813
11.1228 21.561
11.1380 21.800
11.1532 22.026
11.1683 21.733
11.1835 21.617
11.1987 21.560
11.2139 22.045
11.2290 21.776
11.2442 21.657
11.2594 21.650
11.2746 21.568
11.2897 21.665
11.3049 21.660
11.3201 21.564
11.3353 21.199
11.3504 21.266
11.3656 21.180
11.3808 21.141
11.3960 21.039
11.4111 21.056
11.4263 20.974
11.4415 20.768
11.4567 20.904
11.4718 21.074
11.4870 21.546
11.5022 21.305
11.5174 20.942
11.5325 20.928
11.5477 20.915
11.5629 20.999
11.5781 21.079
11.5932 20.816
11.6084 20.848
11.6236 20.582
11.6388 20.353
11.6539 20.464
11.6691 20.698
11.6843 20.419
11.6995 20.381
11.7146 20.604
11.7298 20.978
11.7450 20.308
11.7602 20.149
11.7753 20.362
11.7905 20.492
11.8057 20.192
11.8209 19.725
11.8360 19.842
11.8512 19.987
11.8664 20.178
11.8816 19.896
11.8967 19.641
11.9119 19.547
11.9271 19.825
11.9423 19.700
11.9574 19.199
11.9726 19.390
11.9878 19.281
12.0030 18.936
12.0181 18.926
12.0333 18.979
12.0485 19.099
12.0637 18.921
12.0788 18.875
12.0940 18.783
12.1092 18.744
12.1244 18.690
12.1395 18.780
12.1547 18.757
12.1699 18.476
12.1851 17.988
12.2002 18.081
12.2154 18.414
12.2306 18.301
12.2458 18.205
12.2609 17.996
12.2761 18.085
12.2913 17.798
12.3065 17.607
12.3216 17.625
12.3368 17.946
12.3520 17.745
12.3672 17.431
12.3823 17.348
12.3975 17.203
12.4127 17.284
12.4279 17.231
12.4430 16.788
12.4582 16.855
12.4734 16.812
12.4886 16.855
12.5037 16.904
12.5189 16.843
12.5341 16.809
12.5493 16.737
12.5644 16.576
12.5796 16.579
12.5948 16.339
12.6100 16.220
12.6251 16.222
12.6403 16.074
12.6555 15.794
12.6707 15.692
12.6858 15.641
12.7010 15.589
12.7162 15.758
12.7314 15.425
12.7465 15.360
12.7617 15.471
12.7769 15.450
12.7921 15.382
12.8072 14.948
12.8224 14.883
12.8376 15.105
12.8528 14.997
12.8679 14.729
12.8831 14.795
12.8983 14.900
12.9135 14.677
12.9286 14.692
12.9438 14.442
12.9590 14.379
12.9742 14.466
12.9893 14.435
13.0045 14.311
13.0197 14.049
13.0349 14.083
13.0500 14.117
13.0652 14.149
13.0804 13.861
13.0956 13.808
13.1107 13.930
13.1259 13.797
13.1411 13.776
13.1563 13.908
13.1714 13.768
13.1866 13.572
13.2018 13.695
13.2170 13.672
13.2321 13.587
13.2473 13.576
13.2625 13.409
13.2777 13.309
13.2928 13.461
13.3080 13.316
13.3232 13.194
13.3384 13.209
13.3535 13.164
13.3687 13.191
13.3839 13.270
13.3991 13.276
13.4142 13.211
13.4294 12.994
13.4446 12.892
13.4598 12.866
13.4749 12.840
13.4901 12.751
13.5053 12.617
13.5205 12.465
13.5356 12.449
13.5508 12.250
13.5660 12.471
13.5812 12.510
13.5963 12.436
13.6115 12.296
13.6267 12.334
13.6419 12.239
13.6570 12.322
13.6722 12.177
13.6874 12.161
13.7026 12.128
13.7177 11.980
13.7329 12.083
13.7481 11.971
13.7633 11.968
13.7784 12.323
13.7936 12.228
13.8088 12.346
13.8239 12.267
13.8391 12.345
13.8543 12.353
13.8695 12.382
13.8846 12.345
13.8998 12.341
13.9150 12.189
13.9302 12.317
13.9453 12.181
13.9605 11.928
13.9757 11.518
13.9909 11.507
14.0060 11.502
14.0212 11.602
14.0364 11.923
14.0516 11.852
14.0667 11.463
14.0819 11.367
14.0971 11.696
14.1123 11.533
14.1274 11.565
14.1426 11.539
14.1578 11.700
14.1730 11.830
14.1881 11.898
14.2033 11.980
14.2185 11.646
14.2337 11.748
14.2488 12.206
14.2640 12.052
14.2792 11.964
14.2944 11.848
14.3095 12.177
14.3247 12.071
14.3399 12.317
14.3551 12.542
14.3702 12.872
14.3854 12.678
14.4006 13.061
14.4158 12.929
14.4309 12.937
14.4461 12.896
14.4613 12.731
14.4765 12.091
14.4916 12.124
14.5068 12.127
14.5220 11.957
14.5372 11.611
14.5523 11.530
14.5675 11.386
14.5827 11.137
14.5979 10.788
14.6130 10.968
14.6282 10.827
14.6434 10.796
14.6586 10.606
14.6737 10.682
14.6889 10.610
14.7041 11.030
14.7193 10.653
14.7344 10.643
14.7496 10.538
14.7648 10.598
14.7800 10.769
14.7951 10.420
14.8103 10.256
14.8255 10.440
14.8407 10.489
14.8558 10.564
14.8710 10.441
14.8862 10.719
14.9014 10.654
14.9165 10.947
14.9317 10.430
14.9469 10.545
14.9621 10.768
14.9772 10.060
14.9924 10.468
15.0076 10.291
15.0228 10.061
15.0379 10.604
15.0531 10.278
15.0683 10.021
15.0835 10.402
15.0986 10.347
15.1138 10.268
15.1290 10.126
15.1442 10.419
15.1593 10.254
15.1745 10.276
15.1897 10.284
15.2049 10.327
15.2200 10.384
15.2352 10.046
15.2504 10.112
15.2656 10.370
15.2807 10.269
15.2959 10.139
15.3111 10.281
15.3263 10.033
15.3414 10.263
15.3566 10.421
15.3718 10.236
15.3870 10.262
15.4021 10.418
15.4173 10.058
15.4325 10.537
15.4477 10.053
15.4628 10.328
15.4780 10.260
15.4932 10.124
15.5084 9.973
15.5235 10.138
15.5387 10.123
15.5539 10.248
15.5691 10.068
15.5842 10.260
15.5994 9.962
15.6146 9.838
15.6298 9.596
15.6449 9.857
15.6601 10.121
15.6753 9.605
15.6905 9.815
15.7056 9.880
15.7208 9.903
15.7360 9.950
15.7512 10.160
15.7663 9.874
15.7815 9.879
15.7967 9.937
15.8119 9.776
15.8270 9.836
15.8422 9.901
15.8574 9.813
15.8726 9.711
15.8877 9.505
15.9029 9.647
15.9181 9.453
15.9333 9.722
15.9484 9.762
15.9636 9.902
15.9788 9.528
15.9940 9.787
16.0091 9.512
16.0243 9.648
16.0395 9.622
16.0547 9.547
16.0698 9.483
16.0850 9.268
16.1002 9.283
16.1154 9.743
16.1305 9.885
16.1457 9.843
16.1609 9.844
16.1761 9.573
16.1912 9.574
16.2064 9.754
16.2216 9.779
16.2368 9.856
16.2519 9.938
16.2671 9.894
16.2823 9.974
16.2975 9.756
16.3126 9.753
16.3278 9.638
16.3430 9.850
16.3582 10.229
16.3733 10.056
16.3885 9.899
16.4037 9.984
16.4189 10.192
16.4340 9.941
16.4492 9.557
16.4644 9.858
16.4796 9.851
16.4947 9.839
16.5099 9.619
16.5251 9.521
16.5403 9.859
16.5554 9.680
16.5706 9.407
16.5858 9.465
16.6010 9.669
16.6161 9.750
16.6313 9.615
16.6465 9.509
16.6617 9.782
16.6768 9.877
16.6920 9.974
16.7072 10.212
16.7224 9.976
16.7375 9.988
16.7527 9.845
16.7679 9.958
16.7831 10.047
16.7982 9.982
16.8134 10.128
16.8286 9.895
16.8438 9.659
16.8589 9.640
16.8741 9.797
16.8893 9.920
16.9045 9.691
16.9196 9.509
16.9348 9.513
16.9500 9.683
16.9652 9.779
16.9803 9.890
16.9955 9.984
17.0107 9.768
17.0259 9.964
17.0410 10.098
17.0562 10.006
17.0714 10.074
17.0866 10.217
17.1017 10.607
17.1169 10.983
17.1321 11.060
17.1473 11.306
17.1624 11.925
17.1776 12.265
17.1928 12.978
17.2080 14.118
17.2231 15.143
17.2383 16.176
17.2535 17.553
17.2687 18.617
17.2838 18.806
17.2990 18.219
17.3142 17.141
17.3294 16.470
17.3445 16.183
17.3597 16.246
17.3749 16.216
17.3901 15.434
17.4052 14.259
17.4204 13.364
17.4356 12.669
17.4508 12.068
17.4659 11.816
17.4811 11.904
17.4963 11.554
17.5115 11.253
17.5266 11.372
17.5418 10.941
17.5570 10.939
17.5722 11.136
17.5873 11.016
17.6025 11.075
17.6177 11.248
17.6329 11.396
17.6480 11.542
17.6632 11.622
17.6784 11.677
17.6936 11.618
17.7087 11.330
17.7239 11.236
17.7391 11.323
17.7543 11.125
17.7694 10.808
17.7846 10.938
17.7998 10.934
17.8150 10.697
17.8301 10.604
17.8453 10.498
17.8605 10.403
17.8757 10.449
17.8908 10.343
17.9060 10.343
17.9212 10.361
17.9364 10.185
17.9515 9.855
17.9667 9.889
17.9819 10.111
17.9971 10.153
18.0122 10.089
18.0274 10.092
18.0426 10.162
18.0578 10.274
18.0729 10.274
18.0881 10.146
18.1033 9.951
18.1185 9.909
18.1336 10.048
18.1488 10.142
18.1640 10.091
18.1792 10.142
18.1943 10.001
18.2095 9.936
18.2247 9.986
18.2399 10.059
18.2550 10.044
18.2702 9.958
18.2854 9.706
18.3006 9.570
18.3157 9.788
18.3309 9.847
18.3461 9.892
18.3613 9.741
18.3764 9.687
18.3916 9.925
18.4068 9.911
18.4220 9.773
18.4371 9.878
18.4523 9.857
18.4675 9.885
18.4827 9.489
18.4978 9.450
18.5130 9.666
18.5282 9.550
18.5434 9.562
18.5585 9.675
18.5737 9.813
18.5889 9.864
18.6041 9.755
18.6192 9.579
18.6344 9.557
18.6496 9.952
18.6648 10.109
18.6799 9.928
18.6951 9.927
18.7103 9.828
18.7255 9.567
18.7406 9.503
18.7558 9.655
18.7710 9.804
18.7862 9.886
18.8013 9.812
18.8165 9.766
18.8317 9.674
18.8469 9.729
18.8620 9.950
18.8772 10.000
18.8924 9.879
18.9076 10.072
18.9227 10.040
18.9379 9.894
18.9531 9.803
18.9683 9.959
18.9834 10.107
18.9986 10.026
19.0138 9.939
19.0290 10.082
19.0441 10.067
19.0593 10.188
19.0745 10.026
19.0897 9.786
19.1048 10.055
19.1200 10.237
19.1352 10.483
19.1504 10.549
19.1655 10.211
19.1807 10.437
19.1959 10.795
19.2111 10.851
19.2262 10.656
19.2414 10.565
19.2566 10.822
19.2718 10.808
19.2869 10.759
19.3021 10.897
19.3173 10.861
19.3325 10.839
19.3476 10.916
19.3628 11.163
19.3780 11.170
19.3932 11.308
19.4083 11.326
19.4235 11.051
19.4387 11.126
19.4539 11.201
19.4690 11.263
19.4842 11.433
19.4994 11.521
19.5146 11.714
19.5297 11.836
19.5449 11.599
19.5601 11.513
19.5753 11.516
19.5904 11.493
19.6056 11.464
19.6208 11.560
19.6360 11.748
19.6511 11.832
19.6663 11.626
19.6815 11.684
19.6967 11.866
19.7118 11.730
19.7270 11.758
19.7422 12.055
19.7574 12.017
19.7725 11.816
19.7877 12.029
19.8029 12.062
19.8180 11.875
19.8332 12.040
19.8484 12.250
19.8636 12.267
19.8787 12.419
19.8939 12.710
19.9091 13.176
19.9243 13.305
19.9394 13.524
19.9546 14.146
19.9698 14.447
19.9850 14.482
20.0001 14.391
20.0153 14.146
20.0305 13.972
20.0457 13.981
20.0608 13.909
20.0760 13.598
20.0912 13.416
20.1064 13.418
20.1215 13.396
20.1367 13.248
20.1519 13.126
20.1671 12.964
20.1822 12.690
20.1974 12.491
20.2126 12.545
20.2278 12.895
20.2429 12.804
20.2581 12.735
20.2733 12.389
20.2885 12.042
20.3036 12.010
20.3188 12.119
20.3340 12.292
20.3492 12.333
20.3643 12.015
20.3795 11.965
20.3947 11.704
20.4099 11.780
20.4250 11.823
20.4402 11.796
20.4554 12.062
20.4706 12.332
20.4857 11.883
20.5009 11.808
20.5161 11.617
20.5313 11.607
20.5464 11.268
20.5616 11.243
20.5768 11.099
20.5920 10.992
20.6071 11.336
20.6223 11.263
20.6375 11.101
20.6527 10.897
20.6678 10.644
20.6830 10.625
20.6982 10.625
20.7134 10.622
20.7285 10.541
20.7437 10.464
20.7589 10.249
20.7741 9.973
20.7892 10.082
20.8044 10.399
20.8196 10.416
20.8348 10.430
20.8499 10.239
20.8651 10.125
20.8803 10.231
20.8955 9.928
20.9106 9.952
20.9258 10.137
20.9410 10.221
20.9562 10.228
20.9713 10.125
20.9865 10.433
21.0017 10.007
21.0169 9.747
21.0320 9.966
21.0472 9.825
21.0624 9.992
21.0776 9.777
21.0927 10.071
21.1079 9.653
21.1231 9.889
21.1383 9.753
21.1534 9.575
21.1686 9.640
21.1838 9.609
21.1990 9.767
21.2141 9.752
21.2293 10.102
21.2445 9.597
21.2597 9.416
21.2748 9.542
21.2900 9.740
21.3052 9.746
21.3204 9.393
21.3355 9.888
21.3507 9.726
21.3659 9.439
21.3811 9.659
21.3962 9.363
21.4114 9.636
21.4266 9.395
21.4418 9.604
21.4569 9.425
21.4721 9.513
21.4873 9.344
21.5025 9.202
21.5176 9.497
21.5328 9.027
21.5480 9.414
21.5632 9.350
21.5783 9.196
21.5935 9.309
21.6087 9.255
21.6239 9.287
21.6390 9.233
21.6542 9.090
21.6694 9.199
21.6846 9.185
21.6997 9.151
21.7149 9.133
21.7301 9.094
21.7453 9.123
21.7604 8.897
21.7756 8.997
21.7908 9.026
21.8060 9.110
21.8211 9.034
21.8363 9.113
21.8515 9.124
21.8667 9.099
21.8818 8.975
21.8970 9.047
21.9122 9.045
21.9274 8.768
21.9425 8.931
21.9577 9.175
21.9729 9.028
21.9881 8.915
22.0032 8.889
22.0184 8.840
22.0336 8.796
22.0488 8.730
22.0639 8.767
22.0791 8.761
22.0943 8.803
22.1095 8.724
22.1246 8.723
22.1398 8.752
22.1550 8.669
22.1702 8.623
22.1853 8.866
22.2005 8.648
22.2157 8.593
22.2309 8.756
22.2460 8.695
22.2612 8.493
22.2764 8.604
22.2916 8.541
22.3067 8.456
22.3219 8.609
22.3371 8.589
22.3523 8.641
22.3674 8.148
22.3826 8.471
22.3978 8.698
22.4130 8.469
22.4281 8.347
22.4433 8.423
22.4585 8.753
22.4737 8.438
22.4888 8.364
22.5040 8.485
22.5192 8.364
22.5344 8.382
22.5495 8.442
22.5647 8.628
22.5799 8.431
22.5951 8.326
22.6102 8.521
22.6254 8.432
22.6406 8.512
22.6558 8.296
22.6709 8.486
22.6861 8.610
22.7013 8.279
22.7165 8.142
22.7316 6.408
