'Id: "" Comment: "" Operator: "Lab Manager" Anode: "Mo" Scantype: "Still (Eiger2R_500K (1D mode))" TimePerStep: "300" X: "11.8" Y: "9.4" Z: "11.284" 
7.2532 18.710
7.2684 18.565
7.2836 18.849
7.2987 19.058
7.3139 18.796
7.3291 19.171
7.3443 18.787
7.3594 19.595
7.3746 19.498
7.3898 19.569
7.4050 19.279
7.4201 19.494
7.4353 19.317
7.4505 19.277
7.4657 19.528
7.4808 19.576
7.4960 19.193
7.5112 19.603
7.5264 19.577
7.5415 19.762
7.5567 19.929
7.5719 19.888
7.5871 19.998
7.6022 20.091
7.6174 20.223
7.6326 20.144
7.6478 20.082
7.6629 20.089
7.6781 20.131
7.6933 20.199
7.7085 20.508
7.7236 20.817
7.7388 20.324
7.7540 20.107
7.7692 20.426
7.7843 20.441
7.7995 20.406
7.8147 20.480
7.8299 20.700
7.8450 20.612
7.8602 20.538
7.8754 21.133
7.8905 21.106
7.9057 20.877
7.9209 20.875
7.9361 21.026
7.9512 20.892
7.9664 20.911
7.9816 21.329
7.9968 21.273
8.0119 21.191
8.0271 21.054
8.0423 21.145
8.0575 21.135
8.0726 21.251
8.0878 20.984
8.1030 21.128
8.1182 21.534
8.1333 21.257
8.1485 21.635
8.1637 21.692
8.1789 21.574
8.1940 21.186
8.2092 21.524
8.2244 21.505
8.2396 21.732
8.2547 22.051
8.2699 21.845
8.2851 21.900
8.3003 22.015
8.3154 21.973
8.3306 21.778
8.3458 21.542
8.3610 21.944
8.3761 21.981
8.3913 22.308
8.4065 21.991
8.4217 21.725
8.4368 21.785
8.4520 21.687
8.4672 22.445
8.4824 21.697
8.4975 22.361
8.5127 21.752
8.5279 21.689
8.5431 22.222
8.5582 22.232
8.5734 21.879
8.5886 22.448
8.6038 22.370
8.6189 22.046
8.6341 22.333
8.6493 22.228
8.6645 22.745
8.6796 22.665
8.6948 22.050
8.7100 22.421
8.7252 22.346
8.7403 21.953
8.7555 22.162
8.7707 22.471
8.7859 22.390
8.8010 22.139
8.8162 22.293
8.8314 22.711
8.8466 22.311
8.8617 22.325
8.8769 22.229
8.8921 22.893
8.9073 22.410
8.9224 22.161
8.9376 22.628
8.9528 22.501
8.9680 22.238
8.9831 22.791
8.9983 23.030
9.0135 22.803
9.0287 22.931
9.0438 22.855
9.0590 22.507
9.0742 22.749
9.0894 22.882
9.1045 22.777
9.1197 22.749
9.1349 22.589
9.1501 22.994
9.1652 22.725
9.1804 22.441
9.1956 23.007
9.2108 22.832
9.2259 22.675
9.2411 22.879
9.2563 23.229
9.2715 23.212
9.2866 23.062
9.3018 22.730
9.3170 23.179
9.3322 22.634
9.3473 22.769
9.3625 23.006
9.3777 23.159
9.3929 23.290
9.4080 22.858
9.4232 23.243
9.4384 23.302
9.4536 23.013
9.4687 23.173
9.4839 23.287
9.4991 23.056
9.5143 22.933
9.5294 22.999
9.5446 23.177
9.5598 23.335
9.5750 23.220
9.5901 23.201
9.6053 23.474
9.6205 23.315
9.6357 23.137
9.6508 23.527
9.6660 23.613
9.6812 23.737
9.6964 23.729
9.7115 23.958
9.7267 24.212
9.7419 24.329
9.7571 24.203
9.7722 24.105
9.7874 23.824
9.8026 23.379
9.8178 23.668
9.8329 23.996
9.8481 23.853
9.8633 23.496
9.8785 23.220
9.8936 23.418
9.9088 23.403
9.9240 22.999
9.9392 22.939
9.9543 23.181
9.9695 23.312
9.9847 23.706
9.9999 23.480
10.0150 23.199
10.0302 23.637
10.0454 23.542
10.0606 23.356
10.0757 22.961
10.0909 23.262
10.1061 23.416
10.1213 23.579
10.1364 23.483
10.1516 23.654
10.1668 23.692
10.1820 23.482
10.1971 23.530
10.2123 23.291
10.2275 22.831
10.2427 23.073
10.2578 23.109
10.2730 22.695
10.2882 22.865
10.3034 22.849
10.3185 22.989
10.3337 23.294
10.3489 22.869
10.3641 22.638
10.3792 22.693
10.3944 22.805
10.4096 22.507
10.4248 22.231
10.4399 22.638
10.4551 22.735
10.4703 22.657
10.4855 22.530
10.5006 22.386
10.5158 22.527
10.5310 22.689
10.5462 22.917
10.5613 23.280
10.5765 23.181
10.5917 22.982
10.6069 22.745
10.6220 22.672
10.6372 22.742
10.6524 22.645
10.6676 22.590
10.6827 22.749
10.6979 22.534
10.7131 22.140
10.7283 22.429
10.7434 22.349
10.7586 22.191
10.7738 22.446
10.7890 22.327
10.8041 22.479
10.8193 22.564
10.8345 22.309
10.8497 22.213
10.8648 22.501
10.8800 22.007
10.8952 22.458
10.9104 22.664
10.9255 22.578
10.9407 22.396
10.9559 22.028
10.9711 22.277
10.9862 22.019
11.0014 21.872
11.0166 22.082
11.0318 22.060
11.0469 22.009
11.0621 21.936
11.0773 22.127
11.0925 21.963
11.1076 21.971
11.1228 21.993
11.1380 22.027
11.1532 21.872
11.1683 21.629
11.1835 21.745
11.1987 21.786
11.2139 21.641
11.2290 21.555
11.2442 21.539
11.2594 21.606
11.2746 21.766
11.2897 21.791
11.3049 21.946
11.3201 21.663
11.3353 21.819
11.3504 21.466
11.3656 21.355
11.3808 21.792
11.3960 21.589
11.4111 21.371
11.4263 21.218
11.4415 21.393
11.4567 21.509
11.4718 21.296
11.4870 20.976
11.5022 21.069
11.5174 21.099
11.5325 21.165
11.5477 21.155
11.5629 21.242
11.5781 20.911
11.5932 20.745
11.6084 20.872
11.6236 21.021
11.6388 20.892
11.6539 20.711
11.6691 20.756
11.6843 20.701
11.6995 20.347
11.7146 20.424
11.7298 20.644
11.7450 20.517
11.7602 20.146
11.7753 20.230
11.7905 20.109
11.8057 20.008
11.8209 20.075
11.8360 19.943
11.8512 19.747
11.8664 19.649
11.8816 19.808
11.8967 19.517
11.9119 19.479
11.9271 19.445
11.9423 19.637
11.9574 19.652
11.9726 19.360
11.9878 19.189
12.0030 19.177
12.0181 19.195
12.0333 18.966
12.0485 19.002
12.0637 18.914
12.0788 19.013
12.0940 18.837
12.1092 18.548
12.1244 18.810
12.1395 18.913
12.1547 18.660
12.1699 18.607
12.1851 18.590
12.2002 18.224
12.2154 18.331
12.2306 18.233
12.2458 18.035
12.2609 17.994
12.2761 17.933
12.2913 17.838
12.3065 17.933
12.3216 17.868
12.3368 17.548
12.3520 17.523
12.3672 17.158
12.3823 17.170
12.3975 17.306
12.4127 17.291
12.4279 17.103
12.4430 17.035
12.4582 17.033
12.4734 16.973
12.4886 16.441
12.5037 16.426
12.5189 16.763
12.5341 16.564
12.5493 16.214
12.5644 16.215
12.5796 16.203
12.5948 16.402
12.6100 16.210
12.6251 16.073
12.6403 15.974
12.6555 15.867
12.6707 15.660
12.6858 15.587
12.7010 15.719
12.7162 15.490
12.7314 15.430
12.7465 15.784
12.7617 15.911
12.7769 15.785
12.7921 15.463
12.8072 15.359
12.8224 15.385
12.8376 15.389
12.8528 15.153
12.8679 14.860
12.8831 14.717
12.8983 14.659
12.9135 14.564
12.9286 14.736
12.9438 14.731
12.9590 14.452
12.9742 14.447
12.9893 14.291
13.0045 14.186
13.0197 14.457
13.0349 14.153
13.0500 13.994
13.0652 14.024
13.0804 13.890
13.0956 14.073
13.1107 13.902
13.1259 13.732
13.1411 13.909
13.1563 13.802
13.1714 13.622
13.1866 13.457
13.2018 13.447
13.2170 13.471
13.2321 13.394
13.2473 13.433
13.2625 13.350
13.2777 13.388
13.2928 13.441
13.3080 13.301
13.3232 13.225
13.3384 13.123
13.3535 13.242
13.3687 13.487
13.3839 13.185
13.3991 13.176
13.4142 13.230
13.4294 13.180
13.4446 12.945
13.4598 12.597
13.4749 12.734
13.4901 12.765
13.5053 12.602
13.5205 12.366
13.5356 12.604
13.5508 12.711
13.5660 12.405
13.5812 12.322
13.5963 12.423
13.6115 12.307
13.6267 12.209
13.6419 12.068
13.6570 12.304
13.6722 12.666
13.6874 12.372
13.7026 11.977
13.7177 11.944
13.7329 12.193
13.7481 12.254
13.7633 12.126
13.7784 12.063
13.7936 12.169
13.8088 12.193
13.8239 12.263
13.8391 12.275
13.8543 12.355
13.8695 12.418
13.8846 12.428
13.8998 12.279
13.9150 12.259
13.9302 11.899
13.9453 12.013
13.9605 11.824
13.9757 11.866
13.9909 11.801
14.0060 11.721
14.0212 11.615
14.0364 11.650
14.0516 11.526
14.0667 11.328
14.0819 11.338
14.0971 11.666
14.1123 11.547
14.1274 11.528
14.1426 11.241
14.1578 11.431
14.1730 11.350
14.1881 11.463
14.2033 11.684
14.2185 11.691
14.2337 11.503
14.2488 11.527
14.2640 11.743
14.2792 11.725
14.2944 12.102
14.3095 12.227
14.3247 12.400
14.3399 12.741
14.3551 13.150
14.3702 13.611
14.3854 13.595
14.4006 13.639
14.4158 13.709
14.4309 13.524
14.4461 13.272
14.4613 12.957
14.4765 12.709
14.4916 12.284
14.5068 12.371
14.5220 11.949
14.5372 11.549
14.5523 11.539
14.5675 11.252
14.5827 11.261
14.5979 11.108
14.6130 11.051
14.6282 10.934
14.6434 10.894
14.6586 10.803
14.6737 10.908
14.6889 10.797
14.7041 10.816
14.7193 10.637
14.7344 10.836
14.7496 10.390
14.7648 10.564
14.7800 10.601
14.7951 10.545
14.8103 10.999
14.8255 10.635
14.8407 10.466
14.8558 10.494
14.8710 10.554
14.8862 10.667
14.9014 10.952
14.9165 11.227
14.9317 10.978
14.9469 10.559
14.9621 10.398
14.9772 10.227
14.9924 10.402
15.0076 10.849
15.0228 10.566
15.0379 10.536
15.0531 10.233
15.0683 10.197
15.0835 10.067
15.0986 10.594
15.1138 9.964
15.1290 10.361
15.1442 10.139
15.1593 10.109
15.1745 10.315
15.1897 10.284
15.2049 10.412
15.2200 10.240
15.2352 10.351
15.2504 10.216
15.2656 10.383
15.2807 10.172
15.2959 10.017
15.3111 10.538
15.3263 10.434
15.3414 10.194
15.3566 10.218
15.3718 10.229
15.3870 10.515
15.4021 10.386
15.4173 10.515
15.4325 10.237
15.4477 10.123
15.4628 10.057
15.4780 10.313
15.4932 10.405
15.5084 10.272
15.5235 10.167
15.5387 10.294
15.5539 10.006
15.5691 10.346
15.5842 10.055
15.5994 10.277
15.6146 9.874
15.6298 9.670
15.6449 9.900
15.6601 10.018
15.6753 9.719
15.6905 9.691
15.7056 9.904
15.7208 9.854
15.7360 9.910
15.7512 9.815
15.7663 10.081
15.7815 9.839
15.7967 9.635
15.8119 9.850
15.8270 9.794
15.8422 9.828
15.8574 9.747
15.8726 9.571
15.8877 9.426
15.9029 9.480
15.9181 9.704
15.9333 9.655
15.9484 9.553
15.9636 9.832
15.9788 9.844
15.9940 9.714
16.0091 9.694
16.0243 9.797
16.0395 9.738
16.0547 9.935
16.0698 9.694
16.0850 9.699
16.1002 9.817
16.1154 9.907
16.1305 9.754
16.1457 9.437
16.1609 9.530
16.1761 9.830
16.1912 9.615
16.2064 9.451
16.2216 9.797
16.2368 10.081
16.2519 10.048
16.2671 9.618
16.2823 9.807
16.2975 9.894
16.3126 9.923
16.3278 9.539
16.3430 9.748
16.3582 9.771
16.3733 9.988
16.3885 10.093
16.4037 10.018
16.4189 10.196
16.4340 10.084
16.4492 9.678
16.4644 9.671
16.4796 9.779
16.4947 9.869
16.5099 9.776
16.5251 9.838
16.5403 9.788
16.5554 9.658
16.5706 9.659
16.5858 9.723
16.6010 9.938
16.6161 9.631
16.6313 9.574
16.6465 9.690
16.6617 9.779
16.6768 9.909
16.6920 9.843
16.7072 9.837
16.7224 9.914
16.7375 10.033
16.7527 10.148
16.7679 10.068
16.7831 9.934
16.7982 10.053
16.8134 10.209
16.8286 10.163
16.8438 9.975
16.8589 9.950
16.8741 9.784
16.8893 9.673
16.9045 9.840
16.9196 9.793
16.9348 9.750
16.9500 9.716
16.9652 9.750
16.9803 9.649
16.9955 9.528
17.0107 9.812
17.0259 10.103
17.0410 9.994
17.0562 10.207
17.0714 10.427
17.0866 10.160
17.1017 10.443
17.1169 10.807
17.1321 10.914
17.1473 11.294
17.1624 11.875
17.1776 12.361
17.1928 13.126
17.2080 14.127
17.2231 15.146
17.2383 16.457
17.2535 17.574
17.2687 18.516
17.2838 18.516
17.2990 17.611
17.3142 17.103
17.3294 16.723
17.3445 16.179
17.3597 16.140
17.3749 16.035
17.3901 15.026
17.4052 13.825
17.4204 13.080
17.4356 12.360
17.4508 11.807
17.4659 11.674
17.4811 11.350
17.4963 11.129
17.5115 10.994
17.5266 10.846
17.5418 10.818
17.5570 10.954
17.5722 11.123
17.5873 11.176
17.6025 11.367
17.6177 11.416
17.6329 11.473
17.6480 11.661
17.6632 11.913
17.6784 12.067
17.6936 11.845
17.7087 11.592
17.7239 11.456
17.7391 11.261
17.7543 10.987
17.7694 11.003
17.7846 11.093
17.7998 11.075
17.8150 10.994
17.8301 10.627
17.8453 10.382
17.8605 10.254
17.8757 10.277
17.8908 10.427
17.9060 10.298
17.9212 10.373
17.9364 10.302
17.9515 9.965
17.9667 9.965
17.9819 10.305
17.9971 10.213
18.0122 10.255
18.0274 10.242
18.0426 10.192
18.0578 9.994
18.0729 9.837
18.0881 9.956
18.1033 10.139
18.1185 10.172
18.1336 10.025
18.1488 9.851
18.1640 9.854
18.1792 9.949
18.1943 9.783
18.2095 9.932
18.2247 10.118
18.2399 9.988
18.2550 9.956
18.2702 9.873
18.2854 9.851
18.3006 9.817
18.3157 9.864
18.3309 9.860
18.3461 9.930
18.3613 10.035
18.3764 9.975
18.3916 10.012
18.4068 9.806
18.4220 9.844
18.4371 9.873
18.4523 9.729
18.4675 9.745
18.4827 9.759
18.4978 9.862
18.5130 9.878
18.5282 9.791
18.5434 9.755
18.5585 9.699
18.5737 9.839
18.5889 9.927
18.6041 9.968
18.6192 9.672
18.6344 9.588
18.6496 9.833
18.6648 9.563
18.6799 9.678
18.6951 9.910
18.7103 9.777
18.7255 9.736
18.7406 9.905
18.7558 9.949
18.7710 9.961
18.7862 10.088
18.8013 9.832
18.8165 9.461
18.8317 9.532
18.8469 9.860
18.8620 9.668
18.8772 9.493
18.8924 9.869
18.9076 9.931
18.9227 10.052
18.9379 10.048
18.9531 9.931
18.9683 10.114
18.9834 10.271
18.9986 10.200
19.0138 10.186
19.0290 10.284
19.0441 10.295
19.0593 10.184
19.0745 10.307
19.0897 10.414
19.1048 10.332
19.1200 10.507
19.1352 10.443
19.1504 10.421
19.1655 10.696
19.1807 10.593
19.1959 10.449
19.2111 10.668
19.2262 10.926
19.2414 11.006
19.2566 10.939
19.2718 10.843
19.2869 10.857
19.3021 10.969
19.3173 10.970
19.3325 11.077
19.3476 11.270
19.3628 11.258
19.3780 11.089
19.3932 11.262
19.4083 11.337
19.4235 11.124
19.4387 11.282
19.4539 11.298
19.4690 11.231
19.4842 11.128
19.4994 11.228
19.5146 11.544
19.5297 11.348
19.5449 11.328
19.5601 11.397
19.5753 11.676
19.5904 11.638
19.6056 11.483
19.6208 11.870
19.6360 11.933
19.6511 11.775
19.6663 11.698
19.6815 11.645
19.6967 11.670
19.7118 11.701
19.7270 11.670
19.7422 11.500
19.7574 11.580
19.7725 11.759
19.7877 11.709
19.8029 11.613
19.8180 11.807
19.8332 12.043
19.8484 11.861
19.8636 12.139
19.8787 12.699
19.8939 12.852
19.9091 12.972
19.9243 13.408
19.9394 13.731
19.9546 13.790
19.9698 13.913
19.9850 14.346
20.0001 14.556
20.0153 14.461
20.0305 13.985
20.0457 13.629
20.0608 13.631
20.0760 13.625
20.0912 13.552
20.1064 13.348
20.1215 13.468
20.1367 13.155
20.1519 12.623
20.1671 12.647
20.1822 12.845
20.1974 12.444
20.2126 12.409
20.2278 12.664
20.2429 12.628
20.2581 12.399
20.2733 11.949
20.2885 11.956
20.3036 11.917
20.3188 11.964
20.3340 11.895
20.3492 11.826
20.3643 12.008
20.3795 12.036
20.3947 11.883
20.4099 11.729
20.4250 11.870
20.4402 11.962
20.4554 11.978
20.4706 12.132
20.4857 12.155
20.5009 11.607
20.5161 11.701
20.5313 11.767
20.5464 11.597
20.5616 11.325
20.5768 10.973
20.5920 11.370
20.6071 11.285
20.6223 10.828
20.6375 10.941
20.6527 10.730
20.6678 10.911
20.6830 10.894
20.6982 10.721
20.7134 10.485
20.7285 10.256
20.7437 10.573
20.7589 10.511
20.7741 10.366
20.7892 10.143
20.8044 10.458
20.8196 10.164
20.8348 10.363
20.8499 10.504
20.8651 10.323
20.8803 10.332
20.8955 10.101
20.9106 10.274
20.9258 10.148
20.9410 10.186
20.9562 10.083
20.9713 10.404
20.9865 9.804
21.0017 10.183
21.0169 10.132
21.0320 9.951
21.0472 10.011
21.0624 10.080
21.0776 9.855
21.0927 10.011
21.1079 10.140
21.1231 9.862
21.1383 9.825
21.1534 9.769
21.1686 9.658
21.1838 9.809
21.1990 9.506
21.2141 9.360
21.2293 9.714
21.2445 9.663
21.2597 9.759
21.2748 9.773
21.2900 9.233
21.3052 9.565
21.3204 9.570
21.3355 9.711
21.3507 9.433
21.3659 9.433
21.3811 9.534
21.3962 9.537
21.4114 9.315
21.4266 9.713
21.4418 9.583
21.4569 9.458
21.4721 9.677
21.4873 9.370
21.5025 9.661
21.5176 9.830
21.5328 9.265
21.5480 9.493
21.5632 9.427
21.5783 9.111
21.5935 9.250
21.6087 9.247
21.6239 9.064
21.6390 9.119
21.6542 9.029
21.6694 9.046
21.6846 9.324
21.6997 9.253
21.7149 9.215
21.7301 9.284
21.7453 9.051
21.7604 8.899
21.7756 8.978
21.7908 9.105
21.8060 9.103
21.8211 9.232
21.8363 9.272
21.8515 9.244
21.8667 9.077
21.8818 8.940
21.8970 9.145
21.9122 9.044
21.9274 9.108
21.9425 9.065
21.9577 8.872
21.9729 8.856
21.9881 9.049
22.0032 9.087
22.0184 8.811
22.0336 8.850
22.0488 8.697
22.0639 8.864
22.0791 8.962
22.0943 8.697
22.1095 8.655
22.1246 8.756
22.1398 8.908
22.1550 8.889
22.1702 8.736
22.1853 8.630
22.2005 8.651
22.2157 8.660
22.2309 8.612
22.2460 8.591
22.2612 8.566
22.2764 8.611
22.2916 8.667
22.3067 8.651
22.3219 8.526
22.3371 8.655
22.3523 8.528
22.3674 8.599
22.3826 8.136
22.3978 8.304
22.4130 8.572
22.4281 8.462
22.4433 8.566
22.4585 8.414
22.4737 8.393
22.4888 8.508
22.5040 8.438
22.5192 8.566
22.5344 8.420
22.5495 8.089
22.5647 8.342
22.5799 8.020
22.5951 8.585
22.6102 8.338
22.6254 8.290
22.6406 8.657
22.6558 8.616
22.6709 8.211
22.6861 8.145
22.7013 8.175
22.7165 8.155
22.7316 6.416
