'Id: "" Comment: "" Operator: "Lab Manager" Anode: "Mo" Scantype: "Still (Eiger2R_500K (1D mode))" TimePerStep: "300" X: "11.8" Y: "9.4" Z: "11.284" 
7.2532 19.009
7.2684 18.668
7.2836 18.265
7.2987 18.997
7.3139 19.279
7.3291 19.216
7.3443 18.956
7.3594 19.202
7.3746 19.381
7.3898 19.207
7.4050 19.179
7.4201 19.291
7.4353 19.083
7.4505 19.111
7.4657 19.295
7.4808 19.312
7.4960 19.243
7.5112 19.299
7.5264 19.363
7.5415 19.712
7.5567 19.597
7.5719 19.723
7.5871 19.926
7.6022 20.102
7.6174 20.076
7.6326 20.050
7.6478 19.780
7.6629 19.928
7.6781 20.245
7.6933 20.078
7.7085 20.276
7.7236 20.776
7.7388 20.727
7.7540 20.198
7.7692 20.330
7.7843 20.389
7.7995 20.341
7.8147 20.619
7.8299 20.511
7.8450 20.319
7.8602 20.584
7.8754 20.328
7.8905 20.249
7.9057 20.653
7.9209 20.575
7.9361 20.444
7.9512 20.470
7.9664 20.628
7.9816 20.890
7.9968 20.771
8.0119 20.776
8.0271 21.040
8.0423 21.195
8.0575 20.555
8.0726 20.971
8.0878 21.039
8.1030 21.258
8.1182 21.206
8.1333 20.922
8.1485 20.972
8.1637 21.039
8.1789 21.062
8.1940 21.450
8.2092 21.629
8.2244 21.116
8.2396 21.453
8.2547 21.783
8.2699 21.904
8.2851 21.965
8.3003 21.995
8.3154 22.164
8.3306 21.890
8.3458 21.931
8.3610 21.674
8.3761 21.429
8.3913 21.983
8.4065 21.930
8.4217 22.044
8.4368 21.514
8.4520 21.853
8.4672 21.701
8.4824 22.241
8.4975 22.155
8.5127 22.091
8.5279 21.769
8.5431 21.857
8.5582 21.910
8.5734 21.594
8.5886 21.896
8.6038 22.042
8.6189 22.239
8.6341 21.845
8.6493 22.268
8.6645 22.111
8.6796 21.975
8.6948 22.320
8.7100 22.489
8.7252 22.017
8.7403 21.998
8.7555 22.104
8.7707 22.025
8.7859 22.380
8.8010 22.758
8.8162 22.393
8.8314 22.483
8.8466 22.718
8.8617 22.295
8.8769 22.593
8.8921 22.344
8.9073 22.474
8.9224 22.432
8.9376 22.449
8.9528 22.423
8.9680 22.469
8.9831 22.401
8.9983 22.371
9.0135 22.557
9.0287 22.611
9.0438 22.747
9.0590 22.581
9.0742 22.638
9.0894 22.993
9.1045 22.754
9.1197 22.499
9.1349 22.673
9.1501 22.862
9.1652 22.708
9.1804 22.508
9.1956 22.596
9.2108 22.625
9.2259 22.367
9.2411 22.445
9.2563 22.789
9.2715 22.860
9.2866 22.784
9.3018 22.769
9.3170 23.020
9.3322 22.999
9.3473 22.768
9.3625 23.107
9.3777 23.183
9.3929 22.859
9.4080 22.711
9.4232 22.793
9.4384 23.078
9.4536 23.017
9.4687 22.680
9.4839 22.628
9.4991 22.806
9.5143 22.899
9.5294 22.720
9.5446 22.781
9.5598 23.127
9.5750 23.070
9.5901 22.989
9.6053 22.887
9.6205 22.919
9.6357 23.199
9.6508 22.965
9.6660 22.909
9.6812 22.996
9.6964 23.384
9.7115 24.186
9.7267 24.109
9.7419 24.018
9.7571 23.813
9.7722 23.598
9.7874 23.673
9.8026 23.692
9.8178 23.560
9.8329 23.304
9.8481 23.129
9.8633 23.278
9.8785 23.215
9.8936 23.037
9.9088 23.157
9.9240 23.115
9.9392 23.093
9.9543 23.097
9.9695 23.124
9.9847 23.000
9.9999 23.120
10.0150 23.261
10.0302 22.967
10.0454 23.007
10.0606 23.056
10.0757 23.087
10.0909 23.296
10.1061 23.379
10.1213 23.323
10.1364 23.145
10.1516 23.281
10.1668 23.260
10.1820 23.080
10.1971 23.026
10.2123 23.106
10.2275 22.903
10.2427 22.767
10.2578 22.844
10.2730 22.476
10.2882 22.618
10.3034 22.747
10.3185 22.549
10.3337 22.780
10.3489 22.730
10.3641 22.491
10.3792 22.589
10.3944 22.861
10.4096 22.518
10.4248 22.536
10.4399 22.645
10.4551 22.597
10.4703 22.854
10.4855 22.674
10.5006 22.535
10.5158 22.402
10.5310 22.499
10.5462 22.551
10.5613 22.479
10.5765 22.372
10.5917 22.422
10.6069 22.658
10.6220 22.503
10.6372 22.007
10.6524 22.432
10.6676 22.530
10.6827 22.292
10.6979 22.274
10.7131 22.190
10.7283 22.091
10.7434 22.034
10.7586 22.009
10.7738 22.131
10.7890 22.093
10.8041 22.332
10.8193 22.253
10.8345 22.564
10.8497 22.475
10.8648 22.158
10.8800 22.441
10.8952 22.036
10.9104 21.905
10.9255 21.894
10.9407 22.014
10.9559 21.669
10.9711 22.055
10.9862 22.144
11.0014 22.190
11.0166 22.030
11.0318 21.881
11.0469 21.924
11.0621 21.932
11.0773 21.831
11.0925 21.614
11.1076 21.930
11.1228 21.872
11.1380 21.572
11.1532 21.793
11.1683 21.525
11.1835 21.442
11.1987 21.398
11.2139 21.455
11.2290 21.762
11.2442 21.572
11.2594 21.547
11.2746 21.595
11.2897 21.808
11.3049 21.626
11.3201 21.421
11.3353 21.261
11.3504 21.471
11.3656 21.493
11.3808 21.638
11.3960 21.310
11.4111 21.218
11.4263 21.026
11.4415 20.771
11.4567 21.020
11.4718 21.027
11.4870 20.867
11.5022 20.951
11.5174 21.038
11.5325 20.912
11.5477 20.851
11.5629 20.883
11.5781 20.689
11.5932 20.578
11.6084 20.686
11.6236 20.690
11.6388 20.668
11.6539 20.743
11.6691 20.725
11.6843 20.625
11.6995 20.445
11.7146 20.259
11.7298 20.301
11.7450 20.015
11.7602 20.143
11.7753 20.275
11.7905 20.193
11.8057 20.051
11.8209 19.916
11.8360 19.840
11.8512 19.767
11.8664 19.600
11.8816 19.849
11.8967 19.543
11.9119 19.580
11.9271 20.081
11.9423 19.695
11.9574 19.582
11.9726 19.459
11.9878 19.305
12.0030 19.005
12.0181 18.778
12.0333 19.258
12.0485 19.174
12.0637 18.911
12.0788 18.923
12.0940 18.752
12.1092 19.008
12.1244 18.801
12.1395 18.637
12.1547 18.811
12.1699 18.311
12.1851 18.026
12.2002 18.126
12.2154 18.261
12.2306 17.821
12.2458 17.846
12.2609 17.956
12.2761 18.100
12.2913 17.834
12.3065 17.566
12.3216 17.563
12.3368 17.594
12.3520 17.292
12.3672 17.019
12.3823 17.336
12.3975 17.197
12.4127 17.001
12.4279 17.171
12.4430 17.059
12.4582 16.791
12.4734 17.009
12.4886 16.860
12.5037 16.328
12.5189 16.266
12.5341 16.454
12.5493 16.513
12.5644 16.292
12.5796 16.130
12.5948 16.020
12.6100 15.908
12.6251 15.881
12.6403 15.770
12.6555 15.644
12.6707 15.927
12.6858 15.975
12.7010 15.660
12.7162 15.403
12.7314 15.454
12.7465 15.535
12.7617 15.230
12.7769 15.188
12.7921 15.105
12.8072 15.119
12.8224 14.993
12.8376 14.876
12.8528 14.950
12.8679 14.945
12.8831 14.754
12.8983 14.719
12.9135 14.611
12.9286 14.483
12.9438 14.545
12.9590 14.241
12.9742 14.070
12.9893 14.182
13.0045 14.301
13.0197 14.335
13.0349 14.349
13.0500 14.126
13.0652 13.788
13.0804 13.803
13.0956 13.799
13.1107 13.635
13.1259 13.562
13.1411 13.510
13.1563 13.539
13.1714 13.645
13.1866 13.332
13.2018 13.199
13.2170 13.507
13.2321 13.496
13.2473 13.290
13.2625 13.149
13.2777 13.258
13.2928 13.280
13.3080 13.010
13.3232 12.876
13.3384 12.803
13.3535 12.722
13.3687 12.779
13.3839 13.061
13.3991 13.097
13.4142 12.977
13.4294 13.034
13.4446 12.820
13.4598 12.703
13.4749 12.859
13.4901 12.825
13.5053 12.446
13.5205 12.308
13.5356 12.558
13.5508 12.460
13.5660 12.227
13.5812 12.444
13.5963 12.503
13.6115 12.451
13.6267 12.341
13.6419 12.238
13.6570 12.149
13.6722 12.231
13.6874 12.344
13.7026 12.057
13.7177 12.155
13.7329 12.324
13.7481 12.124
13.7633 12.063
13.7784 12.147
13.7936 12.107
13.8088 12.135
13.8239 12.520
13.8391 12.304
13.8543 12.210
13.8695 12.132
13.8846 11.826
13.8998 11.809
13.9150 11.977
13.9302 12.164
13.9453 11.983
13.9605 11.773
13.9757 11.841
13.9909 11.576
14.0060 11.855
14.0212 11.797
14.0364 11.615
14.0516 11.595
14.0667 11.753
14.0819 11.533
14.0971 11.746
14.1123 11.712
14.1274 11.699
14.1426 11.898
14.1578 11.771
14.1730 11.769
14.1881 11.693
14.2033 11.821
14.2185 11.819
14.2337 11.417
14.2488 11.762
14.2640 12.085
14.2792 11.747
14.2944 11.951
14.3095 12.023
14.3247 11.825
14.3399 12.026
14.3551 12.368
14.3702 13.044
14.3854 13.128
14.4006 13.124
14.4158 13.333
14.4309 13.063
14.4461 12.837
14.4613 12.712
14.4765 12.160
14.4916 12.190
14.5068 12.146
14.5220 11.818
14.5372 11.350
14.5523 11.327
14.5675 11.190
14.5827 11.312
14.5979 11.016
14.6130 10.964
14.6282 10.676
14.6434 10.897
14.6586 10.818
14.6737 10.655
14.6889 10.372
14.7041 10.658
14.7193 10.736
14.7344 10.441
14.7496 10.773
14.7648 11.018
14.7800 10.438
14.7951 10.532
14.8103 10.665
14.8255 10.719
14.8407 10.409
14.8558 10.488
14.8710 10.370
14.8862 10.591
14.9014 10.525
14.9165 10.832
14.9317 10.930
14.9469 10.254
14.9621 10.187
14.9772 10.189
14.9924 10.294
15.0076 10.508
15.0228 10.367
15.0379 10.331
15.0531 10.376
15.0683 10.180
15.0835 10.230
15.0986 10.221
15.1138 10.432
15.1290 10.075
15.1442 10.225
15.1593 10.611
15.1745 10.187
15.1897 10.046
15.2049 9.955
15.2200 10.201
15.2352 10.116
15.2504 9.994
15.2656 10.200
15.2807 10.046
15.2959 9.855
15.3111 10.141
15.3263 10.775
15.3414 10.514
15.3566 9.949
15.3718 10.176
15.3870 10.174
15.4021 9.904
15.4173 10.263
15.4325 10.479
15.4477 10.213
15.4628 10.200
15.4780 9.921
15.4932 10.265
15.5084 10.059
15.5235 10.215
15.5387 10.145
15.5539 9.884
15.5691 10.119
15.5842 9.884
15.5994 9.788
15.6146 9.885
15.6298 10.017
15.6449 9.614
15.6601 9.525
15.6753 9.793
15.6905 9.991
15.7056 9.913
15.7208 9.669
15.7360 9.686
15.7512 9.824
15.7663 9.264
15.7815 9.879
15.7967 9.910
15.8119 9.816
15.8270 9.824
15.8422 9.508
15.8574 9.735
15.8726 9.647
15.8877 9.430
15.9029 9.594
15.9181 9.554
15.9333 9.743
15.9484 9.291
15.9636 9.699
15.9788 9.737
15.9940 9.503
16.0091 9.828
16.0243 9.617
16.0395 9.566
16.0547 9.522
16.0698 9.692
16.0850 9.946
16.1002 9.741
16.1154 9.747
16.1305 9.540
16.1457 9.499
16.1609 9.685
16.1761 9.684
16.1912 9.609
16.2064 9.562
16.2216 9.832
16.2368 9.937
16.2519 9.724
16.2671 9.631
16.2823 9.715
16.2975 9.809
16.3126 9.851
16.3278 9.864
16.3430 9.856
16.3582 9.772
16.3733 9.786
16.3885 9.777
16.4037 9.908
16.4189 9.918
16.4340 10.016
16.4492 9.789
16.4644 9.600
16.4796 9.635
16.4947 9.772
16.5099 9.566
16.5251 9.544
16.5403 9.416
16.5554 9.692
16.5706 9.711
16.5858 9.762
16.6010 9.662
16.6161 9.673
16.6313 9.666
16.6465 9.879
16.6617 9.772
16.6768 9.615
16.6920 9.920
16.7072 10.038
16.7224 9.831
16.7375 9.881
16.7527 9.884
16.7679 9.792
16.7831 10.012
16.7982 9.912
16.8134 9.902
16.8286 9.923
16.8438 9.696
16.8589 9.784
16.8741 9.822
16.8893 9.857
16.9045 9.662
16.9196 9.660
16.9348 9.992
16.9500 9.923
16.9652 9.675
16.9803 9.764
16.9955 9.728
17.0107 9.686
17.0259 9.894
17.0410 9.999
17.0562 10.034
17.0714 10.103
17.0866 10.348
17.1017 10.476
17.1169 10.650
17.1321 10.862
17.1473 11.098
17.1624 11.707
17.1776 12.256
17.1928 12.900
17.2080 14.000
17.2231 15.035
17.2383 16.407
17.2535 17.721
17.2687 18.581
17.2838 18.638
17.2990 17.637
17.3142 16.877
17.3294 16.620
17.3445 16.102
17.3597 15.929
17.3749 15.972
17.3901 15.459
17.4052 14.564
17.4204 13.391
17.4356 12.342
17.4508 11.852
17.4659 11.652
17.4811 11.466
17.4963 11.488
17.5115 11.289
17.5266 11.020
17.5418 10.976
17.5570 10.970
17.5722 11.035
17.5873 11.023
17.6025 11.080
17.6177 10.982
17.6329 10.905
17.6480 11.196
17.6632 11.267
17.6784 11.351
17.6936 11.624
17.7087 11.467
17.7239 11.112
17.7391 10.974
17.7543 10.804
17.7694 10.815
17.7846 10.873
17.7998 10.706
17.8150 10.665
17.8301 10.661
17.8453 10.535
17.8605 10.496
17.8757 10.198
17.8908 10.168
17.9060 10.278
17.9212 10.105
17.9364 10.143
17.9515 10.229
17.9667 10.218
17.9819 10.160
17.9971 10.316
18.0122 10.291
18.0274 10.189
18.0426 10.347
18.0578 10.397
18.0729 10.296
18.0881 10.155
18.1033 9.955
18.1185 9.789
18.1336 9.822
18.1488 9.751
18.1640 9.766
18.1792 9.954
18.1943 9.666
18.2095 9.675
18.2247 9.805
18.2399 9.780
18.2550 9.869
18.2702 10.028
18.2854 9.808
18.3006 9.643
18.3157 9.870
18.3309 9.931
18.3461 10.049
18.3613 9.892
18.3764 9.911
18.3916 9.799
18.4068 9.815
18.4220 9.834
18.4371 9.813
18.4523 9.755
18.4675 9.678
18.4827 9.912
18.4978 9.879
18.5130 9.956
18.5282 9.792
18.5434 9.641
18.5585 9.912
18.5737 9.989
18.5889 9.884
18.6041 9.861
18.6192 9.778
18.6344 9.667
18.6496 9.688
18.6648 9.794
18.6799 9.954
18.6951 9.886
18.7103 9.956
18.7255 9.866
18.7406 9.703
18.7558 9.811
18.7710 9.765
18.7862 9.833
18.8013 9.862
18.8165 9.579
18.8317 9.624
18.8469 9.830
18.8620 9.889
18.8772 9.970
18.8924 9.837
18.9076 9.746
18.9227 9.858
18.9379 10.082
18.9531 10.058
18.9683 9.980
18.9834 9.956
18.9986 10.051
19.0138 10.131
19.0290 10.055
19.0441 9.969
19.0593 10.072
19.0745 10.160
19.0897 10.159
19.1048 10.269
19.1200 10.160
19.1352 10.245
19.1504 10.426
19.1655 10.564
19.1807 10.573
19.1959 10.668
19.2111 10.662
19.2262 10.596
19.2414 10.543
19.2566 10.515
19.2718 10.635
19.2869 10.557
19.3021 10.513
19.3173 10.848
19.3325 11.100
19.3476 11.166
19.3628 11.161
19.3780 11.156
19.3932 11.086
19.4083 11.175
19.4235 11.160
19.4387 11.131
19.4539 11.309
19.4690 11.366
19.4842 11.236
19.4994 11.202
19.5146 11.289
19.5297 11.310
19.5449 11.613
19.5601 11.747
19.5753 11.473
19.5904 11.268
19.6056 11.651
19.6208 11.718
19.6360 11.441
19.6511 11.629
19.6663 11.657
19.6815 11.495
19.6967 11.811
19.7118 11.806
19.7270 11.555
19.7422 11.652
19.7574 11.672
19.7725 11.732
19.7877 11.911
19.8029 11.857
19.8180 12.139
19.8332 12.403
19.8484 12.407
19.8636 12.607
19.8787 12.713
19.8939 12.859
19.9091 13.099
19.9243 13.437
19.9394 13.833
19.9546 14.200
19.9698 14.387
19.9850 14.411
20.0001 14.539
20.0153 14.228
20.0305 14.010
20.0457 13.871
20.0608 13.841
20.0760 13.814
20.0912 13.643
20.1064 13.590
20.1215 13.493
20.1367 13.339
20.1519 13.127
20.1671 12.680
20.1822 12.421
20.1974 12.792
20.2126 12.958
20.2278 12.824
20.2429 12.799
20.2581 12.559
20.2733 12.400
20.2885 12.039
20.3036 11.927
20.3188 12.002
20.3340 11.921
20.3492 11.993
20.3643 11.874
20.3795 11.712
20.3947 11.541
20.4099 11.580
20.4250 11.995
20.4402 11.898
20.4554 11.742
20.4706 11.662
20.4857 11.938
20.5009 11.757
20.5161 11.918
20.5313 11.617
20.5464 11.393
20.5616 11.265
20.5768 11.140
20.5920 10.962
20.6071 10.998
20.6223 10.634
20.6375 10.757
20.6527 10.728
20.6678 10.748
20.6830 10.575
20.6982 10.593
20.7134 10.312
20.7285 10.585
20.7437 10.432
20.7589 10.311
20.7741 10.394
20.7892 10.417
20.8044 10.301
20.8196 10.184
20.8348 9.891
20.8499 10.195
20.8651 9.976
20.8803 10.266
20.8955 10.421
20.9106 10.437
20.9258 10.023
20.9410 10.145
20.9562 10.090
20.9713 10.066
20.9865 9.935
21.0017 10.121
21.0169 9.886
21.0320 10.080
21.0472 10.073
21.0624 10.366
21.0776 10.020
21.0927 9.983
21.1079 9.913
21.1231 9.752
21.1383 9.738
21.1534 9.653
21.1686 9.806
21.1838 9.554
21.1990 9.496
21.2141 9.840
21.2293 9.660
21.2445 9.603
21.2597 9.597
21.2748 9.488
21.2900 9.497
21.3052 9.471
21.3204 9.617
21.3355 9.508
21.3507 9.386
21.3659 9.618
21.3811 9.154
21.3962 9.335
21.4114 9.370
21.4266 9.421
21.4418 9.529
21.4569 9.357
21.4721 9.466
21.4873 9.535
21.5025 9.455
21.5176 9.288
21.5328 9.342
21.5480 9.557
21.5632 9.478
21.5783 9.338
21.5935 8.986
21.6087 9.159
21.6239 9.122
21.6390 9.103
21.6542 8.965
21.6694 8.742
21.6846 8.875
21.6997 9.080
21.7149 9.030
21.7301 9.068
21.7453 8.961
21.7604 9.008
21.7756 9.039
21.7908 8.980
21.8060 8.932
21.8211 8.919
21.8363 9.111
21.8515 9.168
21.8667 9.056
21.8818 8.990
21.8970 9.190
21.9122 9.215
21.9274 9.076
21.9425 9.155
21.9577 8.953
21.9729 8.764
21.9881 8.877
22.0032 8.762
22.0184 8.840
22.0336 8.812
22.0488 8.707
22.0639 8.820
22.0791 8.696
22.0943 8.636
22.1095 8.628
22.1246 8.520
22.1398 8.566
22.1550 8.749
22.1702 8.656
22.1853 8.587
22.2005 8.443
22.2157 8.533
22.2309 8.681
22.2460 8.501
22.2612 8.764
22.2764 8.717
22.2916 8.672
22.3067 8.535
22.3219 8.602
22.3371 8.445
22.3523 8.582
22.3674 8.574
22.3826 8.507
22.3978 8.218
22.4130 8.410
22.4281 8.403
22.4433 8.401
22.4585 8.411
22.4737 8.456
22.4888 8.417
22.5040 8.136
22.5192 8.337
22.5344 8.509
22.5495 8.466
22.5647 8.435
22.5799 8.215
22.5951 8.176
22.6102 8.293
22.6254 8.534
22.6406 8.378
22.6558 8.021
22.6709 8.249
22.6861 8.272
22.7013 8.201
22.7165 7.742
22.7316 6.539
