'Id: "" Comment: "" Operator: "Lab Manager" Anode: "Mo" Scantype: "Still (Eiger2R_500K (1D mode))" TimePerStep: "300" X: "11.8" Y: "9.4" Z: "11.284" 
7.2532 19.104
7.2684 19.178
7.2836 18.994
7.2987 19.262
7.3139 19.207
7.3291 19.414
7.3443 20.012
7.3594 19.414
7.3746 19.939
7.3898 19.687
7.4050 19.499
7.4201 19.477
7.4353 19.699
7.4505 20.037
7.4657 19.978
7.4808 19.251
7.4960 20.291
7.5112 20.100
7.5264 19.907
7.5415 19.936
7.5567 19.687
7.5719 19.840
7.5871 20.005
7.6022 20.232
7.6174 20.250
7.6326 20.522
7.6478 20.388
7.6629 20.467
7.6781 20.633
7.6933 21.013
7.7085 21.003
7.7236 20.733
7.7388 20.617
7.7540 20.821
7.7692 20.784
7.7843 20.638
7.7995 20.680
7.8147 20.707
7.8299 20.893
7.8450 21.000
7.8602 21.079
7.8754 21.211
7.8905 21.003
7.9057 21.047
7.9209 20.867
7.9361 20.872
7.9512 21.037
7.9664 21.137
7.9816 21.161
7.9968 21.173
8.0119 21.104
8.0271 21.075
8.0423 21.500
8.0575 21.583
8.0726 21.498
8.0878 21.630
8.1030 21.643
8.1182 21.444
8.1333 21.826
8.1485 21.919
8.1637 21.792
8.1789 22.124
8.1940 22.096
8.2092 22.029
8.2244 22.091
8.2396 22.208
8.2547 21.840
8.2699 22.255
8.2851 21.804
8.3003 22.127
8.3154 22.240
8.3306 21.890
8.3458 21.666
8.3610 21.909
8.3761 22.184
8.3913 22.102
8.4065 21.912
8.4217 22.007
8.4368 22.183
8.4520 22.086
8.4672 21.962
8.4824 22.119
8.4975 21.973
8.5127 21.772
8.5279 22.033
8.5431 22.410
8.5582 21.905
8.5734 21.879
8.5886 22.345
8.6038 21.983
8.6189 22.678
8.6341 22.188
8.6493 22.170
8.6645 22.737
8.6796 22.728
8.6948 22.965
8.7100 22.621
8.7252 22.646
8.7403 22.098
8.7555 22.403
8.7707 23.004
8.7859 22.507
8.8010 22.318
8.8162 22.696
8.8314 22.853
8.8466 22.354
8.8617 23.123
8.8769 22.707
8.8921 22.940
8.9073 22.732
8.9224 23.324
8.9376 23.137
8.9528 23.274
8.9680 23.092
8.9831 22.405
8.9983 23.149
9.0135 23.054
9.0287 23.087
9.0438 22.849
9.0590 23.261
9.0742 22.661
9.0894 22.622
9.1045 23.059
9.1197 23.001
9.1349 23.234
9.1501 23.221
9.1652 23.007
9.1804 23.262
9.1956 23.345
9.2108 23.025
9.2259 22.846
9.2411 22.931
9.2563 23.018
9.2715 22.827
9.2866 23.247
9.3018 23.650
9.3170 23.447
9.3322 23.215
9.3473 23.246
9.3625 23.335
9.3777 23.126
9.3929 23.250
9.4080 23.261
9.4232 23.179
9.4384 23.379
9.4536 23.277
9.4687 23.460
9.4839 23.299
9.4991 23.446
9.5143 23.585
9.5294 23.455
9.5446 23.127
9.5598 23.230
9.5750 23.388
9.5901 23.526
9.6053 23.485
9.6205 23.643
9.6357 23.751
9.6508 23.756
9.6660 23.713
9.6812 23.957
9.6964 24.317
9.7115 24.716
9.7267 24.775
9.7419 24.632
9.7571 24.457
9.7722 24.354
9.7874 24.324
9.8026 24.334
9.8178 24.204
9.8329 23.863
9.8481 23.890
9.8633 24.018
9.8785 23.833
9.8936 23.850
9.9088 24.047
9.9240 24.273
9.9392 24.372
9.9543 24.571
9.9695 24.392
9.9847 24.216
9.9999 23.924
10.0150 23.888
10.0302 23.908
10.0454 23.700
10.0606 23.406
10.0757 23.463
10.0909 23.751
10.1061 23.900
10.1213 23.942
10.1364 24.082
10.1516 23.884
10.1668 23.651
10.1820 23.988
10.1971 24.184
10.2123 24.182
10.2275 24.056
10.2427 23.769
10.2578 23.660
10.2730 23.402
10.2882 23.068
10.3034 23.301
10.3185 23.525
10.3337 23.567
10.3489 23.365
10.3641 23.526
10.3792 23.603
10.3944 23.629
10.4096 23.642
10.4248 23.314
10.4399 23.030
10.4551 22.974
10.4703 23.113
10.4855 22.937
10.5006 22.917
10.5158 23.113
10.5310 23.296
10.5462 23.257
10.5613 22.791
10.5765 22.876
10.5917 22.574
10.6069 22.596
10.6220 22.651
10.6372 22.574
10.6524 22.589
10.6676 22.874
10.6827 23.104
10.6979 22.711
10.7131 22.685
10.7283 22.588
10.7434 22.475
10.7586 22.571
10.7738 22.566
10.7890 22.699
10.8041 22.739
10.8193 22.273
10.8345 22.032
10.8497 22.218
10.8648 22.545
10.8800 22.778
10.8952 22.452
10.9104 22.135
10.9255 21.790
10.9407 21.954
10.9559 22.448
10.9711 22.501
10.9862 22.366
11.0014 22.323
11.0166 22.186
11.0318 22.359
11.0469 22.046
11.0621 21.798
11.0773 21.707
11.0925 21.671
11.1076 21.943
11.1228 22.122
11.1380 22.206
11.1532 21.811
11.1683 21.927
11.1835 22.205
11.1987 22.000
11.2139 21.781
11.2290 21.959
11.2442 21.960
11.2594 21.543
11.2746 21.919
11.2897 21.663
11.3049 21.581
11.3201 21.404
11.3353 21.418
11.3504 21.692
11.3656 21.929
11.3808 21.259
11.3960 21.341
11.4111 21.896
11.4263 21.676
11.4415 21.802
11.4567 21.805
11.4718 21.407
11.4870 21.328
11.5022 21.569
11.5174 21.447
11.5325 21.249
11.5477 21.344
11.5629 20.950
11.5781 21.126
11.5932 20.985
11.6084 20.966
11.6236 20.954
11.6388 21.019
11.6539 20.793
11.6691 20.716
11.6843 20.829
11.6995 20.592
11.7146 20.774
11.7298 20.514
11.7450 20.495
11.7602 20.780
11.7753 20.509
11.7905 20.125
11.8057 19.751
11.8209 20.163
11.8360 20.290
11.8512 20.180
11.8664 20.147
11.8816 20.311
11.8967 19.972
11.9119 19.844
11.9271 20.001
11.9423 19.743
11.9574 19.580
11.9726 19.570
11.9878 19.354
12.0030 19.392
12.0181 19.055
12.0333 19.078
12.0485 19.166
12.0637 19.201
12.0788 19.143
12.0940 19.135
12.1092 18.792
12.1244 18.824
12.1395 18.768
12.1547 18.350
12.1699 18.263
12.1851 18.424
12.2002 18.584
12.2154 18.638
12.2306 18.244
12.2458 17.849
12.2609 17.818
12.2761 18.088
12.2913 17.881
12.3065 17.788
12.3216 18.001
12.3368 17.763
12.3520 17.290
12.3672 17.551
12.3823 17.236
12.3975 17.276
12.4127 17.413
12.4279 17.094
12.4430 16.914
12.4582 16.681
12.4734 16.661
12.4886 16.764
12.5037 16.740
12.5189 16.681
12.5341 16.681
12.5493 16.697
12.5644 16.611
12.5796 16.206
12.5948 15.908
12.6100 15.982
12.6251 16.206
12.6403 16.138
12.6555 16.061
12.6707 15.685
12.6858 15.602
12.7010 15.528
12.7162 15.196
12.7314 15.228
12.7465 15.546
12.7617 15.432
12.7769 15.394
12.7921 15.058
12.8072 14.719
12.8224 14.874
12.8376 15.007
12.8528 14.794
12.8679 14.798
12.8831 15.087
12.8983 14.957
12.9135 14.735
12.9286 14.567
12.9438 14.398
12.9590 14.642
12.9742 14.671
12.9893 14.253
13.0045 14.247
13.0197 14.271
13.0349 14.095
13.0500 13.937
13.0652 13.822
13.0804 13.804
13.0956 13.885
13.1107 13.711
13.1259 13.441
13.1411 13.698
13.1563 13.841
13.1714 13.714
13.1866 13.525
13.2018 13.525
13.2170 13.530
13.2321 13.372
13.2473 13.514
13.2625 13.560
13.2777 13.366
13.2928 13.313
13.3080 13.498
13.3232 13.398
13.3384 13.030
13.3535 12.904
13.3687 13.159
13.3839 13.179
13.3991 12.946
13.4142 12.996
13.4294 12.977
13.4446 12.952
13.4598 13.063
13.4749 13.002
13.4901 12.698
13.5053 12.476
13.5205 12.537
13.5356 12.422
13.5508 12.199
13.5660 12.489
13.5812 12.581
13.5963 12.476
13.6115 12.597
13.6267 12.338
13.6419 12.102
13.6570 12.198
13.6722 12.138
13.6874 12.126
13.7026 12.100
13.7177 12.279
13.7329 12.206
13.7481 12.165
13.7633 11.971
13.7784 12.016
13.7936 12.013
13.8088 12.265
13.8239 12.211
13.8391 12.452
13.8543 12.630
13.8695 12.440
13.8846 12.338
13.8998 12.016
13.9150 12.317
13.9302 12.036
13.9453 11.994
13.9605 11.809
13.9757 11.880
13.9909 11.780
14.0060 11.550
14.0212 11.353
14.0364 11.458
14.0516 11.349
14.0667 11.443
14.0819 11.491
14.0971 11.659
14.1123 11.653
14.1274 11.353
14.1426 11.442
14.1578 11.563
14.1730 11.157
14.1881 11.166
14.2033 11.184
14.2185 11.564
14.2337 11.477
14.2488 11.342
14.2640 11.682
14.2792 11.621
14.2944 11.690
14.3095 11.684
14.3247 11.988
14.3399 11.986
14.3551 12.281
14.3702 12.860
14.3854 13.303
14.4006 13.485
14.4158 14.403
14.4309 14.734
14.4461 14.994
14.4613 14.529
14.4765 14.240
14.4916 14.016
14.5068 13.796
14.5220 13.560
14.5372 13.310
14.5523 12.783
14.5675 12.381
14.5827 12.079
14.5979 11.809
14.6130 11.527
14.6282 11.142
14.6434 11.282
14.6586 11.170
14.6737 11.584
14.6889 11.404
14.7041 11.115
14.7193 11.227
14.7344 11.599
14.7496 11.258
14.7648 11.037
14.7800 11.292
14.7951 11.238
14.8103 11.057
14.8255 11.432
14.8407 11.222
14.8558 11.198
14.8710 11.324
14.8862 10.658
14.9014 11.048
14.9165 11.188
14.9317 11.156
14.9469 10.893
14.9621 10.825
14.9772 10.501
14.9924 10.821
15.0076 10.824
15.0228 11.010
15.0379 10.869
15.0531 10.764
15.0683 10.931
15.0835 10.707
15.0986 10.851
15.1138 10.471
15.1290 10.510
15.1442 10.272
15.1593 10.443
15.1745 10.854
15.1897 10.382
15.2049 10.531
15.2200 10.278
15.2352 10.461
15.2504 10.242
15.2656 10.383
15.2807 10.785
15.2959 10.389
15.3111 10.665
15.3263 10.136
15.3414 10.313
15.3566 10.529
15.3718 10.159
15.3870 10.476
15.4021 10.409
15.4173 10.181
15.4325 10.502
15.4477 10.738
15.4628 10.557
15.4780 10.306
15.4932 10.476
15.5084 10.634
15.5235 10.452
15.5387 10.368
15.5539 10.464
15.5691 10.338
15.5842 10.490
15.5994 10.379
15.6146 10.232
15.6298 10.080
15.6449 10.393
15.6601 10.514
15.6753 10.356
15.6905 10.025
15.7056 10.264
15.7208 10.249
15.7360 10.033
15.7512 10.135
15.7663 9.945
15.7815 9.738
15.7967 9.964
15.8119 9.893
15.8270 10.060
15.8422 9.719
15.8574 10.058
15.8726 9.490
15.8877 9.839
15.9029 9.869
15.9181 9.661
15.9333 9.996
15.9484 10.013
15.9636 9.988
15.9788 9.918
15.9940 9.415
16.0091 9.565
16.0243 9.874
16.0395 10.128
16.0547 9.962
16.0698 9.776
16.0850 9.603
16.1002 9.695
16.1154 9.459
16.1305 9.671
16.1457 9.603
16.1609 9.869
16.1761 9.943
16.1912 9.724
16.2064 9.893
16.2216 10.022
16.2368 9.914
16.2519 10.031
16.2671 10.126
16.2823 10.180
16.2975 10.211
16.3126 9.992
16.3278 10.044
16.3430 10.322
16.3582 10.156
16.3733 10.237
16.3885 10.349
16.4037 10.307
16.4189 10.004
16.4340 10.084
16.4492 10.145
16.4644 10.193
16.4796 10.224
16.4947 10.006
16.5099 9.786
16.5251 9.943
16.5403 9.883
16.5554 9.973
16.5706 10.036
16.5858 9.794
16.6010 9.932
16.6161 10.114
16.6313 10.090
16.6465 10.056
16.6617 10.154
16.6768 9.991
16.6920 10.177
16.7072 10.107
16.7224 10.131
16.7375 10.230
16.7527 10.166
16.7679 10.142
16.7831 10.033
16.7982 9.981
16.8134 9.952
16.8286 9.938
16.8438 9.737
16.8589 9.883
16.8741 10.038
16.8893 9.906
16.9045 9.743
16.9196 9.609
16.9348 9.768
16.9500 9.785
16.9652 9.844
16.9803 9.888
16.9955 10.006
17.0107 10.058
17.0259 10.078
17.0410 10.172
17.0562 10.418
17.0714 10.596
17.0866 10.585
17.1017 10.828
17.1169 10.938
17.1321 10.963
17.1473 11.533
17.1624 12.174
17.1776 12.563
17.1928 13.367
17.2080 14.300
17.2231 15.092
17.2383 16.403
17.2535 17.880
17.2687 19.002
17.2838 19.183
17.2990 18.273
17.3142 17.225
17.3294 16.433
17.3445 16.221
17.3597 16.460
17.3749 16.126
17.3901 15.326
17.4052 14.342
17.4204 13.340
17.4356 12.582
17.4508 11.938
17.4659 11.627
17.4811 11.404
17.4963 11.238
17.5115 11.002
17.5266 10.615
17.5418 10.531
17.5570 10.600
17.5722 10.631
17.5873 10.690
17.6025 10.778
17.6177 10.870
17.6329 10.761
17.6480 10.637
17.6632 10.892
17.6784 11.164
17.6936 11.422
17.7087 11.530
17.7239 11.719
17.7391 12.040
17.7543 12.205
17.7694 12.413
17.7846 12.561
17.7998 12.737
17.8150 12.869
17.8301 12.764
17.8453 12.507
17.8605 12.292
17.8757 12.242
17.8908 12.039
17.9060 12.106
17.9212 12.007
17.9364 11.503
17.9515 11.235
17.9667 11.157
17.9819 11.113
17.9971 11.043
18.0122 10.947
18.0274 10.750
18.0426 10.551
18.0578 10.538
18.0729 10.488
18.0881 10.281
18.1033 10.256
18.1185 10.165
18.1336 10.084
18.1488 10.273
18.1640 10.342
18.1792 10.336
18.1943 10.216
18.2095 10.195
18.2247 10.208
18.2399 10.135
18.2550 10.010
18.2702 10.020
18.2854 10.161
18.3006 10.220
18.3157 10.145
18.3309 9.935
18.3461 9.831
18.3613 9.803
18.3764 10.054
18.3916 10.188
18.4068 10.122
18.4220 9.919
18.4371 9.973
18.4523 10.131
18.4675 10.004
18.4827 10.043
18.4978 10.118
18.5130 10.159
18.5282 10.038
18.5434 10.137
18.5585 10.030
18.5737 9.946
18.5889 10.168
18.6041 10.182
18.6192 10.134
18.6344 9.956
18.6496 9.876
18.6648 9.642
18.6799 9.750
18.6951 10.018
18.7103 10.144
18.7255 9.985
18.7406 9.921
18.7558 9.928
18.7710 10.028
18.7862 10.141
18.8013 9.831
18.8165 9.925
18.8317 9.953
18.8469 9.886
18.8620 10.023
18.8772 10.216
18.8924 10.130
18.9076 10.188
18.9227 10.120
18.9379 10.246
18.9531 10.112
18.9683 9.993
18.9834 9.847
18.9986 10.041
19.0138 10.383
19.0290 10.320
19.0441 10.274
19.0593 10.286
19.0745 10.300
19.0897 10.378
19.1048 10.145
19.1200 10.363
19.1352 10.533
19.1504 10.551
19.1655 10.632
19.1807 10.562
19.1959 10.758
19.2111 10.900
19.2262 10.706
19.2414 10.813
19.2566 10.872
19.2718 10.923
19.2869 11.033
19.3021 11.092
19.3173 11.359
19.3325 11.349
19.3476 11.080
19.3628 11.127
19.3780 11.186
19.3932 11.117
19.4083 11.173
19.4235 11.362
19.4387 11.301
19.4539 11.085
19.4690 11.264
19.4842 11.382
19.4994 11.480
19.5146 11.507
19.5297 11.397
19.5449 11.623
19.5601 11.855
19.5753 11.783
19.5904 11.724
19.6056 11.790
19.6208 11.960
19.6360 12.009
19.6511 11.827
19.6663 11.795
19.6815 11.814
19.6967 11.770
19.7118 11.620
19.7270 11.936
19.7422 11.921
19.7574 11.665
19.7725 11.757
19.7877 11.909
19.8029 11.919
19.8180 11.851
19.8332 12.177
19.8484 12.293
19.8636 12.313
19.8787 12.341
19.8939 12.495
19.9091 13.069
19.9243 13.413
19.9394 13.634
19.9546 14.155
19.9698 14.567
19.9850 14.665
20.0001 14.562
20.0153 14.590
20.0305 14.239
20.0457 13.841
20.0608 13.908
20.0760 13.789
20.0912 13.831
20.1064 13.678
20.1215 13.537
20.1367 13.541
20.1519 13.040
20.1671 12.660
20.1822 12.643
20.1974 12.406
20.2126 12.464
20.2278 12.699
20.2429 12.574
20.2581 12.167
20.2733 12.043
20.2885 11.915
20.3036 11.717
20.3188 11.634
20.3340 11.486
20.3492 11.454
20.3643 11.615
20.3795 11.492
20.3947 11.336
20.4099 11.613
20.4250 11.212
20.4402 11.414
20.4554 11.714
20.4706 11.673
20.4857 11.722
20.5009 11.908
20.5161 11.866
20.5313 11.693
20.5464 11.457
20.5616 11.526
20.5768 11.558
20.5920 11.473
20.6071 11.207
20.6223 11.140
20.6375 10.768
20.6527 11.126
20.6678 11.181
20.6830 11.014
20.6982 11.038
20.7134 10.803
20.7285 10.885
20.7437 10.488
20.7589 10.355
20.7741 10.333
20.7892 10.772
20.8044 10.450
20.8196 10.491
20.8348 10.847
20.8499 10.331
20.8651 10.251
20.8803 10.507
20.8955 10.540
20.9106 10.514
20.9258 10.673
20.9410 10.439
20.9562 10.604
20.9713 10.685
20.9865 10.652
21.0017 10.836
21.0169 10.767
21.0320 10.335
21.0472 10.547
21.0624 10.370
21.0776 10.145
21.0927 10.234
21.1079 10.468
21.1231 10.083
21.1383 10.137
21.1534 10.225
21.1686 9.858
21.1838 10.098
21.1990 9.780
21.2141 9.882
21.2293 9.766
21.2445 10.006
21.2597 10.058
21.2748 9.699
21.2900 9.368
21.3052 9.613
21.3204 9.524
21.3355 9.643
21.3507 9.611
21.3659 9.805
21.3811 9.704
21.3962 9.542
21.4114 9.531
21.4266 9.531
21.4418 9.544
21.4569 9.500
21.4721 9.490
21.4873 9.538
21.5025 9.524
21.5176 9.437
21.5328 9.430
21.5480 9.209
21.5632 9.237
21.5783 9.611
21.5935 9.353
21.6087 9.267
21.6239 9.223
21.6390 9.105
21.6542 9.046
21.6694 9.364
21.6846 9.372
21.6997 9.138
21.7149 9.105
21.7301 8.880
21.7453 9.191
21.7604 9.053
21.7756 8.913
21.7908 9.023
21.8060 9.191
21.8211 9.313
21.8363 9.204
21.8515 9.088
21.8667 9.165
21.8818 8.908
21.8970 9.159
21.9122 9.172
21.9274 9.145
21.9425 9.038
21.9577 8.767
21.9729 8.719
21.9881 8.798
22.0032 8.885
22.0184 8.846
22.0336 8.808
22.0488 8.725
22.0639 8.623
22.0791 8.620
22.0943 8.515
22.1095 8.542
22.1246 8.557
22.1398 8.625
22.1550 8.726
22.1702 8.675
22.1853 8.583
22.2005 8.604
22.2157 8.600
22.2309 8.692
22.2460 8.583
22.2612 8.584
22.2764 8.651
22.2916 8.764
22.3067 8.489
22.3219 8.598
22.3371 8.568
22.3523 8.719
22.3674 8.581
22.3826 8.451
22.3978 8.543
22.4130 8.639
22.4281 8.626
22.4433 8.602
22.4585 8.490
22.4737 8.101
22.4888 8.701
22.5040 8.639
22.5192 8.842
22.5344 8.662
22.5495 8.395
22.5647 8.359
22.5799 8.364
22.5951 8.599
22.6102 8.594
22.6254 8.713
22.6406 8.640
22.6558 8.422
22.6709 8.631
22.6861 8.506
22.7013 8.367
22.7165 8.015
22.7316 6.449
