'Id: "" Comment: "" Operator: "Lab Manager" Anode: "Mo" Scantype: "Still (Eiger2R_500K (1D mode))" TimePerStep: "300" X: "11.8" Y: "9.4" Z: "11.284" 
7.2532 18.810
7.2684 18.901
7.2836 18.818
7.2987 18.714
7.3139 18.573
7.3291 19.122
7.3443 19.031
7.3594 19.176
7.3746 19.251
7.3898 19.005
7.4050 19.379
7.4201 19.209
7.4353 19.154
7.4505 19.791
7.4657 19.321
7.4808 19.260
7.4960 19.546
7.5112 19.744
7.5264 19.728
7.5415 19.879
7.5567 19.689
7.5719 19.617
7.5871 19.667
7.6022 19.952
7.6174 19.725
7.6326 19.917
7.6478 19.936
7.6629 20.125
7.6781 20.412
7.6933 20.091
7.7085 19.899
7.7236 20.073
7.7388 20.298
7.7540 20.320
7.7692 20.176
7.7843 20.251
7.7995 20.506
7.8147 20.556
7.8299 20.395
7.8450 20.329
7.8602 20.521
7.8754 20.487
7.8905 20.514
7.9057 20.678
7.9209 20.601
7.9361 20.482
7.9512 20.588
7.9664 20.721
7.9816 20.686
7.9968 21.036
8.0119 20.689
8.0271 20.602
8.0423 21.250
8.0575 20.986
8.0726 20.907
8.0878 21.174
8.1030 21.332
8.1182 21.329
8.1333 21.461
8.1485 21.272
8.1637 21.335
8.1789 21.533
8.1940 21.082
8.2092 21.159
8.2244 21.340
8.2396 21.624
8.2547 21.580
8.2699 21.444
8.2851 21.278
8.3003 21.298
8.3154 21.320
8.3306 21.473
8.3458 21.691
8.3610 21.899
8.3761 21.758
8.3913 21.333
8.4065 21.491
8.4217 21.526
8.4368 21.694
8.4520 22.388
8.4672 21.988
8.4824 21.557
8.4975 22.250
8.5127 22.146
8.5279 22.329
8.5431 21.882
8.5582 22.293
8.5734 21.689
8.5886 22.050
8.6038 22.065
8.6189 21.995
8.6341 22.506
8.6493 22.218
8.6645 22.193
8.6796 22.547
8.6948 22.103
8.7100 22.492
8.7252 22.145
8.7403 22.603
8.7555 22.357
8.7707 22.475
8.7859 22.257
8.8010 22.290
8.8162 22.268
8.8314 22.232
8.8466 22.308
8.8617 22.341
8.8769 22.035
8.8921 22.325
8.9073 22.515
8.9224 22.179
8.9376 22.273
8.9528 22.536
8.9680 22.842
8.9831 22.775
8.9983 22.109
9.0135 22.612
9.0287 22.610
9.0438 22.817
9.0590 22.487
9.0742 22.176
9.0894 22.571
9.1045 23.052
9.1197 22.663
9.1349 22.797
9.1501 22.718
9.1652 22.847
9.1804 22.721
9.1956 22.895
9.2108 22.722
9.2259 22.841
9.2411 22.853
9.2563 22.725
9.2715 22.663
9.2866 23.045
9.3018 22.881
9.3170 22.665
9.3322 22.733
9.3473 22.941
9.3625 22.656
9.3777 23.014
9.3929 23.140
9.4080 23.072
9.4232 23.190
9.4384 23.196
9.4536 22.963
9.4687 22.981
9.4839 23.016
9.4991 23.009
9.5143 23.038
9.5294 23.017
9.5446 23.123
9.5598 23.301
9.5750 23.038
9.5901 22.950
9.6053 23.142
9.6205 23.222
9.6357 23.232
9.6508 23.119
9.6660 23.408
9.6812 23.836
9.6964 23.988
9.7115 23.811
9.7267 23.856
9.7419 24.069
9.7571 23.859
9.7722 23.740
9.7874 23.909
9.8026 23.722
9.8178 23.393
9.8329 23.271
9.8481 23.428
9.8633 23.489
9.8785 23.282
9.8936 22.967
9.9088 23.199
9.9240 23.196
9.9392 22.999
9.9543 22.954
9.9695 23.033
9.9847 23.049
9.9999 23.158
10.0150 23.386
10.0302 23.036
10.0454 22.872
10.0606 22.861
10.0757 22.958
10.0909 22.998
10.1061 22.922
10.1213 23.199
10.1364 23.318
10.1516 23.089
10.1668 23.280
10.1820 23.312
10.1971 23.482
10.2123 23.268
10.2275 22.781
10.2427 22.892
10.2578 23.132
10.2730 22.584
10.2882 22.141
10.3034 22.698
10.3185 23.224
10.3337 22.724
10.3489 22.245
10.3641 22.582
10.3792 22.829
10.3944 23.014
10.4096 22.775
10.4248 22.757
10.4399 22.812
10.4551 22.584
10.4703 22.352
10.4855 22.516
10.5006 22.423
10.5158 22.218
10.5310 22.379
10.5462 22.600
10.5613 22.585
10.5765 22.622
10.5917 22.476
10.6069 22.083
10.6220 22.493
10.6372 22.596
10.6524 22.637
10.6676 22.312
10.6827 22.191
10.6979 22.059
10.7131 22.300
10.7283 22.271
10.7434 22.169
10.7586 22.755
10.7738 22.639
10.7890 22.416
10.8041 22.186
10.8193 22.324
10.8345 22.188
10.8497 22.281
10.8648 22.469
10.8800 22.462
10.8952 21.980
10.9104 21.863
10.9255 21.951
10.9407 22.086
10.9559 21.908
10.9711 21.714
10.9862 21.897
11.0014 22.152
11.0166 22.164
11.0318 22.379
11.0469 21.978
11.0621 21.383
11.0773 21.795
11.0925 22.006
11.1076 21.678
11.1228 21.455
11.1380 21.601
11.1532 21.725
11.1683 21.858
11.1835 21.567
11.1987 21.363
11.2139 21.429
11.2290 21.616
11.2442 21.635
11.2594 21.616
11.2746 21.581
11.2897 21.413
11.3049 21.580
11.3201 21.498
11.3353 21.479
11.3504 21.724
11.3656 21.134
11.3808 21.041
11.3960 21.203
11.4111 21.656
11.4263 21.171
11.4415 21.102
11.4567 20.795
11.4718 21.203
11.4870 21.142
11.5022 20.922
11.5174 20.823
11.5325 21.074
11.5477 20.725
11.5629 21.021
11.5781 21.109
11.5932 20.984
11.6084 21.100
11.6236 21.109
11.6388 20.621
11.6539 20.078
11.6691 20.304
11.6843 20.117
11.6995 20.242
11.7146 20.206
11.7298 20.385
11.7450 19.952
11.7602 20.079
11.7753 20.195
11.7905 19.898
11.8057 19.794
11.8209 19.928
11.8360 19.728
11.8512 19.937
11.8664 19.717
11.8816 19.525
11.8967 19.394
11.9119 19.601
11.9271 19.529
11.9423 19.481
11.9574 19.488
11.9726 19.390
11.9878 19.599
12.0030 19.572
12.0181 18.931
12.0333 19.023
12.0485 18.770
12.0637 19.018
12.0788 18.727
12.0940 18.876
12.1092 18.834
12.1244 18.809
12.1395 18.838
12.1547 18.619
12.1699 18.429
12.1851 18.500
12.2002 18.435
12.2154 18.493
12.2306 18.570
12.2458 18.126
12.2609 17.969
12.2761 18.010
12.2913 17.690
12.3065 17.456
12.3216 17.451
12.3368 17.503
12.3520 17.115
12.3672 17.141
12.3823 17.318
12.3975 17.218
12.4127 16.981
12.4279 16.989
12.4430 17.139
12.4582 17.207
12.4734 17.044
12.4886 16.783
12.5037 16.588
12.5189 15.954
12.5341 16.326
12.5493 16.776
12.5644 16.574
12.5796 16.328
12.5948 15.988
12.6100 15.832
12.6251 15.841
12.6403 15.940
12.6555 16.026
12.6707 15.809
12.6858 15.451
12.7010 15.512
12.7162 15.637
12.7314 15.635
12.7465 15.426
12.7617 15.350
12.7769 15.261
12.7921 15.213
12.8072 15.244
12.8224 15.156
12.8376 15.098
12.8528 15.074
12.8679 15.020
12.8831 14.697
12.8983 14.609
12.9135 14.666
12.9286 14.581
12.9438 14.513
12.9590 14.450
12.9742 14.354
12.9893 14.104
13.0045 14.257
13.0197 14.257
13.0349 14.124
13.0500 14.266
13.0652 14.217
13.0804 13.892
13.0956 13.861
13.1107 14.059
13.1259 13.850
13.1411 13.722
13.1563 13.657
13.1714 13.795
13.1866 13.743
13.2018 13.380
13.2170 13.435
13.2321 13.291
13.2473 13.163
13.2625 13.129
13.2777 13.182
13.2928 13.174
13.3080 12.978
13.3232 13.115
13.3384 13.296
13.3535 13.207
13.3687 12.762
13.3839 12.828
13.3991 13.086
13.4142 12.900
13.4294 12.674
13.4446 12.817
13.4598 13.013
13.4749 12.682
13.4901 12.432
13.5053 12.636
13.5205 12.579
13.5356 12.388
13.5508 12.348
13.5660 12.296
13.5812 12.198
13.5963 12.037
13.6115 11.824
13.6267 12.006
13.6419 12.125
13.6570 12.096
13.6722 12.244
13.6874 12.142
13.7026 11.982
13.7177 12.147
13.7329 12.696
13.7481 12.433
13.7633 12.001
13.7784 12.351
13.7936 12.397
13.8088 12.529
13.8239 12.588
13.8391 12.461
13.8543 12.493
13.8695 12.449
13.8846 12.280
13.8998 11.939
13.9150 11.944
13.9302 12.152
13.9453 12.249
13.9605 11.910
13.9757 11.657
13.9909 11.457
14.0060 11.574
14.0212 11.698
14.0364 11.545
14.0516 11.852
14.0667 11.950
14.0819 11.784
14.0971 11.706
14.1123 11.855
14.1274 11.558
14.1426 11.488
14.1578 11.835
14.1730 11.737
14.1881 11.655
14.2033 11.692
14.2185 11.796
14.2337 11.836
14.2488 11.796
14.2640 11.989
14.2792 11.913
14.2944 11.884
14.3095 12.332
14.3247 12.269
14.3399 12.305
14.3551 12.626
14.3702 12.404
14.3854 12.917
14.4006 13.223
14.4158 13.010
14.4309 13.080
14.4461 12.981
14.4613 12.749
14.4765 12.509
14.4916 11.938
14.5068 11.909
14.5220 11.881
14.5372 11.468
14.5523 11.178
14.5675 11.372
14.5827 11.189
14.5979 10.830
14.6130 10.947
14.6282 10.650
14.6434 10.636
14.6586 10.678
14.6737 10.503
14.6889 10.959
14.7041 11.035
14.7193 10.599
14.7344 10.569
14.7496 10.442
14.7648 10.414
14.7800 10.448
14.7951 10.683
14.8103 10.622
14.8255 10.443
14.8407 10.553
14.8558 10.705
14.8710 10.479
14.8862 10.623
14.9014 10.523
14.9165 10.806
14.9317 10.810
14.9469 10.579
14.9621 10.389
14.9772 10.193
14.9924 10.144
15.0076 10.477
15.0228 10.469
15.0379 10.226
15.0531 10.333
15.0683 10.323
15.0835 9.947
15.0986 10.126
15.1138 10.310
15.1290 10.214
15.1442 10.252
15.1593 10.072
15.1745 10.283
15.1897 9.994
15.2049 10.283
15.2200 10.125
15.2352 9.729
15.2504 10.120
15.2656 10.109
15.2807 10.350
15.2959 10.250
15.3111 10.341
15.3263 9.918
15.3414 10.099
15.3566 10.219
15.3718 10.079
15.3870 10.147
15.4021 10.095
15.4173 10.311
15.4325 10.295
15.4477 10.303
15.4628 10.155
15.4780 10.155
15.4932 9.954
15.5084 9.676
15.5235 10.015
15.5387 10.204
15.5539 9.836
15.5691 9.901
15.5842 9.738
15.5994 9.847
15.6146 9.573
15.6298 10.044
15.6449 9.717
15.6601 9.834
15.6753 9.828
15.6905 9.940
15.7056 9.844
15.7208 9.688
15.7360 9.523
15.7512 9.737
15.7663 9.792
15.7815 9.658
15.7967 9.768
15.8119 9.456
15.8270 9.803
15.8422 9.916
15.8574 9.714
15.8726 9.549
15.8877 9.606
15.9029 9.451
15.9181 9.653
15.9333 9.581
15.9484 9.628
15.9636 9.789
15.9788 9.771
15.9940 9.942
16.0091 9.731
16.0243 9.551
16.0395 9.756
16.0547 9.622
16.0698 9.412
16.0850 9.483
16.1002 9.544
16.1154 9.650
16.1305 9.835
16.1457 9.857
16.1609 9.816
16.1761 9.347
16.1912 9.680
16.2064 9.854
16.2216 9.621
16.2368 9.347
16.2519 9.343
16.2671 9.771
16.2823 9.589
16.2975 9.798
16.3126 9.795
16.3278 9.652
16.3430 9.748
16.3582 9.607
16.3733 9.781
16.3885 10.095
16.4037 9.824
16.4189 9.635
16.4340 9.714
16.4492 9.763
16.4644 9.597
16.4796 9.590
16.4947 9.704
16.5099 9.907
16.5251 9.865
16.5403 9.628
16.5554 9.645
16.5706 9.767
16.5858 9.651
16.6010 9.650
16.6161 9.849
16.6313 9.663
16.6465 9.749
16.6617 9.896
16.6768 9.723
16.6920 9.668
16.7072 10.000
16.7224 9.950
16.7375 9.976
16.7527 10.056
16.7679 9.916
16.7831 9.967
16.7982 10.042
16.8134 9.839
16.8286 9.742
16.8438 9.804
16.8589 9.885
16.8741 9.889
16.8893 9.659
16.9045 9.737
16.9196 9.925
16.9348 9.969
16.9500 9.880
16.9652 9.919
16.9803 9.933
16.9955 10.058
17.0107 9.940
17.0259 9.907
17.0410 9.987
17.0562 10.083
17.0714 10.035
17.0866 10.143
17.1017 10.342
17.1169 10.685
17.1321 11.133
17.1473 11.356
17.1624 11.846
17.1776 12.531
17.1928 13.058
17.2080 13.733
17.2231 14.811
17.2383 16.302
17.2535 17.810
17.2687 18.582
17.2838 18.606
17.2990 17.907
17.3142 17.067
17.3294 16.390
17.3445 16.062
17.3597 16.236
17.3749 16.155
17.3901 15.454
17.4052 14.359
17.4204 13.369
17.4356 12.652
17.4508 12.139
17.4659 11.876
17.4811 11.832
17.4963 11.638
17.5115 11.587
17.5266 11.300
17.5418 11.021
17.5570 11.278
17.5722 11.301
17.5873 11.272
17.6025 11.123
17.6177 10.966
17.6329 11.034
17.6480 11.099
17.6632 11.335
17.6784 11.484
17.6936 11.305
17.7087 11.442
17.7239 11.511
17.7391 11.310
17.7543 11.094
17.7694 10.989
17.7846 10.930
17.7998 10.840
17.8150 10.811
17.8301 10.740
17.8453 10.482
17.8605 10.268
17.8757 10.267
17.8908 10.308
17.9060 10.379
17.9212 10.274
17.9364 10.031
17.9515 10.255
17.9667 10.312
17.9819 9.914
17.9971 10.106
18.0122 10.333
18.0274 10.167
18.0426 10.017
18.0578 10.107
18.0729 10.198
18.0881 10.073
18.1033 10.031
18.1185 9.877
18.1336 9.868
18.1488 9.971
18.1640 9.919
18.1792 9.987
18.1943 10.007
18.2095 9.833
18.2247 9.899
18.2399 9.758
18.2550 9.576
18.2702 9.803
18.2854 9.884
18.3006 9.707
18.3157 9.805
18.3309 9.885
18.3461 9.972
18.3613 9.885
18.3764 9.663
18.3916 9.829
18.4068 9.864
18.4220 9.766
18.4371 9.759
18.4523 9.920
18.4675 9.641
18.4827 9.826
18.4978 9.967
18.5130 9.632
18.5282 9.580
18.5434 9.782
18.5585 9.769
18.5737 9.928
18.5889 9.978
18.6041 9.941
18.6192 9.873
18.6344 9.641
18.6496 9.689
18.6648 9.775
18.6799 9.712
18.6951 9.588
18.7103 9.661
18.7255 9.779
18.7406 9.787
18.7558 9.764
18.7710 10.137
18.7862 10.079
18.8013 9.926
18.8165 9.790
18.8317 9.948
18.8469 9.944
18.8620 9.975
18.8772 10.211
18.8924 10.084
18.9076 9.806
18.9227 9.900
18.9379 10.114
18.9531 10.087
18.9683 9.892
18.9834 9.929
18.9986 10.033
19.0138 10.193
19.0290 10.410
19.0441 10.155
19.0593 9.988
19.0745 10.341
19.0897 10.278
19.1048 10.140
19.1200 10.285
19.1352 10.238
19.1504 10.329
19.1655 10.606
19.1807 10.511
19.1959 10.597
19.2111 10.680
19.2262 10.709
19.2414 10.759
19.2566 10.932
19.2718 10.859
19.2869 10.936
19.3021 10.993
19.3173 10.794
19.3325 10.799
19.3476 10.961
19.3628 10.981
19.3780 11.120
19.3932 11.235
19.4083 11.391
19.4235 11.088
19.4387 11.061
19.4539 11.212
19.4690 11.146
19.4842 11.225
19.4994 11.486
19.5146 11.589
19.5297 11.383
19.5449 11.391
19.5601 11.542
19.5753 11.552
19.5904 11.531
19.6056 11.613
19.6208 11.763
19.6360 11.755
19.6511 11.672
19.6663 11.456
19.6815 11.582
19.6967 11.654
19.7118 11.482
19.7270 11.596
19.7422 11.675
19.7574 11.682
19.7725 11.695
19.7877 11.616
19.8029 11.731
19.8180 11.984
19.8332 11.950
19.8484 12.144
19.8636 12.639
19.8787 12.918
19.8939 12.989
19.9091 13.088
19.9243 13.437
19.9394 13.670
19.9546 14.144
19.9698 14.329
19.9850 14.485
20.0001 14.641
20.0153 14.261
20.0305 13.805
20.0457 13.606
20.0608 13.665
20.0760 13.790
20.0912 13.785
20.1064 13.497
20.1215 13.235
20.1367 13.385
20.1519 13.366
20.1671 12.986
20.1822 12.921
20.1974 12.602
20.2126 12.459
20.2278 12.526
20.2429 12.592
20.2581 12.427
20.2733 12.112
20.2885 12.089
20.3036 11.945
20.3188 11.881
20.3340 11.913
20.3492 11.921
20.3643 11.919
20.3795 11.748
20.3947 11.711
20.4099 11.991
20.4250 11.964
20.4402 11.911
20.4554 11.809
20.4706 11.845
20.4857 11.697
20.5009 11.611
20.5161 11.414
20.5313 11.573
20.5464 11.399
20.5616 11.143
20.5768 11.107
20.5920 11.129
20.6071 11.203
20.6223 10.970
20.6375 10.744
20.6527 10.626
20.6678 10.486
20.6830 10.548
20.6982 10.790
20.7134 10.716
20.7285 10.536
20.7437 10.568
20.7589 10.572
20.7741 10.321
20.7892 10.465
20.8044 10.172
20.8196 10.249
20.8348 10.115
20.8499 10.496
20.8651 10.268
20.8803 10.355
20.8955 10.180
20.9106 10.271
20.9258 10.119
20.9410 10.022
20.9562 10.518
20.9713 10.236
20.9865 10.202
21.0017 10.133
21.0169 10.043
21.0320 9.835
21.0472 9.894
21.0624 9.892
21.0776 10.059
21.0927 9.978
21.1079 9.430
21.1231 9.679
21.1383 9.761
21.1534 9.873
21.1686 10.031
21.1838 9.674
21.1990 9.778
21.2141 9.467
21.2293 9.790
21.2445 9.820
21.2597 9.637
21.2748 9.593
21.2900 9.684
21.3052 9.235
21.3204 9.558
21.3355 9.324
21.3507 9.471
21.3659 9.464
21.3811 9.322
21.3962 9.405
21.4114 9.428
21.4266 9.387
21.4418 9.429
21.4569 9.155
21.4721 9.602
21.4873 9.243
21.5025 9.200
21.5176 9.241
21.5328 9.220
21.5480 9.325
21.5632 9.293
21.5783 9.300
21.5935 9.190
21.6087 9.205
21.6239 9.175
21.6390 9.136
21.6542 9.109
21.6694 9.268
21.6846 9.343
21.6997 9.509
21.7149 9.316
21.7301 9.280
21.7453 9.378
21.7604 9.134
21.7756 9.129
21.7908 8.877
21.8060 9.023
21.8211 8.997
21.8363 9.134
21.8515 9.017
21.8667 8.970
21.8818 8.795
21.8970 8.710
21.9122 8.867
21.9274 8.716
21.9425 8.909
21.9577 9.060
21.9729 8.863
21.9881 8.673
22.0032 8.713
22.0184 8.627
22.0336 8.615
22.0488 8.652
22.0639 8.798
22.0791 8.730
22.0943 8.703
22.1095 8.589
22.1246 8.605
22.1398 8.434
22.1550 8.553
22.1702 8.571
22.1853 8.521
22.2005 8.523
22.2157 8.622
22.2309 8.700
22.2460 8.784
22.2612 8.429
22.2764 8.527
22.2916 8.616
22.3067 8.637
22.3219 8.653
22.3371 8.671
22.3523 8.648
22.3674 8.377
22.3826 8.564
22.3978 8.648
22.4130 8.483
22.4281 8.394
22.4433 8.181
22.4585 8.814
22.4737 8.429
22.4888 8.465
22.5040 8.402
22.5192 8.265
22.5344 8.493
22.5495 8.308
22.5647 8.579
22.5799 8.417
22.5951 8.173
22.6102 8.311
22.6254 8.458
22.6406 8.355
22.6558 8.911
22.6709 8.573
22.6861 8.266
22.7013 8.119
22.7165 7.977
22.7316 6.385
