'Id: "" Comment: "" Operator: "Lab Manager" Anode: "Mo" Scantype: "Still (Eiger2R_500K (1D mode))" TimePerStep: "300" X: "11.8" Y: "9.4" Z: "11.284" 
7.2532 19.014
7.2684 18.882
7.2836 18.777
7.2987 19.211
7.3139 19.286
7.3291 19.360
7.3443 18.998
7.3594 19.546
7.3746 18.913
7.3898 18.960
7.4050 19.450
7.4201 19.601
7.4353 19.685
7.4505 19.760
7.4657 19.810
7.4808 19.532
7.4960 20.012
7.5112 19.955
7.5264 19.696
7.5415 19.823
7.5567 19.504
7.5719 19.743
7.5871 19.460
7.6022 19.776
7.6174 20.142
7.6326 20.128
7.6478 20.212
7.6629 20.538
7.6781 20.490
7.6933 20.180
7.7085 20.303
7.7236 20.448
7.7388 20.159
7.7540 20.201
7.7692 20.292
7.7843 20.617
7.7995 20.429
7.8147 20.585
7.8299 20.760
7.8450 20.490
7.8602 20.885
7.8754 21.200
7.8905 21.139
7.9057 20.835
7.9209 20.707
7.9361 20.921
7.9512 20.918
7.9664 21.002
7.9816 20.983
7.9968 21.043
8.0119 20.826
8.0271 20.785
8.0423 20.937
8.0575 21.249
8.0726 21.297
8.0878 21.253
8.1030 21.357
8.1182 21.634
8.1333 21.713
8.1485 21.637
8.1637 21.622
8.1789 21.607
8.1940 22.037
8.2092 21.946
8.2244 22.112
8.2396 21.708
8.2547 21.772
8.2699 21.935
8.2851 21.670
8.3003 21.942
8.3154 21.586
8.3306 21.248
8.3458 21.751
8.3610 21.389
8.3761 21.791
8.3913 21.840
8.4065 22.086
8.4217 22.029
8.4368 22.485
8.4520 22.223
8.4672 21.898
8.4824 21.724
8.4975 21.995
8.5127 21.896
8.5279 21.524
8.5431 21.940
8.5582 21.801
8.5734 22.352
8.5886 22.239
8.6038 22.096
8.6189 22.076
8.6341 22.004
8.6493 22.651
8.6645 22.032
8.6796 22.084
8.6948 22.419
8.7100 22.703
8.7252 22.546
8.7403 22.367
8.7555 22.468
8.7707 22.621
8.7859 22.370
8.8010 22.631
8.8162 22.737
8.8314 22.610
8.8466 22.411
8.8617 22.646
8.8769 22.305
8.8921 22.546
8.9073 22.747
8.9224 23.062
8.9376 22.647
8.9528 23.123
8.9680 22.730
8.9831 22.942
8.9983 22.955
9.0135 22.783
9.0287 22.672
9.0438 22.486
9.0590 22.588
9.0742 22.572
9.0894 22.870
9.1045 23.113
9.1197 23.243
9.1349 22.941
9.1501 23.255
9.1652 22.885
9.1804 23.014
9.1956 23.174
9.2108 22.828
9.2259 22.647
9.2411 23.205
9.2563 22.909
9.2715 22.675
9.2866 23.015
9.3018 23.292
9.3170 23.010
9.3322 22.757
9.3473 22.988
9.3625 22.883
9.3777 23.451
9.3929 23.237
9.4080 22.967
9.4232 23.420
9.4384 23.213
9.4536 23.210
9.4687 23.092
9.4839 23.055
9.4991 23.337
9.5143 23.467
9.5294 23.417
9.5446 23.444
9.5598 23.230
9.5750 23.122
9.5901 23.367
9.6053 23.510
9.6205 23.501
9.6357 23.448
9.6508 23.591
9.6660 23.583
9.6812 23.786
9.6964 23.699
9.7115 23.541
9.7267 23.841
9.7419 24.497
9.7571 24.155
9.7722 23.893
9.7874 24.052
9.8026 24.007
9.8178 24.149
9.8329 24.054
9.8481 23.854
9.8633 23.632
9.8785 23.741
9.8936 24.002
9.9088 23.853
9.9240 23.739
9.9392 23.922
9.9543 23.850
9.9695 23.691
9.9847 23.628
9.9999 23.464
10.0150 23.438
10.0302 23.491
10.0454 23.533
10.0606 23.400
10.0757 23.473
10.0909 23.270
10.1061 23.074
10.1213 23.460
10.1364 22.988
10.1516 22.591
10.1668 22.749
10.1820 23.274
10.1971 23.313
10.2123 23.373
10.2275 23.252
10.2427 23.143
10.2578 23.192
10.2730 23.224
10.2882 23.304
10.3034 23.053
10.3185 22.983
10.3337 23.192
10.3489 23.003
10.3641 23.050
10.3792 23.329
10.3944 23.034
10.4096 23.055
10.4248 23.021
10.4399 22.959
10.4551 22.973
10.4703 22.961
10.4855 22.632
10.5006 22.617
10.5158 22.798
10.5310 22.693
10.5462 22.360
10.5613 22.369
10.5765 22.480
10.5917 22.694
10.6069 22.532
10.6220 22.544
10.6372 22.550
10.6524 22.418
10.6676 22.911
10.6827 22.802
10.6979 22.287
10.7131 22.346
10.7283 22.855
10.7434 22.726
10.7586 22.482
10.7738 22.622
10.7890 22.410
10.8041 22.276
10.8193 22.161
10.8345 21.996
10.8497 22.226
10.8648 22.071
10.8800 22.219
10.8952 22.163
10.9104 22.596
10.9255 22.795
10.9407 22.735
10.9559 22.216
10.9711 21.776
10.9862 22.235
11.0014 22.227
11.0166 22.335
11.0318 22.642
11.0469 21.902
11.0621 21.858
11.0773 22.196
11.0925 21.888
11.1076 21.975
11.1228 22.149
11.1380 21.852
11.1532 21.774
11.1683 21.835
11.1835 21.739
11.1987 21.624
11.2139 21.630
11.2290 21.750
11.2442 21.716
11.2594 21.520
11.2746 21.619
11.2897 21.680
11.3049 21.436
11.3201 21.836
11.3353 21.530
11.3504 21.134
11.3656 21.685
11.3808 21.797
11.3960 21.255
11.4111 21.237
11.4263 21.149
11.4415 21.352
11.4567 21.509
11.4718 21.367
11.4870 21.574
11.5022 21.639
11.5174 21.405
11.5325 21.485
11.5477 21.359
11.5629 21.385
11.5781 21.692
11.5932 21.040
11.6084 20.893
11.6236 20.930
11.6388 20.667
11.6539 20.895
11.6691 20.690
11.6843 21.086
11.6995 20.654
11.7146 20.464
11.7298 20.391
11.7450 20.367
11.7602 20.268
11.7753 20.387
11.7905 20.323
11.8057 19.883
11.8209 19.911
11.8360 19.890
11.8512 20.164
11.8664 19.858
11.8816 19.861
11.8967 19.500
11.9119 19.476
11.9271 19.520
11.9423 19.544
11.9574 19.515
11.9726 19.673
11.9878 19.431
12.0030 19.090
12.0181 18.960
12.0333 19.037
12.0485 19.001
12.0637 18.919
12.0788 19.054
12.0940 18.901
12.1092 18.663
12.1244 18.692
12.1395 18.332
12.1547 18.588
12.1699 18.537
12.1851 18.359
12.2002 18.329
12.2154 18.191
12.2306 18.039
12.2458 17.866
12.2609 18.025
12.2761 18.141
12.2913 17.868
12.3065 17.592
12.3216 17.451
12.3368 17.407
12.3520 17.484
12.3672 17.556
12.3823 17.279
12.3975 17.061
12.4127 17.150
12.4279 17.135
12.4430 17.262
12.4582 16.779
12.4734 16.593
12.4886 16.864
12.5037 16.720
12.5189 16.809
12.5341 16.748
12.5493 16.310
12.5644 16.226
12.5796 16.484
12.5948 16.653
12.6100 16.327
12.6251 15.831
12.6403 15.996
12.6555 15.883
12.6707 15.730
12.6858 16.063
12.7010 15.935
12.7162 15.550
12.7314 15.554
12.7465 15.669
12.7617 15.562
12.7769 15.282
12.7921 15.315
12.8072 15.232
12.8224 15.199
12.8376 14.958
12.8528 14.928
12.8679 15.099
12.8831 14.829
12.8983 14.669
12.9135 14.852
12.9286 14.687
12.9438 14.305
12.9590 14.346
12.9742 14.710
12.9893 14.440
13.0045 14.520
13.0197 14.716
13.0349 14.490
13.0500 14.198
13.0652 14.242
13.0804 14.076
13.0956 13.745
13.1107 13.888
13.1259 13.826
13.1411 13.682
13.1563 13.629
13.1714 13.736
13.1866 13.797
13.2018 13.498
13.2170 13.482
13.2321 13.596
13.2473 13.487
13.2625 13.497
13.2777 13.418
13.2928 13.427
13.3080 13.305
13.3232 13.172
13.3384 13.278
13.3535 13.358
13.3687 13.169
13.3839 12.903
13.3991 13.024
13.4142 13.178
13.4294 13.189
13.4446 13.094
13.4598 12.945
13.4749 12.720
13.4901 12.528
13.5053 12.303
13.5205 12.499
13.5356 12.658
13.5508 12.489
13.5660 12.650
13.5812 12.587
13.5963 12.288
13.6115 12.427
13.6267 12.265
13.6419 11.965
13.6570 12.174
13.6722 12.502
13.6874 12.449
13.7026 12.156
13.7177 11.995
13.7329 11.936
13.7481 11.824
13.7633 12.118
13.7784 12.441
13.7936 12.267
13.8088 12.224
13.8239 12.398
13.8391 12.491
13.8543 12.578
13.8695 12.619
13.8846 12.257
13.8998 12.017
13.9150 12.206
13.9302 12.035
13.9453 12.174
13.9605 12.000
13.9757 11.594
13.9909 11.691
14.0060 11.628
14.0212 11.456
14.0364 11.393
14.0516 11.411
14.0667 11.431
14.0819 11.458
14.0971 11.586
14.1123 11.506
14.1274 11.414
14.1426 11.365
14.1578 11.307
14.1730 11.633
14.1881 11.618
14.2033 11.683
14.2185 11.260
14.2337 11.455
14.2488 11.419
14.2640 11.674
14.2792 11.557
14.2944 11.457
14.3095 11.877
14.3247 11.825
14.3399 11.875
14.3551 12.071
14.3702 11.967
14.3854 12.405
14.4006 12.421
14.4158 12.458
14.4309 12.877
14.4461 12.922
14.4613 12.465
14.4765 12.265
14.4916 12.424
14.5068 12.029
14.5220 12.006
14.5372 11.721
14.5523 11.681
14.5675 11.344
14.5827 11.334
14.5979 11.584
14.6130 11.134
14.6282 11.268
14.6434 10.950
14.6586 11.171
14.6737 11.195
14.6889 10.980
14.7041 11.154
14.7193 11.156
14.7344 10.975
14.7496 11.167
14.7648 10.923
14.7800 11.167
14.7951 10.910
14.8103 11.245
14.8255 10.939
14.8407 10.987
14.8558 10.575
14.8710 10.654
14.8862 10.796
14.9014 10.792
14.9165 11.120
14.9317 11.070
14.9469 10.900
14.9621 10.665
14.9772 10.236
14.9924 10.398
15.0076 10.623
15.0228 10.554
15.0379 10.478
15.0531 10.567
15.0683 10.637
15.0835 10.497
15.0986 10.677
15.1138 10.486
15.1290 10.276
15.1442 10.548
15.1593 10.169
15.1745 9.990
15.1897 10.556
15.2049 10.227
15.2200 10.338
15.2352 10.667
15.2504 10.462
15.2656 10.464
15.2807 9.954
15.2959 10.560
15.3111 10.300
15.3263 10.328
15.3414 10.364
15.3566 10.702
15.3718 10.154
15.3870 9.654
15.4021 10.670
15.4173 10.357
15.4325 10.178
15.4477 10.059
15.4628 10.442
15.4780 10.166
15.4932 10.526
15.5084 10.123
15.5235 10.410
15.5387 10.173
15.5539 10.693
15.5691 10.535
15.5842 10.198
15.5994 10.355
15.6146 10.006
15.6298 10.036
15.6449 10.006
15.6601 10.098
15.6753 9.949
15.6905 9.975
15.7056 10.164
15.7208 10.140
15.7360 9.973
15.7512 10.148
15.7663 10.044
15.7815 9.785
15.7967 10.002
15.8119 9.821
15.8270 9.696
15.8422 9.956
15.8574 9.992
15.8726 9.901
15.8877 9.460
15.9029 9.596
15.9181 9.874
15.9333 9.799
15.9484 10.005
15.9636 9.700
15.9788 9.744
15.9940 9.591
16.0091 9.508
16.0243 9.838
16.0395 9.887
16.0547 9.906
16.0698 9.543
16.0850 9.617
16.1002 10.060
16.1154 9.692
16.1305 9.754
16.1457 9.883
16.1609 9.618
16.1761 9.952
16.1912 9.782
16.2064 9.678
16.2216 9.781
16.2368 9.866
16.2519 9.772
16.2671 10.037
16.2823 10.163
16.2975 10.174
16.3126 9.944
16.3278 9.858
16.3430 9.946
16.3582 9.939
16.3733 9.962
16.3885 10.092
16.4037 10.063
16.4189 10.075
16.4340 9.977
16.4492 9.864
16.4644 9.972
16.4796 9.710
16.4947 9.785
16.5099 9.874
16.5251 9.834
16.5403 9.948
16.5554 9.879
16.5706 9.655
16.5858 9.770
16.6010 9.666
16.6161 9.870
16.6313 9.862
16.6465 9.767
16.6617 9.776
16.6768 9.955
16.6920 10.220
16.7072 10.312
16.7224 10.043
16.7375 10.121
16.7527 10.315
16.7679 10.189
16.7831 10.030
16.7982 10.191
16.8134 10.146
16.8286 9.846
16.8438 10.029
16.8589 10.089
16.8741 10.097
16.8893 9.951
16.9045 9.963
16.9196 10.005
16.9348 9.865
16.9500 9.572
16.9652 9.611
16.9803 9.875
16.9955 9.877
17.0107 9.979
17.0259 10.204
17.0410 10.309
17.0562 10.321
17.0714 10.357
17.0866 10.321
17.1017 10.385
17.1169 10.751
17.1321 11.078
17.1473 11.294
17.1624 11.785
17.1776 12.624
17.1928 13.481
17.2080 14.257
17.2231 15.335
17.2383 16.361
17.2535 17.598
17.2687 18.922
17.2838 19.153
17.2990 18.482
17.3142 17.343
17.3294 16.366
17.3445 16.261
17.3597 16.128
17.3749 15.667
17.3901 15.245
17.4052 14.353
17.4204 13.183
17.4356 12.301
17.4508 11.861
17.4659 11.477
17.4811 11.259
17.4963 11.313
17.5115 11.037
17.5266 10.778
17.5418 10.634
17.5570 10.414
17.5722 10.487
17.5873 10.450
17.6025 10.286
17.6177 10.175
17.6329 10.052
17.6480 10.196
17.6632 10.170
17.6784 10.205
17.6936 10.412
17.7087 10.378
17.7239 10.204
17.7391 10.174
17.7543 10.300
17.7694 10.389
17.7846 10.431
17.7998 10.648
17.8150 10.958
17.8301 10.945
17.8453 10.941
17.8605 11.097
17.8757 11.193
17.8908 11.254
17.9060 11.000
17.9212 10.995
17.9364 10.885
17.9515 10.812
17.9667 10.789
17.9819 10.571
17.9971 10.438
18.0122 10.513
18.0274 10.656
18.0426 10.580
18.0578 10.449
18.0729 10.218
18.0881 10.111
18.1033 10.008
18.1185 9.821
18.1336 9.944
18.1488 10.139
18.1640 10.202
18.1792 9.976
18.1943 9.985
18.2095 10.130
18.2247 10.096
18.2399 10.088
18.2550 9.912
18.2702 9.668
18.2854 9.699
18.3006 9.817
18.3157 9.787
18.3309 9.867
18.3461 9.906
18.3613 9.896
18.3764 9.697
18.3916 9.830
18.4068 9.924
18.4220 10.109
18.4371 9.853
18.4523 9.991
18.4675 10.036
18.4827 9.949
18.4978 9.876
18.5130 9.762
18.5282 9.801
18.5434 9.954
18.5585 9.898
18.5737 9.948
18.5889 9.979
18.6041 9.708
18.6192 9.603
18.6344 9.638
18.6496 9.837
18.6648 9.818
18.6799 9.787
18.6951 9.812
18.7103 9.723
18.7255 9.660
18.7406 9.941
18.7558 10.023
18.7710 10.008
18.7862 9.722
18.8013 9.539
18.8165 9.614
18.8317 9.864
18.8469 9.987
18.8620 10.121
18.8772 10.308
18.8924 10.224
18.9076 9.967
18.9227 10.145
18.9379 10.005
18.9531 9.862
18.9683 10.070
18.9834 10.131
18.9986 10.055
19.0138 10.235
19.0290 10.126
19.0441 10.035
19.0593 10.213
19.0745 10.286
19.0897 10.452
19.1048 10.484
19.1200 10.639
19.1352 10.546
19.1504 10.546
19.1655 10.560
19.1807 10.507
19.1959 10.376
19.2111 10.453
19.2262 10.606
19.2414 10.823
19.2566 10.868
19.2718 10.739
19.2869 10.899
19.3021 11.173
19.3173 11.313
19.3325 11.249
19.3476 11.177
19.3628 11.202
19.3780 11.299
19.3932 11.166
19.4083 11.106
19.4235 11.144
19.4387 11.271
19.4539 11.382
19.4690 11.493
19.4842 11.382
19.4994 11.341
19.5146 11.461
19.5297 11.533
19.5449 11.528
19.5601 11.445
19.5753 11.494
19.5904 11.411
19.6056 11.611
19.6208 11.638
19.6360 11.326
19.6511 11.490
19.6663 11.664
19.6815 11.695
19.6967 11.601
19.7118 11.696
19.7270 11.503
19.7422 11.440
19.7574 11.903
19.7725 11.922
19.7877 11.918
19.8029 12.063
19.8180 11.957
19.8332 12.212
19.8484 12.383
19.8636 12.408
19.8787 12.489
19.8939 12.632
19.9091 12.920
19.9243 13.437
19.9394 14.030
19.9546 14.030
19.9698 14.326
19.9850 14.748
20.0001 14.391
20.0153 14.111
20.0305 13.919
20.0457 13.783
20.0608 13.733
20.0760 13.561
20.0912 13.799
20.1064 13.698
20.1215 13.567
20.1367 13.389
20.1519 13.248
20.1671 13.058
20.1822 12.888
20.1974 12.755
20.2126 12.588
20.2278 12.520
20.2429 12.335
20.2581 12.178
20.2733 12.051
20.2885 11.841
20.3036 11.977
20.3188 12.109
20.3340 11.531
20.3492 11.476
20.3643 11.316
20.3795 11.048
20.3947 10.760
20.4099 10.796
20.4250 10.944
20.4402 10.960
20.4554 10.896
20.4706 10.805
20.4857 10.949
20.5009 10.879
20.5161 10.569
20.5313 10.628
20.5464 10.760
20.5616 10.833
20.5768 10.785
20.5920 10.648
20.6071 10.404
20.6223 10.417
20.6375 10.367
20.6527 10.463
20.6678 10.609
20.6830 10.565
20.6982 10.523
20.7134 10.597
20.7285 10.635
20.7437 10.298
20.7589 10.149
20.7741 10.165
20.7892 10.321
20.8044 10.359
20.8196 10.275
20.8348 10.194
20.8499 10.079
20.8651 10.175
20.8803 10.278
20.8955 10.256
20.9106 10.465
20.9258 10.321
20.9410 10.192
20.9562 10.392
20.9713 10.563
20.9865 10.357
21.0017 10.328
21.0169 10.359
21.0320 10.508
21.0472 10.458
21.0624 10.421
21.0776 10.424
21.0927 10.227
21.1079 10.063
21.1231 9.667
21.1383 10.143
21.1534 9.815
21.1686 9.455
21.1838 10.030
21.1990 9.555
21.2141 9.684
21.2293 9.819
21.2445 9.926
21.2597 9.690
21.2748 9.647
21.2900 9.516
21.3052 9.683
21.3204 9.594
21.3355 9.543
21.3507 9.373
21.3659 9.483
21.3811 9.617
21.3962 9.663
21.4114 9.388
21.4266 9.383
21.4418 9.433
21.4569 9.553
21.4721 9.088
21.4873 9.037
21.5025 9.110
21.5176 9.345
21.5328 9.484
21.5480 9.027
21.5632 9.354
21.5783 9.554
21.5935 9.293
21.6087 9.266
21.6239 9.387
21.6390 9.079
21.6542 9.233
21.6694 9.116
21.6846 9.026
21.6997 9.293
21.7149 9.190
21.7301 8.920
21.7453 9.011
21.7604 9.201
21.7756 9.146
21.7908 9.204
21.8060 9.184
21.8211 8.953
21.8363 8.970
21.8515 8.908
21.8667 8.931
21.8818 8.868
21.8970 9.182
21.9122 9.092
21.9274 9.023
21.9425 9.020
21.9577 8.930
21.9729 8.881
21.9881 8.976
22.0032 9.001
22.0184 8.891
22.0336 8.849
22.0488 8.636
22.0639 8.479
22.0791 8.680
22.0943 8.764
22.1095 8.718
22.1246 8.656
22.1398 8.719
22.1550 8.657
22.1702 8.665
22.1853 8.507
22.2005 8.535
22.2157 8.661
22.2309 8.630
22.2460 8.663
22.2612 8.612
22.2764 8.700
22.2916 8.428
22.3067 8.657
22.3219 8.578
22.3371 8.457
22.3523 8.708
22.3674 8.832
22.3826 8.877
22.3978 8.659
22.4130 8.462
22.4281 8.368
22.4433 8.827
22.4585 8.526
22.4737 8.549
22.4888 8.439
22.5040 8.402
22.5192 8.684
22.5344 8.605
22.5495 8.619
22.5647 8.429
22.5799 8.576
22.5951 8.587
22.6102 8.761
22.6254 8.737
22.6406 8.434
22.6558 8.507
22.6709 8.207
22.6861 8.368
22.7013 8.309
22.7165 8.014
22.7316 6.489
