'Id: "" Comment: "" Operator: "Lab Manager" Anode: "Mo" Scantype: "Still (Eiger2R_500K (1D mode))" TimePerStep: "300" X: "11.8" Y: "9.4" Z: "11.284" 
7.2532 18.728
7.2684 19.082
7.2836 18.874
7.2987 18.789
7.3139 19.008
7.3291 19.009
7.3443 19.236
7.3594 19.343
7.3746 19.321
7.3898 19.481
7.4050 19.651
7.4201 18.793
7.4353 19.120
7.4505 19.630
7.4657 19.563
7.4808 19.564
7.4960 19.364
7.5112 19.508
7.5264 19.381
7.5415 19.467
7.5567 19.729
7.5719 19.825
7.5871 20.071
7.6022 19.675
7.6174 19.771
7.6326 19.873
7.6478 20.043
7.6629 20.437
7.6781 20.449
7.6933 20.378
7.7085 20.588
7.7236 20.552
7.7388 20.426
7.7540 20.380
7.7692 20.191
7.7843 20.080
7.7995 20.465
7.8147 20.657
7.8299 20.824
7.8450 21.100
7.8602 20.867
7.8754 20.851
7.8905 20.980
7.9057 21.065
7.9209 21.360
7.9361 21.250
7.9512 21.292
7.9664 21.309
7.9816 21.262
7.9968 21.087
8.0119 20.737
8.0271 20.979
8.0423 21.069
8.0575 21.266
8.0726 21.211
8.0878 21.318
8.1030 21.138
8.1182 21.185
8.1333 21.317
8.1485 21.657
8.1637 21.059
8.1789 21.698
8.1940 21.727
8.2092 21.574
8.2244 21.539
8.2396 21.709
8.2547 21.750
8.2699 21.870
8.2851 21.874
8.3003 21.738
8.3154 21.651
8.3306 21.753
8.3458 21.751
8.3610 22.021
8.3761 22.076
8.3913 22.289
8.4065 22.049
8.4217 22.182
8.4368 21.639
8.4520 21.877
8.4672 22.255
8.4824 22.079
8.4975 21.999
8.5127 21.706
8.5279 21.855
8.5431 22.268
8.5582 22.646
8.5734 22.296
8.5886 22.147
8.6038 22.516
8.6189 22.520
8.6341 22.560
8.6493 22.905
8.6645 22.841
8.6796 22.431
8.6948 22.549
8.7100 22.972
8.7252 22.873
8.7403 22.730
8.7555 22.306
8.7707 22.966
8.7859 22.696
8.8010 22.652
8.8162 22.735
8.8314 23.181
8.8466 22.759
8.8617 22.660
8.8769 22.381
8.8921 22.753
8.9073 22.526
8.9224 22.733
8.9376 22.539
8.9528 23.026
8.9680 22.967
8.9831 22.779
8.9983 22.765
9.0135 22.589
9.0287 23.141
9.0438 22.577
9.0590 22.792
9.0742 22.808
9.0894 22.596
9.1045 23.120
9.1197 22.891
9.1349 22.677
9.1501 22.371
9.1652 22.876
9.1804 23.268
9.1956 23.177
9.2108 23.122
9.2259 22.939
9.2411 22.748
9.2563 23.357
9.2715 23.475
9.2866 23.286
9.3018 23.222
9.3170 23.385
9.3322 23.252
9.3473 23.174
9.3625 23.208
9.3777 23.078
9.3929 22.844
9.4080 22.625
9.4232 22.959
9.4384 23.282
9.4536 23.353
9.4687 23.452
9.4839 23.308
9.4991 23.495
9.5143 23.268
9.5294 22.851
9.5446 23.101
9.5598 23.504
9.5750 23.499
9.5901 23.333
9.6053 23.077
9.6205 23.033
9.6357 23.191
9.6508 23.667
9.6660 23.659
9.6812 23.601
9.6964 23.670
9.7115 23.932
9.7267 24.365
9.7419 24.244
9.7571 24.228
9.7722 23.969
9.7874 23.625
9.8026 23.710
9.8178 23.771
9.8329 23.600
9.8481 23.398
9.8633 23.405
9.8785 23.436
9.8936 23.463
9.9088 23.381
9.9240 23.405
9.9392 23.405
9.9543 23.430
9.9695 23.474
9.9847 23.188
9.9999 23.685
10.0150 24.350
10.0302 24.190
10.0454 23.995
10.0606 23.947
10.0757 23.767
10.0909 23.765
10.1061 23.868
10.1213 23.746
10.1364 23.935
10.1516 24.211
10.1668 24.211
10.1820 24.412
10.1971 24.156
10.2123 23.849
10.2275 23.889
10.2427 23.918
10.2578 24.272
10.2730 24.183
10.2882 23.604
10.3034 23.623
10.3185 23.518
10.3337 23.038
10.3489 23.282
10.3641 23.256
10.3792 23.011
10.3944 22.641
10.4096 22.646
10.4248 22.951
10.4399 22.845
10.4551 22.638
10.4703 22.724
10.4855 22.773
10.5006 22.731
10.5158 22.823
10.5310 23.010
10.5462 22.663
10.5613 22.679
10.5765 22.750
10.5917 22.768
10.6069 22.797
10.6220 22.490
10.6372 22.644
10.6524 22.837
10.6676 22.516
10.6827 22.660
10.6979 22.561
10.7131 22.312
10.7283 22.400
10.7434 22.619
10.7586 22.570
10.7738 22.697
10.7890 22.784
10.8041 22.337
10.8193 22.383
10.8345 22.301
10.8497 22.117
10.8648 21.992
10.8800 21.904
10.8952 22.067
10.9104 21.936
10.9255 22.116
10.9407 21.933
10.9559 22.225
10.9711 22.000
10.9862 22.113
11.0014 22.305
11.0166 22.142
11.0318 22.188
11.0469 22.205
11.0621 21.927
11.0773 21.984
11.0925 22.036
11.1076 22.040
11.1228 22.104
11.1380 22.109
11.1532 21.912
11.1683 21.920
11.1835 21.827
11.1987 21.880
11.2139 21.956
11.2290 21.927
11.2442 21.789
11.2594 21.618
11.2746 21.704
11.2897 21.674
11.3049 21.670
11.3201 21.752
11.3353 21.924
11.3504 21.890
11.3656 21.902
11.3808 21.750
11.3960 21.608
11.4111 21.182
11.4263 21.123
11.4415 21.592
11.4567 21.107
11.4718 20.773
11.4870 20.978
11.5022 21.281
11.5174 21.700
11.5325 21.535
11.5477 20.909
11.5629 20.759
11.5781 20.716
11.5932 20.885
11.6084 20.756
11.6236 20.619
11.6388 20.615
11.6539 20.398
11.6691 20.647
11.6843 20.405
11.6995 20.241
11.7146 20.283
11.7298 20.556
11.7450 20.297
11.7602 20.006
11.7753 19.981
11.7905 19.942
11.8057 20.549
11.8209 20.222
11.8360 19.634
11.8512 19.475
11.8664 19.612
11.8816 19.395
11.8967 19.632
11.9119 19.621
11.9271 19.760
11.9423 19.681
11.9574 19.752
11.9726 19.287
11.9878 19.402
12.0030 19.206
12.0181 18.966
12.0333 19.082
12.0485 18.966
12.0637 18.757
12.0788 18.965
12.0940 18.993
12.1092 18.754
12.1244 18.428
12.1395 18.749
12.1547 18.564
12.1699 18.433
12.1851 18.422
12.2002 18.215
12.2154 17.788
12.2306 17.754
12.2458 17.946
12.2609 17.796
12.2761 17.781
12.2913 18.077
12.3065 17.948
12.3216 17.572
12.3368 17.631
12.3520 17.465
12.3672 17.365
12.3823 17.544
12.3975 17.344
12.4127 17.216
12.4279 17.197
12.4430 17.003
12.4582 16.890
12.4734 17.225
12.4886 17.247
12.5037 17.291
12.5189 17.002
12.5341 16.657
12.5493 16.922
12.5644 16.596
12.5796 16.305
12.5948 16.130
12.6100 15.818
12.6251 15.859
12.6403 15.982
12.6555 16.010
12.6707 16.083
12.6858 15.937
12.7010 16.026
12.7162 16.116
12.7314 15.779
12.7465 15.495
12.7617 15.341
12.7769 15.164
12.7921 15.031
12.8072 14.873
12.8224 14.888
12.8376 14.932
12.8528 14.986
12.8679 14.950
12.8831 14.864
12.8983 14.789
12.9135 14.596
12.9286 14.564
12.9438 14.414
12.9590 14.531
12.9742 14.787
12.9893 14.596
13.0045 14.390
13.0197 14.241
13.0349 14.159
13.0500 14.285
13.0652 14.069
13.0804 13.720
13.0956 13.857
13.1107 13.962
13.1259 13.786
13.1411 13.865
13.1563 13.667
13.1714 13.378
13.1866 13.636
13.2018 13.628
13.2170 13.416
13.2321 13.467
13.2473 13.502
13.2625 13.463
13.2777 13.364
13.2928 13.139
13.3080 13.132
13.3232 13.092
13.3384 12.976
13.3535 12.953
13.3687 12.779
13.3839 12.806
13.3991 13.031
13.4142 12.988
13.4294 12.782
13.4446 12.823
13.4598 12.909
13.4749 12.846
13.4901 12.845
13.5053 12.797
13.5205 12.472
13.5356 12.395
13.5508 12.507
13.5660 12.295
13.5812 12.079
13.5963 12.076
13.6115 12.164
13.6267 12.306
13.6419 12.334
13.6570 12.232
13.6722 12.168
13.6874 11.752
13.7026 11.967
13.7177 12.286
13.7329 12.086
13.7481 12.084
13.7633 11.974
13.7784 12.045
13.7936 12.011
13.8088 12.268
13.8239 12.262
13.8391 11.911
13.8543 12.048
13.8695 12.360
13.8846 12.281
13.8998 12.027
13.9150 12.077
13.9302 12.129
13.9453 12.048
13.9605 12.099
13.9757 12.071
13.9909 11.476
14.0060 11.448
14.0212 11.509
14.0364 11.303
14.0516 11.651
14.0667 11.772
14.0819 11.493
14.0971 11.580
14.1123 11.553
14.1274 11.551
14.1426 11.598
14.1578 11.464
14.1730 11.488
14.1881 11.594
14.2033 11.663
14.2185 11.995
14.2337 11.548
14.2488 11.975
14.2640 12.064
14.2792 12.078
14.2944 12.006
14.3095 12.184
14.3247 12.382
14.3399 12.752
14.3551 12.658
14.3702 12.979
14.3854 13.430
14.4006 13.637
14.4158 13.151
14.4309 12.963
14.4461 12.915
14.4613 12.716
14.4765 12.683
14.4916 12.553
14.5068 12.677
14.5220 12.386
14.5372 11.904
14.5523 12.346
14.5675 11.832
14.5827 11.813
14.5979 11.952
14.6130 11.704
14.6282 11.851
14.6434 11.605
14.6586 11.297
14.6737 11.213
14.6889 11.347
14.7041 11.421
14.7193 11.090
14.7344 11.040
14.7496 10.755
14.7648 11.141
14.7800 11.003
14.7951 10.771
14.8103 10.751
14.8255 10.590
14.8407 10.528
14.8558 10.853
14.8710 10.649
14.8862 10.603
14.9014 10.503
14.9165 10.881
14.9317 10.649
14.9469 10.621
14.9621 10.512
14.9772 10.348
14.9924 10.487
15.0076 10.561
15.0228 10.360
15.0379 10.584
15.0531 10.542
15.0683 10.293
15.0835 10.240
15.0986 10.712
15.1138 10.731
15.1290 10.925
15.1442 10.577
15.1593 10.671
15.1745 10.097
15.1897 10.419
15.2049 10.322
15.2200 10.455
15.2352 10.484
15.2504 10.749
15.2656 10.131
15.2807 10.443
15.2959 10.563
15.3111 10.518
15.3263 10.332
15.3414 10.124
15.3566 10.320
15.3718 10.050
15.3870 10.411
15.4021 10.248
15.4173 10.694
15.4325 10.932
15.4477 10.455
15.4628 10.614
15.4780 10.702
15.4932 10.590
15.5084 10.524
15.5235 10.629
15.5387 10.379
15.5539 10.381
15.5691 10.175
15.5842 10.111
15.5994 10.309
15.6146 9.959
15.6298 10.110
15.6449 10.166
15.6601 10.091
15.6753 9.957
15.6905 10.176
15.7056 10.096
15.7208 9.937
15.7360 9.698
15.7512 9.898
15.7663 9.798
15.7815 9.841
15.7967 9.826
15.8119 10.034
15.8270 9.951
15.8422 10.213
15.8574 9.982
15.8726 9.594
15.8877 9.613
15.9029 9.673
15.9181 9.730
15.9333 9.586
15.9484 9.769
15.9636 9.837
15.9788 9.688
15.9940 9.875
16.0091 9.709
16.0243 9.847
16.0395 9.746
16.0547 9.688
16.0698 9.690
16.0850 9.727
16.1002 9.769
16.1154 9.840
16.1305 9.754
16.1457 9.790
16.1609 9.782
16.1761 10.022
16.1912 9.723
16.2064 9.728
16.2216 9.810
16.2368 9.957
16.2519 9.867
16.2671 9.830
16.2823 9.845
16.2975 10.053
16.3126 10.406
16.3278 10.338
16.3430 9.934
16.3582 9.766
16.3733 9.903
16.3885 10.255
16.4037 10.169
16.4189 10.218
16.4340 10.192
16.4492 10.191
16.4644 9.916
16.4796 9.838
16.4947 9.879
16.5099 9.731
16.5251 9.809
16.5403 9.900
16.5554 9.841
16.5706 9.849
16.5858 9.782
16.6010 9.541
16.6161 9.596
16.6313 9.732
16.6465 9.665
16.6617 9.732
16.6768 9.895
16.6920 9.885
16.7072 9.659
16.7224 9.973
16.7375 9.950
16.7527 9.825
16.7679 10.132
16.7831 10.175
16.7982 9.997
16.8134 9.804
16.8286 9.758
16.8438 9.742
16.8589 9.764
16.8741 9.678
16.8893 9.529
16.9045 9.880
16.9196 9.743
16.9348 9.630
16.9500 9.656
16.9652 9.973
16.9803 9.989
16.9955 9.860
17.0107 9.881
17.0259 9.961
17.0410 10.084
17.0562 10.113
17.0714 10.101
17.0866 10.333
17.1017 10.440
17.1169 10.659
17.1321 11.211
17.1473 11.621
17.1624 11.859
17.1776 12.127
17.1928 12.885
17.2080 13.912
17.2231 14.813
17.2383 16.227
17.2535 17.562
17.2687 18.143
17.2838 18.266
17.2990 17.791
17.3142 16.926
17.3294 16.053
17.3445 15.935
17.3597 16.058
17.3749 15.777
17.3901 15.195
17.4052 14.329
17.4204 13.464
17.4356 12.426
17.4508 11.810
17.4659 11.682
17.4811 11.528
17.4963 11.692
17.5115 11.592
17.5266 11.264
17.5418 11.240
17.5570 11.390
17.5722 11.621
17.5873 11.791
17.6025 11.805
17.6177 11.518
17.6329 11.220
17.6480 11.046
17.6632 11.212
17.6784 11.108
17.6936 11.101
17.7087 11.067
17.7239 10.719
17.7391 10.746
17.7543 10.662
17.7694 10.620
17.7846 10.797
17.7998 10.681
17.8150 10.654
17.8301 10.600
17.8453 10.523
17.8605 10.866
17.8757 10.945
17.8908 10.885
17.9060 10.996
17.9212 11.091
17.9364 10.882
17.9515 10.677
17.9667 10.399
17.9819 10.375
17.9971 10.515
18.0122 10.411
18.0274 10.238
18.0426 10.154
18.0578 10.108
18.0729 10.192
18.0881 10.318
18.1033 10.139
18.1185 10.104
18.1336 9.958
18.1488 9.968
18.1640 10.039
18.1792 9.815
18.1943 9.809
18.2095 9.897
18.2247 9.864
18.2399 9.831
18.2550 9.706
18.2702 9.579
18.2854 9.661
18.3006 9.685
18.3157 9.790
18.3309 9.822
18.3461 9.883
18.3613 9.881
18.3764 9.602
18.3916 9.733
18.4068 9.769
18.4220 9.530
18.4371 9.590
18.4523 9.872
18.4675 9.847
18.4827 9.811
18.4978 9.746
18.5130 9.613
18.5282 9.740
18.5434 9.850
18.5585 9.968
18.5737 9.811
18.5889 9.700
18.6041 9.666
18.6192 9.665
18.6344 9.506
18.6496 9.712
18.6648 9.808
18.6799 9.776
18.6951 9.892
18.7103 9.730
18.7255 9.662
18.7406 9.649
18.7558 9.676
18.7710 9.607
18.7862 9.413
18.8013 9.446
18.8165 9.455
18.8317 9.693
18.8469 9.900
18.8620 9.788
18.8772 9.921
18.8924 9.965
18.9076 9.846
18.9227 9.845
18.9379 10.044
18.9531 9.932
18.9683 9.827
18.9834 9.725
18.9986 9.875
19.0138 10.155
19.0290 10.123
19.0441 10.141
19.0593 10.155
19.0745 10.337
19.0897 10.412
19.1048 10.379
19.1200 10.381
19.1352 10.485
19.1504 10.534
19.1655 10.673
19.1807 10.641
19.1959 10.649
19.2111 10.539
19.2262 10.482
19.2414 10.597
19.2566 10.828
19.2718 11.041
19.2869 10.925
19.3021 10.928
19.3173 10.868
19.3325 11.050
19.3476 10.947
19.3628 10.943
19.3780 11.090
19.3932 11.156
19.4083 11.380
19.4235 11.324
19.4387 11.162
19.4539 11.262
19.4690 11.410
19.4842 11.532
19.4994 11.536
19.5146 11.439
19.5297 11.365
19.5449 11.298
19.5601 11.444
19.5753 11.661
19.5904 11.789
19.6056 11.891
19.6208 11.686
19.6360 11.390
19.6511 11.403
19.6663 11.552
19.6815 11.729
19.6967 11.574
19.7118 11.376
19.7270 11.656
19.7422 11.780
19.7574 11.789
19.7725 11.707
19.7877 11.744
19.8029 11.863
19.8180 11.860
19.8332 11.881
19.8484 11.973
19.8636 12.183
19.8787 12.509
19.8939 13.040
19.9091 13.308
19.9243 13.302
19.9394 13.506
19.9546 14.008
19.9698 14.503
19.9850 14.491
20.0001 14.386
20.0153 14.122
20.0305 13.759
20.0457 13.674
20.0608 13.473
20.0760 13.329
20.0912 13.597
20.1064 13.635
20.1215 13.464
20.1367 13.115
20.1519 13.120
20.1671 13.111
20.1822 13.136
20.1974 13.096
20.2126 12.889
20.2278 12.799
20.2429 12.709
20.2581 12.450
20.2733 12.232
20.2885 11.798
20.3036 11.902
20.3188 12.080
20.3340 11.881
20.3492 12.164
20.3643 11.725
20.3795 11.488
20.3947 11.158
20.4099 11.274
20.4250 11.394
20.4402 11.177
20.4554 11.149
20.4706 10.931
20.4857 10.922
20.5009 10.837
20.5161 10.765
20.5313 10.923
20.5464 10.898
20.5616 10.576
20.5768 10.624
20.5920 10.713
20.6071 10.932
20.6223 10.941
20.6375 10.880
20.6527 10.962
20.6678 10.603
20.6830 10.572
20.6982 10.621
20.7134 10.658
20.7285 10.686
20.7437 10.961
20.7589 10.698
20.7741 10.735
20.7892 10.780
20.8044 10.598
20.8196 10.353
20.8348 10.430
20.8499 10.403
20.8651 10.517
20.8803 10.235
20.8955 10.275
20.9106 10.347
20.9258 10.456
20.9410 10.357
20.9562 10.326
20.9713 10.030
20.9865 10.194
21.0017 10.248
21.0169 9.837
21.0320 9.773
21.0472 9.941
21.0624 10.050
21.0776 9.777
21.0927 9.941
21.1079 9.658
21.1231 9.563
21.1383 9.912
21.1534 9.760
21.1686 9.606
21.1838 9.743
21.1990 9.683
21.2141 9.753
21.2293 9.691
21.2445 9.860
21.2597 9.919
21.2748 10.091
21.2900 9.437
21.3052 9.951
21.3204 9.594
21.3355 9.704
21.3507 9.421
21.3659 9.520
21.3811 9.643
21.3962 9.748
21.4114 9.560
21.4266 9.842
21.4418 9.537
21.4569 9.398
21.4721 9.476
21.4873 9.293
21.5025 9.615
21.5176 9.171
21.5328 9.429
21.5480 9.460
21.5632 9.375
21.5783 8.970
21.5935 9.137
21.6087 9.009
21.6239 8.987
21.6390 9.046
21.6542 9.294
21.6694 9.327
21.6846 9.175
21.6997 9.079
21.7149 8.999
21.7301 9.138
21.7453 9.181
21.7604 9.253
21.7756 9.063
21.7908 9.124
21.8060 9.090
21.8211 8.940
21.8363 8.983
21.8515 8.791
21.8667 8.846
21.8818 9.006
21.8970 9.020
21.9122 9.061
21.9274 9.092
21.9425 9.053
21.9577 8.951
21.9729 8.765
21.9881 8.615
22.0032 8.886
22.0184 8.939
22.0336 9.074
22.0488 9.211
22.0639 8.930
22.0791 8.874
22.0943 8.847
22.1095 8.755
22.1246 8.685
22.1398 8.723
22.1550 9.020
22.1702 8.861
22.1853 8.829
22.2005 8.855
22.2157 8.735
22.2309 8.666
22.2460 8.499
22.2612 8.557
22.2764 8.665
22.2916 8.699
22.3067 8.596
22.3219 8.614
22.3371 8.611
22.3523 8.673
22.3674 8.557
22.3826 8.414
22.3978 8.540
22.4130 8.262
22.4281 8.489
22.4433 8.326
22.4585 8.631
22.4737 8.422
22.4888 8.523
22.5040 8.099
22.5192 8.502
22.5344 8.429
22.5495 8.355
22.5647 8.575
22.5799 8.260
22.5951 8.146
22.6102 8.569
22.6254 8.454
22.6406 8.563
22.6558 8.736
22.6709 8.331
22.6861 8.575
22.7013 8.395
22.7165 8.034
22.7316 6.592
