'Id: "" Comment: "" Operator: "Lab Manager" Anode: "Mo" Scantype: "Still (Eiger2R_500K (1D mode))" TimePerStep: "300" X: "11.8" Y: "9.4" Z: "11.284" 
7.2532 19.098
7.2684 18.568
7.2836 18.763
7.2987 18.779
7.3139 18.970
7.3291 18.985
7.3443 19.370
7.3594 19.034
7.3746 19.084
7.3898 18.925
7.4050 19.261
7.4201 19.706
7.4353 19.327
7.4505 19.570
7.4657 19.580
7.4808 19.948
7.4960 19.934
7.5112 19.992
7.5264 19.595
7.5415 19.851
7.5567 19.473
7.5719 19.582
7.5871 19.871
7.6022 20.113
7.6174 20.174
7.6326 19.872
7.6478 19.984
7.6629 20.202
7.6781 20.080
7.6933 19.856
7.7085 20.018
7.7236 20.281
7.7388 20.583
7.7540 20.481
7.7692 20.299
7.7843 20.245
7.7995 20.496
7.8147 20.726
7.8299 20.583
7.8450 20.383
7.8602 20.465
7.8754 20.917
7.8905 20.788
7.9057 20.738
7.9209 21.072
7.9361 21.203
7.9512 20.848
7.9664 20.885
7.9816 21.240
7.9968 21.177
8.0119 21.016
8.0271 21.045
8.0423 21.515
8.0575 21.446
8.0726 21.205
8.0878 21.396
8.1030 21.316
8.1182 21.327
8.1333 21.841
8.1485 21.582
8.1637 21.795
8.1789 22.101
8.1940 21.524
8.2092 21.644
8.2244 21.762
8.2396 21.370
8.2547 21.391
8.2699 21.817
8.2851 21.767
8.3003 21.620
8.3154 21.853
8.3306 21.935
8.3458 22.017
8.3610 22.139
8.3761 21.724
8.3913 21.919
8.4065 22.404
8.4217 21.834
8.4368 21.663
8.4520 22.521
8.4672 22.116
8.4824 22.060
8.4975 22.313
8.5127 21.897
8.5279 22.268
8.5431 21.763
8.5582 22.372
8.5734 22.056
8.5886 22.237
8.6038 22.426
8.6189 21.824
8.6341 21.983
8.6493 22.361
8.6645 22.081
8.6796 22.808
8.6948 21.943
8.7100 22.144
8.7252 22.492
8.7403 22.565
8.7555 22.296
8.7707 22.874
8.7859 22.807
8.8010 23.054
8.8162 22.308
8.8314 22.592
8.8466 23.032
8.8617 22.823
8.8769 22.617
8.8921 22.456
8.9073 22.479
8.9224 22.770
8.9376 22.943
8.9528 22.960
8.9680 23.075
8.9831 22.726
8.9983 22.710
9.0135 23.189
9.0287 22.920
9.0438 22.773
9.0590 22.857
9.0742 23.018
9.0894 22.886
9.1045 23.205
9.1197 22.740
9.1349 22.765
9.1501 23.177
9.1652 23.417
9.1804 23.372
9.1956 22.985
9.2108 23.060
9.2259 22.717
9.2411 22.559
9.2563 22.892
9.2715 22.775
9.2866 23.110
9.3018 23.148
9.3170 22.852
9.3322 22.939
9.3473 23.223
9.3625 23.091
9.3777 23.010
9.3929 23.022
9.4080 23.171
9.4232 23.208
9.4384 23.239
9.4536 23.076
9.4687 23.252
9.4839 23.213
9.4991 23.149
9.5143 23.356
9.5294 23.597
9.5446 23.441
9.5598 23.312
9.5750 23.306
9.5901 23.339
9.6053 23.512
9.6205 23.418
9.6357 23.517
9.6508 23.679
9.6660 23.654
9.6812 23.907
9.6964 23.798
9.7115 23.914
9.7267 24.176
9.7419 24.230
9.7571 24.231
9.7722 23.920
9.7874 23.642
9.8026 23.651
9.8178 23.365
9.8329 23.252
9.8481 23.286
9.8633 23.422
9.8785 23.161
9.8936 23.068
9.9088 23.888
9.9240 23.768
9.9392 23.660
9.9543 23.580
9.9695 23.587
9.9847 23.364
9.9999 23.252
10.0150 23.213
10.0302 23.161
10.0454 22.985
10.0606 22.823
10.0757 23.218
10.0909 23.413
10.1061 23.405
10.1213 23.222
10.1364 23.247
10.1516 23.374
10.1668 23.197
10.1820 23.242
10.1971 23.173
10.2123 23.291
10.2275 23.389
10.2427 23.255
10.2578 23.307
10.2730 23.318
10.2882 23.039
10.3034 23.180
10.3185 23.099
10.3337 22.947
10.3489 23.192
10.3641 23.332
10.3792 23.302
10.3944 23.248
10.4096 23.047
10.4248 23.034
10.4399 23.086
10.4551 23.174
10.4703 23.042
10.4855 22.842
10.5006 22.777
10.5158 22.754
10.5310 22.755
10.5462 22.372
10.5613 22.506
10.5765 22.844
10.5917 22.743
10.6069 22.811
10.6220 22.647
10.6372 22.572
10.6524 22.852
10.6676 22.449
10.6827 22.513
10.6979 22.830
10.7131 22.725
10.7283 22.437
10.7434 22.443
10.7586 22.611
10.7738 22.291
10.7890 22.116
10.8041 22.445
10.8193 22.176
10.8345 22.136
10.8497 22.237
10.8648 22.362
10.8800 22.034
10.8952 22.342
10.9104 22.557
10.9255 22.593
10.9407 21.984
10.9559 22.005
10.9711 21.852
10.9862 22.049
11.0014 22.235
11.0166 22.258
11.0318 22.526
11.0469 22.240
11.0621 21.869
11.0773 21.712
11.0925 21.390
11.1076 21.855
11.1228 22.097
11.1380 21.536
11.1532 21.958
11.1683 22.248
11.1835 21.874
11.1987 22.004
11.2139 21.869
11.2290 21.835
11.2442 22.084
11.2594 21.958
11.2746 21.776
11.2897 21.624
11.3049 21.649
11.3201 21.772
11.3353 21.793
11.3504 21.658
11.3656 21.694
11.3808 21.574
11.3960 21.311
11.4111 21.619
11.4263 21.883
11.4415 21.701
11.4567 21.403
11.4718 21.192
11.4870 20.829
11.5022 21.262
11.5174 21.229
11.5325 20.903
11.5477 21.025
11.5629 21.078
11.5781 20.784
11.5932 20.752
11.6084 20.961
11.6236 20.728
11.6388 21.307
11.6539 21.070
11.6691 20.806
11.6843 20.732
11.6995 20.468
11.7146 20.620
11.7298 20.181
11.7450 20.360
11.7602 20.423
11.7753 20.341
11.7905 20.196
11.8057 20.291
11.8209 19.870
11.8360 19.730
11.8512 20.072
11.8664 19.889
11.8816 19.763
11.8967 19.545
11.9119 19.814
11.9271 20.154
11.9423 20.086
11.9574 19.811
11.9726 19.450
11.9878 19.420
12.0030 19.437
12.0181 19.502
12.0333 19.406
12.0485 19.123
12.0637 19.053
12.0788 19.094
12.0940 18.969
12.1092 19.175
12.1244 18.820
12.1395 18.487
12.1547 18.704
12.1699 18.510
12.1851 18.342
12.2002 18.135
12.2154 18.033
12.2306 18.174
12.2458 18.277
12.2609 18.379
12.2761 17.842
12.2913 17.569
12.3065 18.042
12.3216 17.930
12.3368 17.759
12.3520 17.654
12.3672 17.573
12.3823 17.207
12.3975 17.100
12.4127 17.145
12.4279 17.140
12.4430 17.383
12.4582 17.451
12.4734 16.817
12.4886 16.535
12.5037 16.787
12.5189 16.690
12.5341 16.857
12.5493 16.822
12.5644 16.576
12.5796 16.336
12.5948 16.215
12.6100 16.062
12.6251 15.923
12.6403 16.007
12.6555 16.072
12.6707 16.174
12.6858 15.879
12.7010 15.709
12.7162 15.892
12.7314 15.633
12.7465 15.549
12.7617 15.533
12.7769 15.365
12.7921 15.315
12.8072 15.350
12.8224 15.111
12.8376 15.236
12.8528 15.252
12.8679 14.830
12.8831 14.754
12.8983 14.931
12.9135 14.838
12.9286 14.808
12.9438 14.691
12.9590 14.473
12.9742 14.564
12.9893 14.721
13.0045 14.543
13.0197 14.391
13.0349 14.298
13.0500 14.104
13.0652 14.025
13.0804 13.964
13.0956 13.816
13.1107 14.044
13.1259 14.036
13.1411 13.860
13.1563 13.803
13.1714 13.481
13.1866 13.342
13.2018 13.544
13.2170 13.574
13.2321 13.646
13.2473 13.685
13.2625 13.311
13.2777 13.247
13.2928 13.477
13.3080 13.667
13.3232 13.378
13.3384 13.190
13.3535 13.195
13.3687 13.032
13.3839 13.038
13.3991 13.177
13.4142 13.113
13.4294 13.086
13.4446 13.200
13.4598 12.947
13.4749 12.761
13.4901 12.784
13.5053 12.914
13.5205 12.756
13.5356 12.446
13.5508 12.479
13.5660 12.474
13.5812 12.238
13.5963 12.411
13.6115 12.484
13.6267 12.376
13.6419 12.609
13.6570 12.607
13.6722 12.320
13.6874 12.112
13.7026 12.326
13.7177 12.211
13.7329 12.072
13.7481 12.132
13.7633 12.177
13.7784 12.170
13.7936 12.096
13.8088 12.338
13.8239 12.508
13.8391 12.508
13.8543 12.222
13.8695 12.465
13.8846 12.380
13.8998 12.367
13.9150 12.298
13.9302 12.181
13.9453 12.069
13.9605 11.886
13.9757 11.775
13.9909 11.913
14.0060 11.775
14.0212 11.671
14.0364 11.804
14.0516 11.478
14.0667 11.664
14.0819 11.450
14.0971 11.578
14.1123 11.536
14.1274 11.273
14.1426 11.116
14.1578 11.363
14.1730 11.568
14.1881 11.583
14.2033 11.453
14.2185 11.428
14.2337 11.342
14.2488 11.468
14.2640 11.609
14.2792 11.598
14.2944 11.439
14.3095 11.690
14.3247 11.918
14.3399 11.952
14.3551 11.964
14.3702 12.344
14.3854 12.555
14.4006 12.335
14.4158 12.491
14.4309 12.315
14.4461 12.281
14.4613 12.060
14.4765 11.935
14.4916 11.790
14.5068 11.797
14.5220 11.630
14.5372 11.551
14.5523 11.445
14.5675 11.260
14.5827 11.431
14.5979 11.210
14.6130 11.208
14.6282 11.147
14.6434 10.923
14.6586 10.988
14.6737 10.810
14.6889 11.296
14.7041 11.239
14.7193 11.030
14.7344 10.564
14.7496 10.962
14.7648 10.712
14.7800 11.016
14.7951 11.101
14.8103 10.923
14.8255 10.927
14.8407 11.239
14.8558 10.504
14.8710 10.574
14.8862 11.004
14.9014 10.752
14.9165 11.337
14.9317 11.072
14.9469 10.758
14.9621 10.447
14.9772 10.346
14.9924 10.673
15.0076 10.483
15.0228 10.441
15.0379 10.569
15.0531 10.758
15.0683 10.685
15.0835 10.643
15.0986 10.346
15.1138 10.461
15.1290 10.378
15.1442 10.445
15.1593 10.165
15.1745 10.302
15.1897 10.395
15.2049 10.516
15.2200 10.587
15.2352 10.688
15.2504 10.337
15.2656 10.018
15.2807 10.398
15.2959 10.242
15.3111 10.415
15.3263 10.227
15.3414 10.369
15.3566 10.167
15.3718 9.994
15.3870 10.190
15.4021 10.344
15.4173 10.462
15.4325 10.804
15.4477 10.915
15.4628 10.342
15.4780 10.430
15.4932 10.388
15.5084 10.262
15.5235 10.531
15.5387 10.564
15.5539 10.337
15.5691 10.253
15.5842 10.326
15.5994 10.457
15.6146 10.060
15.6298 9.988
15.6449 10.128
15.6601 10.322
15.6753 10.041
15.6905 10.047
15.7056 9.937
15.7208 10.070
15.7360 10.244
15.7512 9.968
15.7663 10.064
15.7815 9.919
15.7967 9.814
15.8119 9.799
15.8270 10.122
15.8422 10.050
15.8574 10.035
15.8726 10.014
15.8877 9.665
15.9029 9.608
15.9181 9.665
15.9333 9.827
15.9484 9.942
15.9636 9.739
15.9788 9.839
15.9940 9.816
16.0091 9.745
16.0243 9.680
16.0395 9.697
16.0547 9.857
16.0698 9.457
16.0850 9.593
16.1002 9.663
16.1154 9.957
16.1305 9.737
16.1457 9.709
16.1609 9.771
16.1761 9.838
16.1912 9.846
16.2064 9.694
16.2216 9.719
16.2368 9.605
16.2519 9.801
16.2671 10.085
16.2823 10.189
16.2975 10.246
16.3126 10.099
16.3278 9.915
16.3430 9.909
16.3582 10.044
16.3733 10.016
16.3885 9.973
16.4037 10.170
16.4189 9.934
16.4340 9.825
16.4492 9.727
16.4644 9.901
16.4796 10.062
16.4947 9.741
16.5099 9.576
16.5251 9.741
16.5403 9.966
16.5554 9.668
16.5706 9.715
16.5858 9.762
16.6010 9.783
16.6161 9.894
16.6313 10.015
16.6465 9.932
16.6617 9.888
16.6768 9.881
16.6920 9.874
16.7072 9.827
16.7224 9.980
16.7375 9.971
16.7527 9.962
16.7679 10.075
16.7831 10.217
16.7982 10.121
16.8134 9.859
16.8286 9.891
16.8438 9.862
16.8589 9.891
16.8741 10.172
16.8893 10.235
16.9045 10.005
16.9196 9.725
16.9348 9.886
16.9500 10.051
16.9652 9.911
16.9803 9.845
16.9955 9.938
17.0107 10.226
17.0259 10.304
17.0410 10.184
17.0562 10.017
17.0714 10.275
17.0866 10.640
17.1017 10.636
17.1169 10.740
17.1321 11.080
17.1473 11.529
17.1624 11.796
17.1776 12.707
17.1928 13.436
17.2080 14.201
17.2231 15.513
17.2383 16.552
17.2535 17.452
17.2687 18.330
17.2838 18.897
17.2990 18.130
17.3142 17.082
17.3294 16.531
17.3445 16.237
17.3597 16.219
17.3749 15.889
17.3901 15.189
17.4052 14.172
17.4204 13.360
17.4356 12.700
17.4508 11.950
17.4659 11.526
17.4811 11.201
17.4963 11.034
17.5115 11.155
17.5266 10.904
17.5418 10.643
17.5570 10.727
17.5722 10.808
17.5873 10.658
17.6025 10.337
17.6177 10.390
17.6329 10.657
17.6480 10.764
17.6632 10.459
17.6784 10.182
17.6936 10.307
17.7087 10.356
17.7239 10.402
17.7391 10.523
17.7543 10.646
17.7694 10.797
17.7846 10.627
17.7998 10.417
17.8150 10.350
17.8301 10.590
17.8453 10.518
17.8605 10.362
17.8757 10.527
17.8908 10.652
17.9060 10.665
17.9212 10.668
17.9364 10.502
17.9515 10.426
17.9667 10.446
17.9819 10.619
17.9971 10.506
18.0122 10.434
18.0274 10.601
18.0426 10.445
18.0578 10.480
18.0729 10.497
18.0881 10.194
18.1033 10.128
18.1185 10.108
18.1336 10.077
18.1488 10.253
18.1640 10.148
18.1792 10.020
18.1943 10.061
18.2095 10.140
18.2247 10.050
18.2399 10.009
18.2550 10.045
18.2702 9.919
18.2854 9.643
18.3006 9.694
18.3157 9.961
18.3309 10.142
18.3461 9.972
18.3613 9.992
18.3764 10.008
18.3916 9.948
18.4068 9.885
18.4220 9.821
18.4371 9.971
18.4523 9.885
18.4675 9.983
18.4827 9.683
18.4978 9.590
18.5130 9.691
18.5282 9.925
18.5434 9.846
18.5585 9.852
18.5737 10.122
18.5889 9.887
18.6041 9.709
18.6192 9.677
18.6344 9.721
18.6496 9.882
18.6648 9.972
18.6799 9.695
18.6951 9.759
18.7103 9.896
18.7255 9.912
18.7406 9.911
18.7558 9.632
18.7710 9.769
18.7862 9.873
18.8013 9.581
18.8165 9.596
18.8317 9.667
18.8469 10.042
18.8620 10.144
18.8772 10.014
18.8924 9.916
18.9076 9.934
18.9227 9.857
18.9379 9.788
18.9531 9.870
18.9683 10.035
18.9834 10.344
18.9986 10.310
19.0138 9.993
19.0290 9.965
19.0441 10.166
19.0593 10.299
19.0745 10.393
19.0897 10.622
19.1048 10.638
19.1200 10.459
19.1352 10.343
19.1504 10.411
19.1655 10.683
19.1807 10.715
19.1959 10.681
19.2111 10.821
19.2262 10.816
19.2414 10.773
19.2566 10.814
19.2718 10.853
19.2869 10.883
19.3021 11.037
19.3173 11.135
19.3325 11.142
19.3476 11.029
19.3628 10.926
19.3780 11.043
19.3932 11.071
19.4083 11.090
19.4235 11.258
19.4387 11.231
19.4539 11.239
19.4690 11.431
19.4842 11.300
19.4994 11.329
19.5146 11.379
19.5297 11.624
19.5449 11.552
19.5601 11.211
19.5753 11.405
19.5904 11.539
19.6056 11.465
19.6208 11.628
19.6360 11.700
19.6511 11.565
19.6663 11.507
19.6815 11.604
19.6967 11.550
19.7118 11.542
19.7270 11.885
19.7422 11.927
19.7574 11.714
19.7725 11.697
19.7877 11.890
19.8029 12.244
19.8180 12.255
19.8332 12.248
19.8484 12.351
19.8636 12.296
19.8787 12.491
19.8939 12.789
19.9091 13.107
19.9243 13.452
19.9394 13.940
19.9546 14.288
19.9698 14.364
19.9850 14.530
20.0001 14.472
20.0153 14.150
20.0305 13.957
20.0457 14.046
20.0608 14.004
20.0760 13.836
20.0912 13.827
20.1064 13.966
20.1215 13.514
20.1367 13.016
20.1519 13.071
20.1671 12.948
20.1822 12.801
20.1974 12.938
20.2126 12.853
20.2278 12.866
20.2429 12.666
20.2581 12.346
20.2733 12.194
20.2885 11.940
20.3036 11.897
20.3188 11.734
20.3340 11.553
20.3492 11.694
20.3643 11.313
20.3795 11.102
20.3947 11.133
20.4099 10.724
20.4250 11.055
20.4402 11.283
20.4554 11.173
20.4706 10.756
20.4857 10.463
20.5009 10.557
20.5161 10.397
20.5313 10.644
20.5464 10.574
20.5616 10.638
20.5768 10.376
20.5920 10.717
20.6071 10.579
20.6223 10.475
20.6375 10.682
20.6527 10.480
20.6678 10.680
20.6830 10.680
20.6982 10.669
20.7134 10.645
20.7285 10.510
20.7437 10.342
20.7589 10.176
20.7741 10.214
20.7892 10.291
20.8044 10.250
20.8196 10.453
20.8348 10.429
20.8499 10.140
20.8651 10.520
20.8803 10.388
20.8955 10.291
20.9106 10.181
20.9258 10.317
20.9410 10.016
20.9562 10.031
20.9713 10.207
20.9865 10.233
21.0017 10.120
21.0169 10.213
21.0320 10.554
21.0472 10.236
21.0624 10.304
21.0776 9.943
21.0927 10.005
21.1079 9.982
21.1231 10.158
21.1383 9.943
21.1534 9.888
21.1686 9.786
21.1838 9.830
21.1990 9.986
21.2141 9.922
21.2293 9.903
21.2445 9.806
21.2597 9.785
21.2748 9.573
21.2900 9.618
21.3052 9.430
21.3204 9.347
21.3355 9.610
21.3507 9.252
21.3659 9.470
21.3811 9.565
21.3962 9.741
21.4114 9.415
21.4266 9.431
21.4418 9.258
21.4569 9.364
21.4721 9.463
21.4873 9.510
21.5025 9.577
21.5176 9.307
21.5328 9.540
21.5480 9.410
21.5632 9.500
21.5783 9.365
21.5935 9.420
21.6087 9.152
21.6239 9.182
21.6390 9.292
21.6542 9.252
21.6694 9.086
21.6846 8.998
21.6997 9.220
21.7149 9.288
21.7301 9.102
21.7453 9.247
21.7604 9.063
21.7756 8.988
21.7908 8.872
21.8060 8.927
21.8211 9.091
21.8363 9.196
21.8515 9.454
21.8667 9.314
21.8818 9.183
21.8970 9.191
21.9122 8.979
21.9274 8.891
21.9425 8.972
21.9577 8.966
21.9729 8.992
21.9881 8.935
22.0032 8.863
22.0184 8.961
22.0336 9.050
22.0488 8.868
22.0639 8.707
22.0791 8.665
22.0943 8.696
22.1095 8.764
22.1246 8.588
22.1398 8.914
22.1550 8.886
22.1702 8.645
22.1853 8.687
22.2005 8.642
22.2157 8.676
22.2309 8.562
22.2460 8.705
22.2612 8.638
22.2764 8.386
22.2916 8.763
22.3067 8.459
22.3219 8.660
22.3371 8.625
22.3523 8.646
22.3674 8.569
22.3826 8.641
22.3978 8.571
22.4130 8.413
22.4281 8.330
22.4433 8.559
22.4585 8.395
22.4737 8.680
22.4888 8.514
22.5040 8.247
22.5192 8.463
22.5344 8.314
22.5495 8.429
22.5647 8.571
22.5799 8.564
22.5951 8.606
22.6102 8.136
22.6254 8.414
22.6406 8.601
22.6558 8.504
22.6709 8.254
22.6861 8.280
22.7013 8.091
22.7165 8.061
22.7316 6.513
