'Id: "" Comment: "" Operator: "Lab Manager" Anode: "Mo" Scantype: "Still (Eiger2R_500K (1D mode))" TimePerStep: "300" X: "11.8" Y: "9.4" Z: "11.284" 
7.2532 18.966
7.2684 19.007
7.2836 18.976
7.2987 18.777
7.3139 19.015
7.3291 19.638
7.3443 19.028
7.3594 19.385
7.3746 19.674
7.3898 19.657
7.4050 19.406
7.4201 19.324
7.4353 19.473
7.4505 19.746
7.4657 19.499
7.4808 19.494
7.4960 19.834
7.5112 20.129
7.5264 19.707
7.5415 19.643
7.5567 20.111
7.5719 19.856
7.5871 19.906
7.6022 20.060
7.6174 20.201
7.6326 20.270
7.6478 20.246
7.6629 20.520
7.6781 20.278
7.6933 20.111
7.7085 20.227
7.7236 20.355
7.7388 20.642
7.7540 20.672
7.7692 20.394
7.7843 20.513
7.7995 20.444
7.8147 20.832
7.8299 21.055
7.8450 21.001
7.8602 21.242
7.8754 21.290
7.8905 21.284
7.9057 21.117
7.9209 21.139
7.9361 21.306
7.9512 21.337
7.9664 21.640
7.9816 21.434
7.9968 21.089
8.0119 21.200
8.0271 21.195
8.0423 21.140
8.0575 21.260
8.0726 21.221
8.0878 21.429
8.1030 21.255
8.1182 20.980
8.1333 21.603
8.1485 21.442
8.1637 21.539
8.1789 21.576
8.1940 21.593
8.2092 21.672
8.2244 21.683
8.2396 21.787
8.2547 21.640
8.2699 21.385
8.2851 21.828
8.3003 21.990
8.3154 21.644
8.3306 21.899
8.3458 22.396
8.3610 21.882
8.3761 22.013
8.3913 21.821
8.4065 22.578
8.4217 22.407
8.4368 21.809
8.4520 21.886
8.4672 22.178
8.4824 21.964
8.4975 22.116
8.5127 22.633
8.5279 22.574
8.5431 22.453
8.5582 22.002
8.5734 22.520
8.5886 22.163
8.6038 21.937
8.6189 22.514
8.6341 22.302
8.6493 22.415
8.6645 22.728
8.6796 22.429
8.6948 22.858
8.7100 23.054
8.7252 22.739
8.7403 23.120
8.7555 23.122
8.7707 22.710
8.7859 22.588
8.8010 22.528
8.8162 22.430
8.8314 22.693
8.8466 22.735
8.8617 22.803
8.8769 22.796
8.8921 22.670
8.9073 22.533
8.9224 22.564
8.9376 22.541
8.9528 22.762
8.9680 22.688
8.9831 22.835
8.9983 22.493
9.0135 22.939
9.0287 22.620
9.0438 22.820
9.0590 22.975
9.0742 22.720
9.0894 23.030
9.1045 22.669
9.1197 22.700
9.1349 22.977
9.1501 23.339
9.1652 22.943
9.1804 22.669
9.1956 23.106
9.2108 22.911
9.2259 22.826
9.2411 23.317
9.2563 23.141
9.2715 23.066
9.2866 23.251
9.3018 23.410
9.3170 23.394
9.3322 23.205
9.3473 22.957
9.3625 23.255
9.3777 23.308
9.3929 23.229
9.4080 23.228
9.4232 22.910
9.4384 23.073
9.4536 23.173
9.4687 23.246
9.4839 23.318
9.4991 23.508
9.5143 23.298
9.5294 23.222
9.5446 23.088
9.5598 23.174
9.5750 23.374
9.5901 23.438
9.6053 23.350
9.6205 23.323
9.6357 23.392
9.6508 23.792
9.6660 24.001
9.6812 23.699
9.6964 23.875
9.7115 24.109
9.7267 24.166
9.7419 24.173
9.7571 24.310
9.7722 24.224
9.7874 23.859
9.8026 23.866
9.8178 23.499
9.8329 23.241
9.8481 23.581
9.8633 23.529
9.8785 23.293
9.8936 23.496
9.9088 23.291
9.9240 23.421
9.9392 23.667
9.9543 23.853
9.9695 23.545
9.9847 23.413
9.9999 24.054
10.0150 24.170
10.0302 24.221
10.0454 24.112
10.0606 23.505
10.0757 23.652
10.0909 24.005
10.1061 23.995
10.1213 24.200
10.1364 24.471
10.1516 24.019
10.1668 23.926
10.1820 24.113
10.1971 24.394
10.2123 24.321
10.2275 24.143
10.2427 24.340
10.2578 24.334
10.2730 23.840
10.2882 23.511
10.3034 23.739
10.3185 23.603
10.3337 23.231
10.3489 23.249
10.3641 23.036
10.3792 23.115
10.3944 23.045
10.4096 22.788
10.4248 22.870
10.4399 22.928
10.4551 22.920
10.4703 22.800
10.4855 22.705
10.5006 23.069
10.5158 22.998
10.5310 22.423
10.5462 22.695
10.5613 22.771
10.5765 22.499
10.5917 22.780
10.6069 22.814
10.6220 22.937
10.6372 22.813
10.6524 22.622
10.6676 22.574
10.6827 22.635
10.6979 22.231
10.7131 22.398
10.7283 22.571
10.7434 22.751
10.7586 22.562
10.7738 22.571
10.7890 22.385
10.8041 22.340
10.8193 22.617
10.8345 22.535
10.8497 22.305
10.8648 21.772
10.8800 21.933
10.8952 22.323
10.9104 22.410
10.9255 22.661
10.9407 22.224
10.9559 22.173
10.9711 22.204
10.9862 22.479
11.0014 22.439
11.0166 22.210
11.0318 22.517
11.0469 22.194
11.0621 21.878
11.0773 21.939
11.0925 21.980
11.1076 22.141
11.1228 21.999
11.1380 21.668
11.1532 21.648
11.1683 21.927
11.1835 21.800
11.1987 21.567
11.2139 21.732
11.2290 21.945
11.2442 21.808
11.2594 21.955
11.2746 21.736
11.2897 21.741
11.3049 21.930
11.3201 21.839
11.3353 22.200
11.3504 21.978
11.3656 21.704
11.3808 21.250
11.3960 21.493
11.4111 21.587
11.4263 21.304
11.4415 21.439
11.4567 21.448
11.4718 21.391
11.4870 21.086
11.5022 20.852
11.5174 21.083
11.5325 21.905
11.5477 21.913
11.5629 21.148
11.5781 21.070
11.5932 20.690
11.6084 20.588
11.6236 21.090
11.6388 21.257
11.6539 20.974
11.6691 20.589
11.6843 20.892
11.6995 20.815
11.7146 20.431
11.7298 20.496
11.7450 21.054
11.7602 20.630
11.7753 20.276
11.7905 20.172
11.8057 20.061
11.8209 19.987
11.8360 20.120
11.8512 19.966
11.8664 19.917
11.8816 19.754
11.8967 19.538
11.9119 19.628
11.9271 19.640
11.9423 19.289
11.9574 19.404
11.9726 19.446
11.9878 19.344
12.0030 19.236
12.0181 19.029
12.0333 18.796
12.0485 18.663
12.0637 18.918
12.0788 18.831
12.0940 18.826
12.1092 18.661
12.1244 18.515
12.1395 18.853
12.1547 18.383
12.1699 18.354
12.1851 18.681
12.2002 18.813
12.2154 18.501
12.2306 18.116
12.2458 18.122
12.2609 18.146
12.2761 17.831
12.2913 17.712
12.3065 17.617
12.3216 17.524
12.3368 17.415
12.3520 17.439
12.3672 17.495
12.3823 17.343
12.3975 17.324
12.4127 17.330
12.4279 17.289
12.4430 17.102
12.4582 16.798
12.4734 16.987
12.4886 17.083
12.5037 16.956
12.5189 17.033
12.5341 16.858
12.5493 16.722
12.5644 16.559
12.5796 16.289
12.5948 16.104
12.6100 15.875
12.6251 15.992
12.6403 16.062
12.6555 15.808
12.6707 15.717
12.6858 15.600
12.7010 15.576
12.7162 15.842
12.7314 15.578
12.7465 15.513
12.7617 15.386
12.7769 15.221
12.7921 15.066
12.8072 15.163
12.8224 15.151
12.8376 15.128
12.8528 15.247
12.8679 15.070
12.8831 14.678
12.8983 14.419
12.9135 14.328
12.9286 14.643
12.9438 14.733
12.9590 14.480
12.9742 14.504
12.9893 14.507
13.0045 14.304
13.0197 14.413
13.0349 14.507
13.0500 13.988
13.0652 13.963
13.0804 14.035
13.0956 13.937
13.1107 13.967
13.1259 13.875
13.1411 13.653
13.1563 13.609
13.1714 13.736
13.1866 13.655
13.2018 13.538
13.2170 13.491
13.2321 13.438
13.2473 13.243
13.2625 13.285
13.2777 13.383
13.2928 13.363
13.3080 13.254
13.3232 13.236
13.3384 13.264
13.3535 13.184
13.3687 13.208
13.3839 13.154
13.3991 13.028
13.4142 12.905
13.4294 12.791
13.4446 12.591
13.4598 12.479
13.4749 12.514
13.4901 12.570
13.5053 12.546
13.5205 12.429
13.5356 12.380
13.5508 12.404
13.5660 12.269
13.5812 12.258
13.5963 12.114
13.6115 12.075
13.6267 11.974
13.6419 11.938
13.6570 11.894
13.6722 11.808
13.6874 12.111
13.7026 12.031
13.7177 12.033
13.7329 11.912
13.7481 11.896
13.7633 12.128
13.7784 11.945
13.7936 11.930
13.8088 11.984
13.8239 12.367
13.8391 12.241
13.8543 11.998
13.8695 11.949
13.8846 12.006
13.8998 11.892
13.9150 11.972
13.9302 11.851
13.9453 11.704
13.9605 11.785
13.9757 11.648
13.9909 11.501
14.0060 11.675
14.0212 11.594
14.0364 11.540
14.0516 11.271
14.0667 11.276
14.0819 11.393
14.0971 11.561
14.1123 11.644
14.1274 11.596
14.1426 11.932
14.1578 11.602
14.1730 11.548
14.1881 11.568
14.2033 11.271
14.2185 11.612
14.2337 12.170
14.2488 12.093
14.2640 12.111
14.2792 12.185
14.2944 12.232
14.3095 12.127
14.3247 12.390
14.3399 12.669
14.3551 12.983
14.3702 13.147
14.3854 12.997
14.4006 13.328
14.4158 13.100
14.4309 12.876
14.4461 12.814
14.4613 13.158
14.4765 13.238
14.4916 13.006
14.5068 12.954
14.5220 12.888
14.5372 12.599
14.5523 12.245
14.5675 12.241
14.5827 11.717
14.5979 11.616
14.6130 11.380
14.6282 11.475
14.6434 11.427
14.6586 11.142
14.6737 11.401
14.6889 10.895
14.7041 11.261
14.7193 11.129
14.7344 10.896
14.7496 10.869
14.7648 10.878
14.7800 10.820
14.7951 10.773
14.8103 10.749
14.8255 10.633
14.8407 10.459
14.8558 10.850
14.8710 10.610
14.8862 10.744
14.9014 10.706
14.9165 10.964
14.9317 11.094
14.9469 10.727
14.9621 10.592
14.9772 10.443
14.9924 10.474
15.0076 10.455
15.0228 10.536
15.0379 10.406
15.0531 10.715
15.0683 10.553
15.0835 10.352
15.0986 10.132
15.1138 10.539
15.1290 10.729
15.1442 10.627
15.1593 10.384
15.1745 10.429
15.1897 10.545
15.2049 10.346
15.2200 10.108
15.2352 10.404
15.2504 10.641
15.2656 10.285
15.2807 10.539
15.2959 10.277
15.3111 10.427
15.3263 10.668
15.3414 10.359
15.3566 10.550
15.3718 10.463
15.3870 10.592
15.4021 10.418
15.4173 10.425
15.4325 10.367
15.4477 10.377
15.4628 10.216
15.4780 10.988
15.4932 10.344
15.5084 10.361
15.5235 10.284
15.5387 10.674
15.5539 10.695
15.5691 10.447
15.5842 10.487
15.5994 10.116
15.6146 10.152
15.6298 9.809
15.6449 10.120
15.6601 10.348
15.6753 9.943
15.6905 9.994
15.7056 10.044
15.7208 9.812
15.7360 9.851
15.7512 9.792
15.7663 9.673
15.7815 9.873
15.7967 9.922
15.8119 10.079
15.8270 10.043
15.8422 9.746
15.8574 9.737
15.8726 9.729
15.8877 9.477
15.9029 9.803
15.9181 9.853
15.9333 9.989
15.9484 9.937
15.9636 10.034
15.9788 9.886
15.9940 10.094
16.0091 9.858
16.0243 9.733
16.0395 9.619
16.0547 9.961
16.0698 9.764
16.0850 9.599
16.1002 9.614
16.1154 9.426
16.1305 9.423
16.1457 9.596
16.1609 9.601
16.1761 9.887
16.1912 9.730
16.2064 9.725
16.2216 9.975
16.2368 9.747
16.2519 9.818
16.2671 9.906
16.2823 9.888
16.2975 10.148
16.3126 10.282
16.3278 10.267
16.3430 10.005
16.3582 10.137
16.3733 10.029
16.3885 10.328
16.4037 10.123
16.4189 9.810
16.4340 9.889
16.4492 9.936
16.4644 9.836
16.4796 9.746
16.4947 9.900
16.5099 9.994
16.5251 10.042
16.5403 9.901
16.5554 9.868
16.5706 9.479
16.5858 9.328
16.6010 9.638
16.6161 9.664
16.6313 9.804
16.6465 9.852
16.6617 9.820
16.6768 9.821
16.6920 10.089
16.7072 9.983
16.7224 10.048
16.7375 10.020
16.7527 10.134
16.7679 10.051
16.7831 9.746
16.7982 9.822
16.8134 10.160
16.8286 10.046
16.8438 9.996
16.8589 10.118
16.8741 9.905
16.8893 9.905
16.9045 9.915
16.9196 9.843
16.9348 9.879
16.9500 9.867
16.9652 9.897
16.9803 9.883
16.9955 9.864
17.0107 9.908
17.0259 9.945
17.0410 9.979
17.0562 10.034
17.0714 10.073
17.0866 10.203
17.1017 10.534
17.1169 10.792
17.1321 10.941
17.1473 11.425
17.1624 11.806
17.1776 12.366
17.1928 13.092
17.2080 13.891
17.2231 15.034
17.2383 16.281
17.2535 17.581
17.2687 18.536
17.2838 18.728
17.2990 18.158
17.3142 17.110
17.3294 16.123
17.3445 15.985
17.3597 16.147
17.3749 15.724
17.3901 15.202
17.4052 14.374
17.4204 13.446
17.4356 12.705
17.4508 12.096
17.4659 11.829
17.4811 11.833
17.4963 11.663
17.5115 11.314
17.5266 11.348
17.5418 11.323
17.5570 11.252
17.5722 11.491
17.5873 11.653
17.6025 11.665
17.6177 11.447
17.6329 11.129
17.6480 11.118
17.6632 10.966
17.6784 11.054
17.6936 11.110
17.7087 11.008
17.7239 11.047
17.7391 10.843
17.7543 10.705
17.7694 10.733
17.7846 10.808
17.7998 11.035
17.8150 11.230
17.8301 11.307
17.8453 11.408
17.8605 11.449
17.8757 11.174
17.8908 11.061
17.9060 11.066
17.9212 11.034
17.9364 10.908
17.9515 10.855
17.9667 10.808
17.9819 10.884
17.9971 10.712
18.0122 10.661
18.0274 10.575
18.0426 10.463
18.0578 10.240
18.0729 9.913
18.0881 9.967
18.1033 10.028
18.1185 9.856
18.1336 10.000
18.1488 10.075
18.1640 9.876
18.1792 9.957
18.1943 9.900
18.2095 9.740
18.2247 9.791
18.2399 9.843
18.2550 10.072
18.2702 10.207
18.2854 9.829
18.3006 9.803
18.3157 9.728
18.3309 9.566
18.3461 9.856
18.3613 9.789
18.3764 9.997
18.3916 10.067
18.4068 9.750
18.4220 9.709
18.4371 9.937
18.4523 9.913
18.4675 9.777
18.4827 9.829
18.4978 9.797
18.5130 9.785
18.5282 9.873
18.5434 9.637
18.5585 9.625
18.5737 9.835
18.5889 9.983
18.6041 9.594
18.6192 9.428
18.6344 9.695
18.6496 9.532
18.6648 9.640
18.6799 9.601
18.6951 9.686
18.7103 9.897
18.7255 9.678
18.7406 9.826
18.7558 10.020
18.7710 10.019
18.7862 9.912
18.8013 9.699
18.8165 9.682
18.8317 9.896
18.8469 9.898
18.8620 9.916
18.8772 9.886
18.8924 9.891
18.9076 9.994
18.9227 10.253
18.9379 10.173
18.9531 9.944
18.9683 9.910
18.9834 10.000
18.9986 10.100
19.0138 10.359
19.0290 10.239
19.0441 10.193
19.0593 10.134
19.0745 10.271
19.0897 10.364
19.1048 10.316
19.1200 10.360
19.1352 10.337
19.1504 10.414
19.1655 10.707
19.1807 10.728
19.1959 10.505
19.2111 10.572
19.2262 10.815
19.2414 10.791
19.2566 10.792
19.2718 10.693
19.2869 10.654
19.3021 10.641
19.3173 10.573
19.3325 10.727
19.3476 10.658
19.3628 10.947
19.3780 11.046
19.3932 11.065
19.4083 11.200
19.4235 11.193
19.4387 11.405
19.4539 11.201
19.4690 11.168
19.4842 11.418
19.4994 11.492
19.5146 11.612
19.5297 11.715
19.5449 11.577
19.5601 11.344
19.5753 11.427
19.5904 11.652
19.6056 11.616
19.6208 11.479
19.6360 11.537
19.6511 11.802
19.6663 11.792
19.6815 11.565
19.6967 11.645
19.7118 11.714
19.7270 11.617
19.7422 11.523
19.7574 11.853
19.7725 11.911
19.7877 11.695
19.8029 11.741
19.8180 11.826
19.8332 12.003
19.8484 12.106
19.8636 12.408
19.8787 12.503
19.8939 12.762
19.9091 12.953
19.9243 13.174
19.9394 13.662
19.9546 13.920
19.9698 14.008
19.9850 14.299
20.0001 14.532
20.0153 14.155
20.0305 13.906
20.0457 13.639
20.0608 13.671
20.0760 13.833
20.0912 13.684
20.1064 13.433
20.1215 13.409
20.1367 13.366
20.1519 13.081
20.1671 12.776
20.1822 12.829
20.1974 12.920
20.2126 12.912
20.2278 13.002
20.2429 12.957
20.2581 12.516
20.2733 12.130
20.2885 12.024
20.3036 11.892
20.3188 11.889
20.3340 11.765
20.3492 11.732
20.3643 11.603
20.3795 11.295
20.3947 11.300
20.4099 11.090
20.4250 10.967
20.4402 10.888
20.4554 10.881
20.4706 10.817
20.4857 10.883
20.5009 10.850
20.5161 10.879
20.5313 10.873
20.5464 10.978
20.5616 11.038
20.5768 11.241
20.5920 10.928
20.6071 10.771
20.6223 11.054
20.6375 11.191
20.6527 10.990
20.6678 10.926
20.6830 10.636
20.6982 10.525
20.7134 10.798
20.7285 11.029
20.7437 10.821
20.7589 10.929
20.7741 10.696
20.7892 10.806
20.8044 10.801
20.8196 10.900
20.8348 10.448
20.8499 10.516
20.8651 10.420
20.8803 10.719
20.8955 10.412
20.9106 10.161
20.9258 10.363
20.9410 10.146
20.9562 10.200
20.9713 10.748
20.9865 10.454
21.0017 10.192
21.0169 10.241
21.0320 10.176
21.0472 10.097
21.0624 9.930
21.0776 9.930
21.0927 9.902
21.1079 9.754
21.1231 9.364
21.1383 9.974
21.1534 9.926
21.1686 10.042
21.1838 9.686
21.1990 9.732
21.2141 9.672
21.2293 9.874
21.2445 9.745
21.2597 9.325
21.2748 9.494
21.2900 9.829
21.3052 9.418
21.3204 9.515
21.3355 9.380
21.3507 9.586
21.3659 9.461
21.3811 9.435
21.3962 9.354
21.4114 9.292
21.4266 9.542
21.4418 9.296
21.4569 9.319
21.4721 9.287
21.4873 9.086
21.5025 9.503
21.5176 9.513
21.5328 9.386
21.5480 9.311
21.5632 9.450
21.5783 9.173
21.5935 9.101
21.6087 9.399
21.6239 9.294
21.6390 8.892
21.6542 9.201
21.6694 9.132
21.6846 9.083
21.6997 8.955
21.7149 9.047
21.7301 8.979
21.7453 8.955
21.7604 9.015
21.7756 9.057
21.7908 9.100
21.8060 9.126
21.8211 9.138
21.8363 9.150
21.8515 9.133
21.8667 9.314
21.8818 9.179
21.8970 9.051
21.9122 9.021
21.9274 8.979
21.9425 8.943
21.9577 8.931
21.9729 8.932
21.9881 9.125
22.0032 9.022
22.0184 8.889
22.0336 8.729
22.0488 8.647
22.0639 8.806
22.0791 8.895
22.0943 8.798
22.1095 8.629
22.1246 8.569
22.1398 8.474
22.1550 8.486
22.1702 8.773
22.1853 8.745
22.2005 8.774
22.2157 8.671
22.2309 8.617
22.2460 8.752
22.2612 8.573
22.2764 8.699
22.2916 8.704
22.3067 8.678
22.3219 8.771
22.3371 8.643
22.3523 8.424
22.3674 8.748
22.3826 8.637
22.3978 8.506
22.4130 8.631
22.4281 8.452
22.4433 8.498
22.4585 8.638
22.4737 8.352
22.4888 8.441
22.5040 8.357
22.5192 8.562
22.5344 8.360
22.5495 8.454
22.5647 8.195
22.5799 8.334
22.5951 8.572
22.6102 8.671
22.6254 8.607
22.6406 8.519
22.6558 8.492
22.6709 8.241
22.6861 8.473
22.7013 8.418
22.7165 8.034
22.7316 6.621
