'Id: "" Comment: "" Operator: "Lab Manager" Anode: "Mo" Scantype: "Still (Eiger2R_500K (1D mode))" TimePerStep: "300" X: "11.8" Y: "9.4" Z: "11.284" 
7.2532 18.847
7.2684 18.948
7.2836 18.965
7.2987 18.588
7.3139 18.899
7.3291 19.244
7.3443 19.142
7.3594 18.995
7.3746 18.974
7.3898 19.102
7.4050 19.392
7.4201 19.433
7.4353 19.187
7.4505 19.321
7.4657 19.552
7.4808 19.710
7.4960 19.702
7.5112 19.455
7.5264 19.934
7.5415 19.860
7.5567 20.041
7.5719 20.019
7.5871 19.881
7.6022 20.022
7.6174 20.237
7.6326 19.993
7.6478 19.947
7.6629 20.100
7.6781 20.110
7.6933 20.123
7.7085 20.287
7.7236 20.332
7.7388 20.207
7.7540 20.554
7.7692 20.594
7.7843 20.410
7.7995 20.585
7.8147 20.201
7.8299 20.151
7.8450 20.564
7.8602 20.844
7.8754 20.893
7.8905 20.687
7.9057 20.475
7.9209 20.627
7.9361 20.816
7.9512 20.788
7.9664 21.006
7.9816 21.213
7.9968 20.727
8.0119 20.603
8.0271 20.720
8.0423 21.066
8.0575 21.181
8.0726 20.802
8.0878 21.122
8.1030 21.457
8.1182 21.374
8.1333 21.124
8.1485 21.131
8.1637 21.365
8.1789 20.992
8.1940 21.043
8.2092 21.368
8.2244 21.394
8.2396 21.295
8.2547 21.348
8.2699 21.734
8.2851 21.661
8.3003 21.731
8.3154 21.607
8.3306 21.323
8.3458 21.796
8.3610 21.531
8.3761 21.502
8.3913 21.354
8.4065 21.625
8.4217 22.133
8.4368 21.542
8.4520 21.853
8.4672 21.619
8.4824 21.560
8.4975 21.942
8.5127 22.104
8.5279 21.135
8.5431 21.672
8.5582 21.523
8.5734 21.934
8.5886 22.321
8.6038 22.274
8.6189 22.122
8.6341 21.800
8.6493 22.179
8.6645 21.609
8.6796 22.064
8.6948 21.867
8.7100 22.165
8.7252 22.459
8.7403 21.954
8.7555 21.580
8.7707 22.596
8.7859 22.619
8.8010 22.616
8.8162 22.645
8.8314 22.468
8.8466 22.211
8.8617 22.247
8.8769 22.533
8.8921 22.641
8.9073 22.219
8.9224 22.332
8.9376 22.710
8.9528 22.511
8.9680 22.600
8.9831 22.392
8.9983 22.717
9.0135 22.399
9.0287 22.728
9.0438 22.467
9.0590 22.582
9.0742 22.393
9.0894 22.402
9.1045 22.849
9.1197 22.579
9.1349 22.166
9.1501 22.663
9.1652 22.647
9.1804 22.672
9.1956 22.380
9.2108 22.863
9.2259 22.924
9.2411 22.429
9.2563 22.374
9.2715 23.061
9.2866 22.838
9.3018 22.530
9.3170 22.425
9.3322 22.555
9.3473 22.867
9.3625 22.957
9.3777 23.002
9.3929 22.716
9.4080 22.820
9.4232 22.883
9.4384 22.255
9.4536 22.715
9.4687 23.100
9.4839 23.052
9.4991 23.087
9.5143 23.095
9.5294 22.988
9.5446 23.033
9.5598 23.098
9.5750 23.051
9.5901 23.252
9.6053 23.513
9.6205 23.448
9.6357 23.217
9.6508 23.307
9.6660 23.484
9.6812 23.669
9.6964 23.710
9.7115 23.517
9.7267 23.523
9.7419 23.678
9.7571 23.782
9.7722 23.607
9.7874 23.436
9.8026 23.475
9.8178 23.538
9.8329 23.232
9.8481 23.069
9.8633 23.026
9.8785 22.994
9.8936 22.879
9.9088 22.956
9.9240 22.875
9.9392 22.978
9.9543 23.198
9.9695 23.126
9.9847 23.123
9.9999 23.115
10.0150 23.250
10.0302 22.932
10.0454 22.836
10.0606 23.067
10.0757 23.247
10.0909 23.306
10.1061 23.336
10.1213 23.322
10.1364 23.216
10.1516 23.004
10.1668 22.772
10.1820 23.340
10.1971 23.450
10.2123 23.295
10.2275 23.214
10.2427 23.090
10.2578 22.807
10.2730 22.882
10.2882 22.775
10.3034 22.582
10.3185 22.598
10.3337 22.465
10.3489 22.701
10.3641 22.749
10.3792 22.789
10.3944 22.805
10.4096 23.243
10.4248 22.792
10.4399 22.569
10.4551 22.763
10.4703 23.015
10.4855 22.742
10.5006 22.265
10.5158 22.326
10.5310 22.410
10.5462 22.739
10.5613 22.817
10.5765 22.602
10.5917 22.616
10.6069 22.656
10.6220 22.597
10.6372 22.328
10.6524 22.148
10.6676 22.277
10.6827 22.410
10.6979 22.675
10.7131 22.532
10.7283 22.368
10.7434 22.187
10.7586 22.505
10.7738 22.607
10.7890 22.247
10.8041 22.499
10.8193 22.290
10.8345 22.266
10.8497 22.395
10.8648 22.194
10.8800 22.147
10.8952 22.201
10.9104 22.460
10.9255 22.529
10.9407 22.018
10.9559 21.950
10.9711 21.744
10.9862 21.902
11.0014 22.248
11.0166 22.108
11.0318 22.074
11.0469 21.511
11.0621 21.587
11.0773 21.456
11.0925 21.275
11.1076 21.916
11.1228 21.714
11.1380 21.806
11.1532 22.245
11.1683 22.164
11.1835 22.131
11.1987 22.051
11.2139 21.890
11.2290 21.848
11.2442 21.599
11.2594 21.773
11.2746 21.810
11.2897 21.728
11.3049 21.571
11.3201 21.375
11.3353 21.782
11.3504 21.425
11.3656 20.990
11.3808 21.060
11.3960 21.229
11.4111 21.132
11.4263 21.298
11.4415 21.156
11.4567 21.272
11.4718 21.306
11.4870 20.916
11.5022 20.870
11.5174 21.095
11.5325 21.146
11.5477 20.929
11.5629 21.269
11.5781 20.839
11.5932 20.712
11.6084 20.428
11.6236 20.879
11.6388 20.516
11.6539 20.040
11.6691 20.154
11.6843 20.560
11.6995 20.471
11.7146 20.298
11.7298 20.321
11.7450 20.549
11.7602 20.457
11.7753 19.828
11.7905 19.987
11.8057 20.054
11.8209 19.979
11.8360 19.997
11.8512 19.849
11.8664 19.966
11.8816 19.915
11.8967 19.866
11.9119 19.649
11.9271 19.731
11.9423 19.754
11.9574 19.467
11.9726 19.184
11.9878 19.308
12.0030 19.242
12.0181 18.995
12.0333 19.144
12.0485 19.389
12.0637 19.010
12.0788 18.725
12.0940 18.461
12.1092 18.796
12.1244 18.971
12.1395 18.778
12.1547 18.408
12.1699 18.197
12.1851 18.220
12.2002 18.009
12.2154 18.186
12.2306 18.132
12.2458 18.212
12.2609 18.206
12.2761 18.179
12.2913 17.911
12.3065 18.104
12.3216 17.896
12.3368 17.469
12.3520 17.517
12.3672 17.538
12.3823 17.430
12.3975 17.422
12.4127 17.248
12.4279 17.035
12.4430 16.854
12.4582 16.777
12.4734 16.961
12.4886 16.659
12.5037 16.499
12.5189 16.536
12.5341 16.370
12.5493 16.113
12.5644 16.287
12.5796 16.137
12.5948 16.138
12.6100 15.929
12.6251 16.022
12.6403 16.101
12.6555 15.859
12.6707 15.744
12.6858 15.636
12.7010 15.532
12.7162 15.516
12.7314 15.363
12.7465 15.160
12.7617 15.186
12.7769 15.232
12.7921 15.413
12.8072 15.071
12.8224 14.848
12.8376 14.858
12.8528 15.150
12.8679 15.146
12.8831 14.928
12.8983 15.105
12.9135 15.097
12.9286 14.705
12.9438 14.513
12.9590 14.479
12.9742 14.283
12.9893 14.140
13.0045 14.084
13.0197 14.138
13.0349 14.241
13.0500 13.929
13.0652 13.756
13.0804 13.750
13.0956 13.744
13.1107 13.746
13.1259 13.605
13.1411 13.398
13.1563 13.397
13.1714 13.437
13.1866 13.409
13.2018 13.407
13.2170 13.427
13.2321 13.489
13.2473 13.310
13.2625 13.037
13.2777 12.863
13.2928 12.991
13.3080 13.315
13.3232 13.382
13.3384 13.151
13.3535 13.404
13.3687 13.300
13.3839 12.778
13.3991 12.912
13.4142 13.067
13.4294 12.937
13.4446 12.760
13.4598 12.762
13.4749 12.652
13.4901 12.500
13.5053 12.483
13.5205 12.395
13.5356 12.595
13.5508 12.519
13.5660 12.391
13.5812 12.301
13.5963 12.299
13.6115 12.275
13.6267 12.068
13.6419 12.048
13.6570 11.929
13.6722 11.778
13.6874 11.902
13.7026 12.088
13.7177 12.252
13.7329 12.244
13.7481 12.066
13.7633 12.160
13.7784 12.012
13.7936 12.028
13.8088 12.427
13.8239 12.458
13.8391 12.249
13.8543 12.281
13.8695 12.479
13.8846 12.353
13.8998 12.227
13.9150 12.093
13.9302 11.966
13.9453 11.763
13.9605 11.658
13.9757 11.750
13.9909 11.802
14.0060 11.646
14.0212 11.604
14.0364 11.430
14.0516 11.598
14.0667 11.716
14.0819 11.431
14.0971 11.703
14.1123 11.670
14.1274 11.538
14.1426 11.481
14.1578 11.688
14.1730 11.661
14.1881 11.553
14.2033 11.507
14.2185 11.405
14.2337 11.586
14.2488 11.519
14.2640 11.684
14.2792 11.977
14.2944 11.988
14.3095 12.097
14.3247 12.411
14.3399 12.340
14.3551 12.675
14.3702 12.705
14.3854 13.225
14.4006 13.430
14.4158 13.530
14.4309 12.862
14.4461 12.802
14.4613 12.745
14.4765 12.546
14.4916 12.553
14.5068 12.153
14.5220 11.851
14.5372 11.531
14.5523 11.543
14.5675 11.175
14.5827 10.710
14.5979 11.161
14.6130 10.838
14.6282 11.062
14.6434 11.050
14.6586 10.424
14.6737 10.724
14.6889 10.929
14.7041 10.642
14.7193 10.833
14.7344 10.577
14.7496 10.600
14.7648 10.713
14.7800 10.406
14.7951 10.774
14.8103 10.445
14.8255 10.514
14.8407 10.602
14.8558 10.588
14.8710 10.734
14.8862 10.302
14.9014 10.441
14.9165 10.833
14.9317 10.733
14.9469 10.520
14.9621 10.229
14.9772 10.437
14.9924 10.120
15.0076 10.316
15.0228 10.540
15.0379 10.109
15.0531 10.162
15.0683 10.248
15.0835 10.224
15.0986 10.247
15.1138 10.508
15.1290 9.913
15.1442 10.168
15.1593 10.404
15.1745 9.998
15.1897 10.267
15.2049 10.177
15.2200 9.924
15.2352 10.265
15.2504 9.927
15.2656 10.205
15.2807 10.187
15.2959 9.978
15.3111 10.131
15.3263 9.920
15.3414 10.124
15.3566 9.957
15.3718 9.941
15.3870 9.791
15.4021 10.227
15.4173 10.095
15.4325 9.933
15.4477 10.252
15.4628 10.039
15.4780 10.137
15.4932 9.875
15.5084 9.927
15.5235 9.891
15.5387 9.861
15.5539 9.940
15.5691 9.544
15.5842 9.867
15.5994 9.898
15.6146 9.721
15.6298 9.815
15.6449 9.835
15.6601 10.052
15.6753 9.762
15.6905 9.880
15.7056 9.804
15.7208 9.932
15.7360 9.938
15.7512 9.692
15.7663 9.587
15.7815 9.845
15.7967 9.736
15.8119 9.595
15.8270 9.705
15.8422 9.715
15.8574 9.533
15.8726 9.422
15.8877 9.564
15.9029 9.470
15.9181 9.650
15.9333 9.680
15.9484 9.668
15.9636 9.521
15.9788 9.669
15.9940 9.421
16.0091 9.725
16.0243 9.647
16.0395 9.598
16.0547 9.274
16.0698 9.370
16.0850 9.436
16.1002 9.479
16.1154 9.514
16.1305 9.432
16.1457 9.738
16.1609 9.509
16.1761 9.432
16.1912 9.319
16.2064 9.498
16.2216 9.888
16.2368 9.637
16.2519 9.686
16.2671 9.736
16.2823 9.610
16.2975 9.719
16.3126 9.978
16.3278 9.856
16.3430 9.719
16.3582 9.826
16.3733 9.947
16.3885 9.713
16.4037 9.655
16.4189 9.619
16.4340 9.699
16.4492 9.724
16.4644 9.575
16.4796 9.860
16.4947 9.817
16.5099 9.736
16.5251 9.584
16.5403 9.693
16.5554 9.707
16.5706 9.539
16.5858 9.481
16.6010 9.519
16.6161 9.325
16.6313 9.492
16.6465 9.647
16.6617 9.837
16.6768 9.994
16.6920 9.752
16.7072 9.846
16.7224 9.895
16.7375 9.842
16.7527 9.756
16.7679 9.680
16.7831 9.699
16.7982 9.582
16.8134 9.495
16.8286 9.565
16.8438 9.710
16.8589 9.711
16.8741 9.662
16.8893 9.809
16.9045 9.724
16.9196 9.616
16.9348 9.620
16.9500 9.521
16.9652 9.510
16.9803 9.685
16.9955 9.763
17.0107 9.939
17.0259 9.799
17.0410 9.752
17.0562 9.906
17.0714 10.105
17.0866 10.093
17.1017 10.290
17.1169 10.585
17.1321 10.969
17.1473 11.213
17.1624 11.492
17.1776 12.475
17.1928 13.139
17.2080 13.839
17.2231 14.942
17.2383 16.115
17.2535 17.300
17.2687 18.014
17.2838 18.408
17.2990 17.863
17.3142 16.893
17.3294 16.395
17.3445 16.152
17.3597 16.091
17.3749 15.791
17.3901 15.191
17.4052 14.058
17.4204 13.140
17.4356 12.502
17.4508 11.952
17.4659 11.695
17.4811 11.578
17.4963 11.633
17.5115 11.306
17.5266 10.844
17.5418 10.812
17.5570 10.862
17.5722 10.830
17.5873 11.021
17.6025 11.097
17.6177 11.290
17.6329 11.382
17.6480 11.298
17.6632 11.436
17.6784 11.834
17.6936 12.069
17.7087 11.820
17.7239 11.588
17.7391 11.718
17.7543 11.554
17.7694 11.204
17.7846 11.088
17.7998 10.828
17.8150 10.785
17.8301 10.829
17.8453 10.719
17.8605 10.689
17.8757 10.524
17.8908 10.609
17.9060 10.410
17.9212 10.161
17.9364 10.260
17.9515 10.052
17.9667 9.873
17.9819 10.015
17.9971 10.088
18.0122 10.260
18.0274 10.247
18.0426 10.419
18.0578 10.253
18.0729 10.001
18.0881 10.044
18.1033 9.946
18.1185 9.841
18.1336 10.028
18.1488 10.007
18.1640 9.886
18.1792 9.997
18.1943 9.991
18.2095 9.994
18.2247 9.828
18.2399 10.014
18.2550 10.059
18.2702 9.994
18.2854 10.146
18.3006 9.842
18.3157 9.939
18.3309 10.032
18.3461 9.786
18.3613 9.966
18.3764 9.990
18.3916 9.801
18.4068 9.675
18.4220 9.532
18.4371 9.748
18.4523 9.961
18.4675 9.839
18.4827 9.779
18.4978 9.797
18.5130 9.605
18.5282 9.777
18.5434 9.792
18.5585 9.783
18.5737 9.701
18.5889 9.635
18.6041 9.582
18.6192 9.664
18.6344 9.755
18.6496 9.686
18.6648 9.811
18.6799 9.664
18.6951 9.582
18.7103 9.723
18.7255 9.670
18.7406 9.639
18.7558 9.568
18.7710 9.698
18.7862 9.805
18.8013 9.707
18.8165 9.635
18.8317 9.749
18.8469 9.803
18.8620 9.920
18.8772 10.104
18.8924 9.892
18.9076 9.906
18.9227 10.039
18.9379 9.853
18.9531 9.668
18.9683 9.857
18.9834 9.941
18.9986 10.071
19.0138 10.085
19.0290 10.134
19.0441 10.260
19.0593 10.259
19.0745 10.176
19.0897 10.220
19.1048 10.523
19.1200 10.543
19.1352 10.479
19.1504 10.461
19.1655 10.424
19.1807 10.776
19.1959 10.889
19.2111 10.904
19.2262 10.759
19.2414 10.575
19.2566 10.718
19.2718 10.797
19.2869 11.005
19.3021 11.095
19.3173 11.280
19.3325 11.344
19.3476 10.844
19.3628 10.848
19.3780 11.144
19.3932 10.999
19.4083 11.099
19.4235 11.365
19.4387 11.291
19.4539 11.335
19.4690 11.486
19.4842 11.308
19.4994 11.489
19.5146 11.545
19.5297 11.370
19.5449 11.492
19.5601 11.652
19.5753 11.751
19.5904 11.636
19.6056 11.492
19.6208 11.582
19.6360 11.804
19.6511 11.787
19.6663 11.707
19.6815 11.536
19.6967 11.504
19.7118 11.582
19.7270 11.632
19.7422 11.785
19.7574 11.794
19.7725 11.877
19.7877 12.139
19.8029 12.166
19.8180 12.344
19.8332 12.401
19.8484 12.238
19.8636 12.455
19.8787 12.710
19.8939 12.839
19.9091 13.039
19.9243 13.290
19.9394 13.408
19.9546 13.931
19.9698 14.339
19.9850 14.502
20.0001 14.671
20.0153 14.348
20.0305 13.691
20.0457 13.479
20.0608 13.742
20.0760 13.850
20.0912 13.694
20.1064 13.549
20.1215 13.637
20.1367 13.429
20.1519 13.127
20.1671 12.850
20.1822 12.799
20.1974 12.640
20.2126 12.900
20.2278 12.912
20.2429 12.715
20.2581 12.344
20.2733 12.255
20.2885 12.256
20.3036 11.980
20.3188 11.910
20.3340 12.086
20.3492 12.065
20.3643 11.947
20.3795 11.761
20.3947 11.936
20.4099 11.937
20.4250 12.050
20.4402 11.835
20.4554 11.950
20.4706 12.244
20.4857 12.117
20.5009 11.937
20.5161 11.797
20.5313 11.805
20.5464 11.689
20.5616 11.516
20.5768 11.506
20.5920 11.264
20.6071 11.196
20.6223 11.333
20.6375 11.097
20.6527 10.852
20.6678 10.734
20.6830 10.824
20.6982 10.936
20.7134 10.928
20.7285 10.464
20.7437 10.649
20.7589 10.501
20.7741 10.180
20.7892 10.426
20.8044 10.400
20.8196 10.332
20.8348 10.297
20.8499 10.293
20.8651 10.418
20.8803 10.374
20.8955 10.244
20.9106 10.053
20.9258 10.453
20.9410 10.256
20.9562 10.137
20.9713 9.735
20.9865 10.522
21.0017 10.104
21.0169 10.173
21.0320 10.142
21.0472 9.895
21.0624 9.849
21.0776 10.211
21.0927 10.181
21.1079 10.176
21.1231 9.977
21.1383 9.734
21.1534 9.655
21.1686 10.130
21.1838 9.667
21.1990 9.640
21.2141 9.805
21.2293 9.655
21.2445 9.569
21.2597 9.527
21.2748 9.542
21.2900 9.612
21.3052 9.505
21.3204 9.505
21.3355 9.612
21.3507 9.523
21.3659 9.515
21.3811 9.281
21.3962 9.853
21.4114 9.483
21.4266 9.432
21.4418 9.340
21.4569 9.652
21.4721 9.580
21.4873 9.462
21.5025 9.330
21.5176 9.563
21.5328 9.257
21.5480 9.277
21.5632 9.358
21.5783 9.118
21.5935 9.354
21.6087 9.316
21.6239 9.441
21.6390 9.346
21.6542 9.335
21.6694 9.446
21.6846 9.324
21.6997 9.211
21.7149 9.072
21.7301 9.308
21.7453 9.258
21.7604 8.974
21.7756 8.832
21.7908 9.006
21.8060 9.091
21.8211 9.102
21.8363 9.100
21.8515 9.113
21.8667 9.106
21.8818 9.158
21.8970 9.190
21.9122 9.283
21.9274 9.212
21.9425 9.072
21.9577 8.965
21.9729 8.897
21.9881 9.005
22.0032 8.919
22.0184 8.960
22.0336 8.966
22.0488 8.977
22.0639 8.846
22.0791 8.840
22.0943 8.787
22.1095 8.692
22.1246 8.601
22.1398 8.473
22.1550 8.524
22.1702 8.619
22.1853 8.707
22.2005 8.584
22.2157 8.372
22.2309 8.340
22.2460 8.531
22.2612 8.513
22.2764 8.517
22.2916 8.676
22.3067 8.471
22.3219 8.310
22.3371 8.502
22.3523 8.557
22.3674 8.477
22.3826 8.324
22.3978 8.467
22.4130 8.342
22.4281 8.465
22.4433 8.622
22.4585 8.482
22.4737 8.447
22.4888 8.506
22.5040 8.442
22.5192 8.274
22.5344 8.351
22.5495 8.348
22.5647 8.440
22.5799 8.712
22.5951 8.293
22.6102 8.487
22.6254 8.491
22.6406 8.348
22.6558 8.508
22.6709 8.477
22.6861 8.178
22.7013 8.032
22.7165 7.877
22.7316 6.506
