'Id: "" Comment: "" Operator: "Lab Manager" Anode: "Mo" Scantype: "Still (Eiger2R_500K (1D mode))" TimePerStep: "300" X: "11.8" Y: "9.4" Z: "11.284" 
7.2532 19.102
7.2684 19.288
7.2836 19.012
7.2987 18.785
7.3139 19.432
7.3291 18.799
7.3443 19.087
7.3594 18.844
7.3746 19.065
7.3898 19.624
7.4050 19.157
7.4201 19.147
7.4353 19.574
7.4505 19.510
7.4657 19.654
7.4808 19.357
7.4960 19.260
7.5112 19.968
7.5264 19.717
7.5415 19.657
7.5567 19.623
7.5719 19.765
7.5871 19.922
7.6022 19.993
7.6174 19.776
7.6326 20.168
7.6478 20.047
7.6629 20.195
7.6781 20.276
7.6933 20.466
7.7085 20.325
7.7236 19.939
7.7388 20.276
7.7540 20.414
7.7692 20.457
7.7843 20.409
7.7995 20.384
7.8147 20.587
7.8299 20.539
7.8450 20.545
7.8602 20.762
7.8754 20.630
7.8905 20.544
7.9057 20.563
7.9209 20.554
7.9361 20.717
7.9512 20.619
7.9664 20.680
7.9816 21.003
7.9968 21.007
8.0119 20.913
8.0271 21.323
8.0423 20.927
8.0575 20.702
8.0726 21.160
8.0878 21.332
8.1030 20.775
8.1182 20.833
8.1333 21.361
8.1485 21.549
8.1637 21.354
8.1789 21.500
8.1940 21.300
8.2092 21.224
8.2244 21.869
8.2396 21.361
8.2547 21.547
8.2699 21.421
8.2851 21.482
8.3003 21.750
8.3154 21.365
8.3306 21.494
8.3458 22.054
8.3610 21.860
8.3761 21.571
8.3913 21.834
8.4065 21.230
8.4217 21.622
8.4368 21.618
8.4520 22.214
8.4672 21.891
8.4824 21.531
8.4975 22.081
8.5127 22.132
8.5279 21.806
8.5431 22.261
8.5582 22.335
8.5734 22.109
8.5886 21.836
8.6038 22.098
8.6189 22.110
8.6341 22.279
8.6493 22.004
8.6645 22.217
8.6796 22.097
8.6948 22.172
8.7100 22.302
8.7252 22.185
8.7403 22.084
8.7555 22.117
8.7707 22.547
8.7859 22.403
8.8010 22.184
8.8162 22.425
8.8314 22.172
8.8466 22.194
8.8617 22.835
8.8769 23.146
8.8921 22.831
8.9073 22.587
8.9224 22.446
8.9376 22.804
8.9528 22.604
8.9680 22.852
8.9831 22.696
8.9983 22.608
9.0135 22.411
9.0287 22.625
9.0438 22.574
9.0590 22.595
9.0742 22.622
9.0894 22.823
9.1045 22.507
9.1197 22.448
9.1349 22.754
9.1501 22.650
9.1652 22.745
9.1804 22.749
9.1956 22.878
9.2108 22.575
9.2259 22.891
9.2411 22.880
9.2563 22.722
9.2715 23.110
9.2866 23.048
9.3018 22.621
9.3170 22.481
9.3322 22.848
9.3473 23.038
9.3625 23.341
9.3777 22.999
9.3929 22.838
9.4080 23.056
9.4232 22.939
9.4384 22.615
9.4536 22.862
9.4687 22.992
9.4839 23.089
9.4991 23.263
9.5143 22.893
9.5294 22.689
9.5446 23.055
9.5598 23.456
9.5750 23.331
9.5901 23.055
9.6053 23.192
9.6205 22.994
9.6357 22.927
9.6508 23.306
9.6660 23.364
9.6812 23.323
9.6964 23.498
9.7115 23.930
9.7267 24.230
9.7419 24.133
9.7571 23.979
9.7722 23.964
9.7874 23.525
9.8026 23.443
9.8178 23.651
9.8329 23.317
9.8481 23.332
9.8633 23.294
9.8785 22.885
9.8936 22.950
9.9088 23.457
9.9240 23.416
9.9392 23.091
9.9543 23.099
9.9695 23.130
9.9847 22.919
9.9999 23.021
10.0150 23.164
10.0302 22.689
10.0454 23.124
10.0606 23.044
10.0757 22.936
10.0909 23.178
10.1061 23.305
10.1213 23.594
10.1364 23.669
10.1516 23.519
10.1668 23.471
10.1820 23.718
10.1971 23.891
10.2123 23.329
10.2275 23.065
10.2427 23.114
10.2578 23.307
10.2730 23.162
10.2882 22.927
10.3034 22.971
10.3185 23.052
10.3337 22.908
10.3489 23.078
10.3641 22.737
10.3792 22.525
10.3944 22.212
10.4096 22.589
10.4248 22.672
10.4399 22.586
10.4551 22.402
10.4703 22.354
10.4855 22.499
10.5006 22.686
10.5158 22.552
10.5310 22.402
10.5462 22.692
10.5613 22.538
10.5765 22.129
10.5917 22.048
10.6069 22.493
10.6220 22.701
10.6372 22.993
10.6524 23.196
10.6676 22.714
10.6827 22.148
10.6979 21.934
10.7131 22.261
10.7283 22.318
10.7434 22.260
10.7586 22.488
10.7738 21.925
10.7890 22.361
10.8041 22.251
10.8193 22.073
10.8345 22.015
10.8497 22.155
10.8648 22.147
10.8800 22.082
10.8952 21.943
10.9104 21.878
10.9255 22.124
10.9407 22.285
10.9559 21.988
10.9711 21.986
10.9862 21.767
11.0014 21.799
11.0166 21.829
11.0318 21.758
11.0469 21.760
11.0621 21.522
11.0773 21.961
11.0925 22.038
11.1076 21.547
11.1228 21.588
11.1380 21.756
11.1532 21.680
11.1683 21.894
11.1835 21.789
11.1987 21.342
11.2139 21.410
11.2290 21.443
11.2442 21.514
11.2594 21.880
11.2746 21.861
11.2897 21.585
11.3049 21.597
11.3201 21.686
11.3353 21.314
11.3504 21.494
11.3656 21.404
11.3808 21.338
11.3960 21.245
11.4111 21.541
11.4263 21.438
11.4415 21.214
11.4567 21.300
11.4718 21.152
11.4870 21.195
11.5022 21.065
11.5174 20.813
11.5325 20.895
11.5477 21.002
11.5629 20.793
11.5781 21.118
11.5932 21.262
11.6084 20.864
11.6236 20.766
11.6388 20.777
11.6539 20.318
11.6691 20.356
11.6843 20.460
11.6995 20.462
11.7146 20.571
11.7298 20.514
11.7450 20.542
11.7602 20.104
11.7753 20.291
11.7905 19.960
11.8057 19.780
11.8209 19.766
11.8360 19.988
11.8512 19.943
11.8664 19.796
11.8816 19.910
11.8967 19.900
11.9119 19.665
11.9271 19.608
11.9423 19.477
11.9574 19.017
11.9726 19.290
11.9878 19.368
12.0030 19.155
12.0181 19.011
12.0333 19.112
12.0485 18.965
12.0637 18.807
12.0788 18.744
12.0940 18.647
12.1092 18.461
12.1244 18.356
12.1395 18.604
12.1547 18.293
12.1699 18.261
12.1851 18.212
12.2002 18.373
12.2154 18.531
12.2306 17.974
12.2458 17.941
12.2609 18.012
12.2761 17.768
12.2913 17.524
12.3065 17.609
12.3216 17.906
12.3368 17.768
12.3520 17.542
12.3672 17.519
12.3823 17.569
12.3975 17.338
12.4127 17.134
12.4279 17.053
12.4430 16.955
12.4582 16.608
12.4734 16.594
12.4886 16.799
12.5037 16.768
12.5189 16.571
12.5341 16.508
12.5493 16.740
12.5644 16.592
12.5796 16.134
12.5948 15.942
12.6100 16.091
12.6251 15.960
12.6403 15.817
12.6555 15.741
12.6707 15.763
12.6858 15.711
12.7010 15.564
12.7162 15.474
12.7314 15.229
12.7465 15.414
12.7617 15.158
12.7769 14.916
12.7921 15.025
12.8072 15.005
12.8224 15.023
12.8376 15.027
12.8528 14.824
12.8679 14.776
12.8831 14.581
12.8983 14.497
12.9135 14.478
12.9286 14.626
12.9438 14.495
12.9590 14.304
12.9742 14.591
12.9893 14.488
13.0045 14.098
13.0197 13.950
13.0349 13.914
13.0500 14.038
13.0652 14.074
13.0804 14.016
13.0956 13.994
13.1107 13.969
13.1259 13.816
13.1411 13.650
13.1563 13.537
13.1714 13.594
13.1866 13.747
13.2018 13.725
13.2170 13.513
13.2321 13.207
13.2473 13.222
13.2625 13.442
13.2777 13.446
13.2928 13.182
13.3080 13.061
13.3232 13.140
13.3384 12.970
13.3535 12.625
13.3687 12.837
13.3839 13.005
13.3991 12.918
13.4142 12.977
13.4294 12.757
13.4446 12.631
13.4598 12.580
13.4749 12.462
13.4901 12.546
13.5053 12.719
13.5205 12.693
13.5356 12.382
13.5508 12.393
13.5660 12.537
13.5812 12.496
13.5963 12.233
13.6115 12.051
13.6267 12.109
13.6419 12.337
13.6570 12.042
13.6722 12.243
13.6874 12.239
13.7026 12.070
13.7177 12.102
13.7329 12.182
13.7481 12.105
13.7633 12.030
13.7784 12.170
13.7936 12.160
13.8088 12.159
13.8239 12.157
13.8391 12.498
13.8543 12.511
13.8695 12.448
13.8846 12.122
13.8998 12.178
13.9150 11.955
13.9302 11.774
13.9453 11.933
13.9605 11.936
13.9757 11.578
13.9909 11.455
14.0060 11.372
14.0212 11.291
14.0364 11.365
14.0516 11.437
14.0667 11.346
14.0819 11.518
14.0971 11.127
14.1123 11.219
14.1274 11.738
14.1426 11.438
14.1578 11.274
14.1730 11.393
14.1881 11.568
14.2033 11.597
14.2185 11.546
14.2337 11.272
14.2488 11.531
14.2640 11.600
14.2792 11.583
14.2944 11.736
14.3095 12.120
14.3247 12.147
14.3399 12.264
14.3551 12.304
14.3702 12.903
14.3854 13.187
14.4006 13.463
14.4158 13.567
14.4309 13.391
14.4461 13.021
14.4613 12.908
14.4765 12.520
14.4916 12.354
14.5068 12.491
14.5220 12.191
14.5372 11.786
14.5523 11.595
14.5675 11.186
14.5827 10.883
14.5979 11.313
14.6130 11.137
14.6282 10.735
14.6434 11.084
14.6586 10.738
14.6737 10.799
14.6889 10.659
14.7041 10.822
14.7193 10.718
14.7344 10.860
14.7496 10.820
14.7648 10.424
14.7800 10.494
14.7951 10.415
14.8103 10.491
14.8255 10.398
14.8407 10.809
14.8558 10.465
14.8710 10.438
14.8862 10.661
14.9014 10.349
14.9165 10.494
14.9317 10.406
14.9469 10.266
14.9621 10.735
14.9772 10.067
14.9924 10.573
15.0076 10.325
15.0228 10.241
15.0379 10.376
15.0531 10.333
15.0683 10.418
15.0835 10.378
15.0986 10.428
15.1138 10.577
15.1290 10.171
15.1442 10.089
15.1593 10.043
15.1745 10.202
15.1897 9.904
15.2049 9.908
15.2200 10.163
15.2352 10.022
15.2504 10.084
15.2656 10.299
15.2807 10.379
15.2959 10.094
15.3111 10.047
15.3263 10.231
15.3414 10.064
15.3566 10.071
15.3718 10.295
15.3870 9.947
15.4021 10.157
15.4173 10.181
15.4325 9.862
15.4477 9.973
15.4628 10.204
15.4780 10.171
15.4932 10.184
15.5084 10.052
15.5235 10.254
15.5387 9.837
15.5539 10.048
15.5691 10.088
15.5842 10.268
15.5994 10.037
15.6146 9.649
15.6298 9.927
15.6449 9.834
15.6601 9.966
15.6753 9.896
15.6905 9.627
15.7056 9.586
15.7208 9.893
15.7360 9.863
15.7512 9.830
15.7663 9.869
15.7815 9.945
15.7967 9.883
15.8119 9.935
15.8270 9.735
15.8422 9.823
15.8574 9.727
15.8726 9.449
15.8877 9.596
15.9029 9.432
15.9181 9.722
15.9333 9.690
15.9484 9.740
15.9636 9.449
15.9788 9.550
15.9940 9.646
16.0091 9.752
16.0243 9.661
16.0395 9.565
16.0547 9.464
16.0698 9.461
16.0850 9.686
16.1002 9.493
16.1154 9.555
16.1305 9.525
16.1457 9.653
16.1609 9.691
16.1761 9.478
16.1912 9.678
16.2064 9.698
16.2216 9.937
16.2368 9.910
16.2519 9.987
16.2671 9.980
16.2823 9.878
16.2975 9.695
16.3126 9.772
16.3278 9.708
16.3430 9.776
16.3582 9.848
16.3733 9.986
16.3885 9.808
16.4037 9.839
16.4189 9.787
16.4340 9.852
16.4492 9.793
16.4644 9.941
16.4796 9.749
16.4947 9.612
16.5099 9.655
16.5251 9.563
16.5403 9.753
16.5554 9.543
16.5706 9.536
16.5858 9.672
16.6010 9.695
16.6161 9.782
16.6313 9.701
16.6465 9.832
16.6617 9.939
16.6768 9.725
16.6920 9.688
16.7072 9.944
16.7224 9.912
16.7375 9.875
16.7527 9.969
16.7679 9.865
16.7831 9.781
16.7982 9.664
16.8134 9.763
16.8286 9.909
16.8438 9.690
16.8589 9.459
16.8741 9.545
16.8893 9.851
16.9045 9.829
16.9196 9.825
16.9348 10.109
16.9500 9.933
16.9652 9.757
16.9803 9.945
16.9955 9.725
17.0107 9.409
17.0259 9.748
17.0410 9.970
17.0562 10.047
17.0714 10.002
17.0866 10.108
17.1017 10.526
17.1169 10.735
17.1321 10.936
17.1473 11.362
17.1624 11.740
17.1776 11.962
17.1928 12.762
17.2080 13.856
17.2231 14.781
17.2383 16.052
17.2535 17.235
17.2687 18.251
17.2838 18.462
17.2990 17.501
17.3142 16.568
17.3294 16.150
17.3445 15.814
17.3597 15.771
17.3749 15.526
17.3901 14.856
17.4052 13.898
17.4204 12.929
17.4356 12.282
17.4508 11.929
17.4659 11.662
17.4811 11.301
17.4963 11.112
17.5115 10.938
17.5266 10.760
17.5418 10.604
17.5570 10.711
17.5722 10.880
17.5873 10.880
17.6025 10.927
17.6177 11.082
17.6329 10.889
17.6480 11.080
17.6632 11.476
17.6784 11.645
17.6936 11.941
17.7087 12.038
17.7239 11.751
17.7391 11.582
17.7543 11.645
17.7694 11.394
17.7846 11.228
17.7998 11.214
17.8150 11.139
17.8301 11.091
17.8453 10.846
17.8605 10.636
17.8757 10.420
17.8908 10.333
17.9060 10.385
17.9212 10.303
17.9364 10.288
17.9515 10.246
17.9667 10.201
17.9819 10.118
17.9971 10.100
18.0122 10.374
18.0274 10.191
18.0426 10.259
18.0578 10.496
18.0729 10.498
18.0881 10.341
18.1033 10.033
18.1185 10.079
18.1336 10.003
18.1488 10.063
18.1640 9.972
18.1792 9.907
18.1943 9.880
18.2095 9.865
18.2247 9.706
18.2399 9.829
18.2550 9.967
18.2702 9.915
18.2854 9.817
18.3006 9.993
18.3157 9.868
18.3309 9.656
18.3461 9.656
18.3613 9.818
18.3764 9.907
18.3916 9.771
18.4068 9.711
18.4220 9.770
18.4371 9.641
18.4523 9.607
18.4675 9.870
18.4827 9.719
18.4978 9.682
18.5130 9.837
18.5282 9.903
18.5434 9.648
18.5585 9.596
18.5737 9.788
18.5889 9.774
18.6041 9.530
18.6192 9.675
18.6344 9.606
18.6496 9.642
18.6648 9.838
18.6799 9.821
18.6951 9.812
18.7103 9.732
18.7255 9.820
18.7406 9.713
18.7558 9.899
18.7710 9.952
18.7862 9.696
18.8013 9.627
18.8165 9.582
18.8317 9.824
18.8469 9.959
18.8620 9.918
18.8772 9.970
18.8924 9.974
18.9076 10.043
18.9227 9.947
18.9379 9.864
18.9531 10.085
18.9683 10.199
18.9834 9.961
18.9986 9.984
19.0138 9.951
19.0290 10.018
19.0441 10.218
19.0593 10.136
19.0745 10.150
19.0897 10.140
19.1048 10.218
19.1200 10.486
19.1352 10.361
19.1504 10.249
19.1655 10.418
19.1807 10.600
19.1959 10.736
19.2111 10.601
19.2262 10.731
19.2414 10.798
19.2566 10.700
19.2718 10.752
19.2869 10.784
19.3021 10.871
19.3173 10.686
19.3325 10.981
19.3476 10.992
19.3628 10.970
19.3780 11.195
19.3932 11.342
19.4083 11.288
19.4235 11.202
19.4387 11.317
19.4539 11.260
19.4690 11.208
19.4842 11.373
19.4994 11.391
19.5146 11.494
19.5297 11.480
19.5449 11.494
19.5601 11.502
19.5753 11.668
19.5904 11.626
19.6056 11.632
19.6208 11.770
19.6360 11.512
19.6511 11.505
19.6663 11.670
19.6815 11.616
19.6967 11.612
19.7118 11.719
19.7270 11.747
19.7422 11.725
19.7574 11.824
19.7725 11.890
19.7877 11.742
19.8029 11.776
19.8180 12.015
19.8332 12.096
19.8484 12.260
19.8636 12.265
19.8787 12.302
19.8939 12.626
19.9091 13.010
19.9243 13.415
19.9394 13.542
19.9546 13.827
19.9698 14.047
19.9850 14.206
20.0001 14.369
20.0153 14.195
20.0305 13.832
20.0457 13.524
20.0608 13.700
20.0760 13.849
20.0912 13.463
20.1064 13.508
20.1215 13.494
20.1367 12.895
20.1519 12.793
20.1671 12.685
20.1822 12.673
20.1974 12.801
20.2126 12.689
20.2278 12.622
20.2429 12.431
20.2581 12.245
20.2733 11.969
20.2885 12.083
20.3036 11.941
20.3188 11.559
20.3340 11.735
20.3492 12.013
20.3643 12.069
20.3795 11.773
20.3947 11.413
20.4099 11.624
20.4250 11.544
20.4402 11.755
20.4554 12.048
20.4706 12.272
20.4857 12.293
20.5009 11.748
20.5161 11.726
20.5313 11.776
20.5464 11.470
20.5616 11.629
20.5768 11.389
20.5920 11.143
20.6071 11.146
20.6223 11.148
20.6375 11.143
20.6527 11.003
20.6678 10.836
20.6830 10.697
20.6982 10.304
20.7134 10.376
20.7285 10.386
20.7437 10.452
20.7589 10.341
20.7741 10.249
20.7892 10.168
20.8044 10.529
20.8196 10.490
20.8348 10.230
20.8499 10.495
20.8651 10.207
20.8803 10.297
20.8955 10.176
20.9106 10.159
20.9258 10.216
20.9410 10.053
20.9562 10.074
20.9713 9.855
20.9865 10.403
21.0017 9.924
21.0169 9.889
21.0320 9.883
21.0472 10.161
21.0624 10.021
21.0776 9.671
21.0927 9.741
21.1079 9.736
21.1231 9.753
21.1383 9.623
21.1534 10.026
21.1686 9.587
21.1838 9.585
21.1990 9.938
21.2141 9.688
21.2293 9.606
21.2445 9.438
21.2597 9.799
21.2748 9.647
21.2900 9.337
21.3052 9.625
21.3204 9.683
21.3355 9.827
21.3507 9.582
21.3659 9.444
21.3811 9.085
21.3962 9.508
21.4114 9.543
21.4266 9.665
21.4418 9.320
21.4569 9.480
21.4721 9.372
21.4873 9.178
21.5025 9.531
21.5176 9.591
21.5328 9.393
21.5480 9.305
21.5632 8.957
21.5783 9.104
21.5935 9.081
21.6087 9.344
21.6239 9.329
21.6390 9.131
21.6542 9.256
21.6694 8.817
21.6846 8.964
21.6997 9.107
21.7149 9.251
21.7301 9.120
21.7453 8.875
21.7604 8.954
21.7756 8.993
21.7908 8.773
21.8060 8.930
21.8211 9.172
21.8363 9.082
21.8515 8.947
21.8667 9.018
21.8818 9.260
21.8970 9.207
21.9122 9.047
21.9274 8.917
21.9425 8.929
21.9577 8.912
21.9729 8.870
21.9881 8.814
22.0032 8.814
22.0184 8.964
22.0336 8.895
22.0488 8.669
22.0639 8.713
22.0791 8.600
22.0943 8.626
22.1095 8.687
22.1246 8.521
22.1398 8.548
22.1550 8.744
22.1702 8.676
22.1853 8.566
22.2005 8.661
22.2157 8.648
22.2309 8.602
22.2460 8.645
22.2612 8.419
22.2764 8.375
22.2916 8.439
22.3067 8.496
22.3219 8.406
22.3371 8.422
22.3523 8.517
22.3674 8.613
22.3826 8.601
22.3978 8.439
22.4130 8.573
22.4281 8.549
22.4433 8.243
22.4585 8.474
22.4737 8.253
22.4888 8.296
22.5040 8.549
22.5192 8.394
22.5344 8.260
22.5495 8.297
22.5647 8.717
22.5799 8.550
22.5951 8.228
22.6102 8.439
22.6254 8.536
22.6406 8.409
22.6558 7.846
22.6709 8.002
22.6861 8.187
22.7013 8.198
22.7165 7.994
22.7316 6.374
