'Id: "" Comment: "" Operator: "Lab Manager" Anode: "Mo" Scantype: "Still (Eiger2R_500K (1D mode))" TimePerStep: "300" X: "11.8" Y: "9.4" Z: "11.284" 
7.2532 18.893
7.2684 18.587
7.2836 18.875
7.2987 19.135
7.3139 19.417
7.3291 18.922
7.3443 19.052
7.3594 19.060
7.3746 19.135
7.3898 18.971
7.4050 19.408
7.4201 19.326
7.4353 19.283
7.4505 19.024
7.4657 19.379
7.4808 19.809
7.4960 19.841
7.5112 19.810
7.5264 19.560
7.5415 19.509
7.5567 19.480
7.5719 19.610
7.5871 19.828
7.6022 20.091
7.6174 20.117
7.6326 20.178
7.6478 19.994
7.6629 20.027
7.6781 19.981
7.6933 19.966
7.7085 20.132
7.7236 20.315
7.7388 20.385
7.7540 20.485
7.7692 20.503
7.7843 20.530
7.7995 20.522
7.8147 20.709
7.8299 20.852
7.8450 20.766
7.8602 20.797
7.8754 20.771
7.8905 20.548
7.9057 20.595
7.9209 20.914
7.9361 20.830
7.9512 20.770
7.9664 20.919
7.9816 21.066
7.9968 20.869
8.0119 21.035
8.0271 20.894
8.0423 21.068
8.0575 21.000
8.0726 20.709
8.0878 20.840
8.1030 21.020
8.1182 21.253
8.1333 21.119
8.1485 21.126
8.1637 21.356
8.1789 21.211
8.1940 21.154
8.2092 21.167
8.2244 21.270
8.2396 21.445
8.2547 21.280
8.2699 21.099
8.2851 21.496
8.3003 21.492
8.3154 21.446
8.3306 21.318
8.3458 21.769
8.3610 21.424
8.3761 21.847
8.3913 21.814
8.4065 21.610
8.4217 21.813
8.4368 21.828
8.4520 21.331
8.4672 21.675
8.4824 21.953
8.4975 21.881
8.5127 21.907
8.5279 22.194
8.5431 21.944
8.5582 21.481
8.5734 22.417
8.5886 21.670
8.6038 21.995
8.6189 22.070
8.6341 22.297
8.6493 22.352
8.6645 22.055
8.6796 22.248
8.6948 22.218
8.7100 21.750
8.7252 22.283
8.7403 22.299
8.7555 22.321
8.7707 22.294
8.7859 22.383
8.8010 22.466
8.8162 21.999
8.8314 22.329
8.8466 22.764
8.8617 22.749
8.8769 22.649
8.8921 22.574
8.9073 22.621
8.9224 22.390
8.9376 22.410
8.9528 22.655
8.9680 22.260
8.9831 22.531
8.9983 22.328
9.0135 22.125
9.0287 22.342
9.0438 22.491
9.0590 22.575
9.0742 22.719
9.0894 22.477
9.1045 22.845
9.1197 22.709
9.1349 22.647
9.1501 22.750
9.1652 22.919
9.1804 22.652
9.1956 22.696
9.2108 23.213
9.2259 23.122
9.2411 23.016
9.2563 22.765
9.2715 22.732
9.2866 22.924
9.3018 22.682
9.3170 22.652
9.3322 22.741
9.3473 23.076
9.3625 23.035
9.3777 22.664
9.3929 22.871
9.4080 23.024
9.4232 23.194
9.4384 23.041
9.4536 22.852
9.4687 23.060
9.4839 22.878
9.4991 22.791
9.5143 22.928
9.5294 22.932
9.5446 23.023
9.5598 23.189
9.5750 23.136
9.5901 23.107
9.6053 23.524
9.6205 23.874
9.6357 23.922
9.6508 23.409
9.6660 23.320
9.6812 23.648
9.6964 23.782
9.7115 23.863
9.7267 23.489
9.7419 23.649
9.7571 23.848
9.7722 23.598
9.7874 23.827
9.8026 23.826
9.8178 23.490
9.8329 23.270
9.8481 23.031
9.8633 22.976
9.8785 23.089
9.8936 23.098
9.9088 23.023
9.9240 22.822
9.9392 23.074
9.9543 23.350
9.9695 23.430
9.9847 23.179
9.9999 22.980
10.0150 22.961
10.0302 23.128
10.0454 23.255
10.0606 23.202
10.0757 23.182
10.0909 23.495
10.1061 23.322
10.1213 23.296
10.1364 23.519
10.1516 23.265
10.1668 23.029
10.1820 23.352
10.1971 23.252
10.2123 23.398
10.2275 23.536
10.2427 22.966
10.2578 22.643
10.2730 22.640
10.2882 22.915
10.3034 22.698
10.3185 22.758
10.3337 22.936
10.3489 22.812
10.3641 22.852
10.3792 22.795
10.3944 22.619
10.4096 22.636
10.4248 22.578
10.4399 22.506
10.4551 22.564
10.4703 22.327
10.4855 22.632
10.5006 22.651
10.5158 22.444
10.5310 22.676
10.5462 22.753
10.5613 22.545
10.5765 22.117
10.5917 22.130
10.6069 22.470
10.6220 22.267
10.6372 22.467
10.6524 22.474
10.6676 22.645
10.6827 22.097
10.6979 22.200
10.7131 22.680
10.7283 22.649
10.7434 22.637
10.7586 22.545
10.7738 22.561
10.7890 22.228
10.8041 22.360
10.8193 22.187
10.8345 21.999
10.8497 22.032
10.8648 22.105
10.8800 22.088
10.8952 22.357
10.9104 22.262
10.9255 21.953
10.9407 21.967
10.9559 21.952
10.9711 21.956
10.9862 22.213
11.0014 21.756
11.0166 21.644
11.0318 21.863
11.0469 22.070
11.0621 21.900
11.0773 22.150
11.0925 21.860
11.1076 21.528
11.1228 21.695
11.1380 21.899
11.1532 21.948
11.1683 21.542
11.1835 21.644
11.1987 21.686
11.2139 21.352
11.2290 21.507
11.2442 21.287
11.2594 21.528
11.2746 21.596
11.2897 21.622
11.3049 20.857
11.3201 21.239
11.3353 21.544
11.3504 21.801
11.3656 21.641
11.3808 21.334
11.3960 21.575
11.4111 21.447
11.4263 21.322
11.4415 21.239
11.4567 21.278
11.4718 21.132
11.4870 20.780
11.5022 20.852
11.5174 21.243
11.5325 20.904
11.5477 20.505
11.5629 20.669
11.5781 20.599
11.5932 20.555
11.6084 20.663
11.6236 20.268
11.6388 20.517
11.6539 20.653
11.6691 20.658
11.6843 20.723
11.6995 20.483
11.7146 20.188
11.7298 20.349
11.7450 20.428
11.7602 20.053
11.7753 20.152
11.7905 20.194
11.8057 20.043
11.8209 20.370
11.8360 19.957
11.8512 19.980
11.8664 19.733
11.8816 19.668
11.8967 19.285
11.9119 19.389
11.9271 19.620
11.9423 19.463
11.9574 19.319
11.9726 19.470
11.9878 19.344
12.0030 19.248
12.0181 19.048
12.0333 19.021
12.0485 18.958
12.0637 18.768
12.0788 18.833
12.0940 18.905
12.1092 18.667
12.1244 18.732
12.1395 18.729
12.1547 18.201
12.1699 18.132
12.1851 18.298
12.2002 18.485
12.2154 18.297
12.2306 18.037
12.2458 17.798
12.2609 17.859
12.2761 17.713
12.2913 17.635
12.3065 17.952
12.3216 17.660
12.3368 17.528
12.3520 17.490
12.3672 17.304
12.3823 17.143
12.3975 17.226
12.4127 17.137
12.4279 17.065
12.4430 17.052
12.4582 16.978
12.4734 16.920
12.4886 16.889
12.5037 16.936
12.5189 16.644
12.5341 16.291
12.5493 16.326
12.5644 16.421
12.5796 16.195
12.5948 16.126
12.6100 16.245
12.6251 16.021
12.6403 15.974
12.6555 15.738
12.6707 15.662
12.6858 15.641
12.7010 15.719
12.7162 15.769
12.7314 15.405
12.7465 15.285
12.7617 15.664
12.7769 15.381
12.7921 15.131
12.8072 15.290
12.8224 15.376
12.8376 15.276
12.8528 15.040
12.8679 14.772
12.8831 14.685
12.8983 14.555
12.9135 14.485
12.9286 14.322
12.9438 14.568
12.9590 14.520
12.9742 14.292
12.9893 14.531
13.0045 14.433
13.0197 14.021
13.0349 13.922
13.0500 14.166
13.0652 14.252
13.0804 14.116
13.0956 13.892
13.1107 13.570
13.1259 13.619
13.1411 13.692
13.1563 13.474
13.1714 13.617
13.1866 13.877
13.2018 13.694
13.2170 13.253
13.2321 13.227
13.2473 13.363
13.2625 13.313
13.2777 13.326
13.2928 13.171
13.3080 13.033
13.3232 13.010
13.3384 12.942
13.3535 12.926
13.3687 13.031
13.3839 13.144
13.3991 13.031
13.4142 12.870
13.4294 12.731
13.4446 12.819
13.4598 12.733
13.4749 12.513
13.4901 12.541
13.5053 12.491
13.5205 12.601
13.5356 12.572
13.5508 12.498
13.5660 12.306
13.5812 12.169
13.5963 12.139
13.6115 11.871
13.6267 11.941
13.6419 12.115
13.6570 12.314
13.6722 12.287
13.6874 12.074
13.7026 12.037
13.7177 11.960
13.7329 12.176
13.7481 12.014
13.7633 11.919
13.7784 12.113
13.7936 12.154
13.8088 11.879
13.8239 12.064
13.8391 12.292
13.8543 12.236
13.8695 12.325
13.8846 12.154
13.8998 12.190
13.9150 12.285
13.9302 12.100
13.9453 11.863
13.9605 11.750
13.9757 11.574
13.9909 11.684
14.0060 11.805
14.0212 11.841
14.0364 11.508
14.0516 11.480
14.0667 11.586
14.0819 11.722
14.0971 11.595
14.1123 11.373
14.1274 11.426
14.1426 11.269
14.1578 11.274
14.1730 11.369
14.1881 11.222
14.2033 11.229
14.2185 11.469
14.2337 11.463
14.2488 11.591
14.2640 11.703
14.2792 11.846
14.2944 11.712
14.3095 11.851
14.3247 12.136
14.3399 12.154
14.3551 12.512
14.3702 12.555
14.3854 12.806
14.4006 13.343
14.4158 13.358
14.4309 13.045
14.4461 13.191
14.4613 12.850
14.4765 12.816
14.4916 12.562
14.5068 12.363
14.5220 12.016
14.5372 11.681
14.5523 11.458
14.5675 11.098
14.5827 11.211
14.5979 10.932
14.6130 11.180
14.6282 11.026
14.6434 11.027
14.6586 10.801
14.6737 10.814
14.6889 10.880
14.7041 10.857
14.7193 10.741
14.7344 10.886
14.7496 10.559
14.7648 10.809
14.7800 10.845
14.7951 10.659
14.8103 10.638
14.8255 10.661
14.8407 10.499
14.8558 10.736
14.8710 10.763
14.8862 10.590
14.9014 10.678
14.9165 10.659
14.9317 10.667
14.9469 10.713
14.9621 10.413
14.9772 10.179
14.9924 10.251
15.0076 10.312
15.0228 10.331
15.0379 9.901
15.0531 10.451
15.0683 10.278
15.0835 10.304
15.0986 10.244
15.1138 10.170
15.1290 10.256
15.1442 10.297
15.1593 10.474
15.1745 10.063
15.1897 10.067
15.2049 9.955
15.2200 10.136
15.2352 10.213
15.2504 10.282
15.2656 10.205
15.2807 9.901
15.2959 10.320
15.3111 9.877
15.3263 10.104
15.3414 10.132
15.3566 10.135
15.3718 9.903
15.3870 10.038
15.4021 10.138
15.4173 10.271
15.4325 10.096
15.4477 10.098
15.4628 10.140
15.4780 10.033
15.4932 9.853
15.5084 10.020
15.5235 9.729
15.5387 9.885
15.5539 9.875
15.5691 9.868
15.5842 9.933
15.5994 10.020
15.6146 9.836
15.6298 9.963
15.6449 9.665
15.6601 9.858
15.6753 9.843
15.6905 9.846
15.7056 9.777
15.7208 9.436
15.7360 9.605
15.7512 9.801
15.7663 9.740
15.7815 9.735
15.7967 9.577
15.8119 9.897
15.8270 9.537
15.8422 9.656
15.8574 9.622
15.8726 9.635
15.8877 9.410
15.9029 9.299
15.9181 9.606
15.9333 9.858
15.9484 9.645
15.9636 9.506
15.9788 9.847
15.9940 9.822
16.0091 9.561
16.0243 9.683
16.0395 9.807
16.0547 9.495
16.0698 9.676
16.0850 9.625
16.1002 9.801
16.1154 9.733
16.1305 9.538
16.1457 9.496
16.1609 9.512
16.1761 9.536
16.1912 9.733
16.2064 9.752
16.2216 9.941
16.2368 9.913
16.2519 9.917
16.2671 9.934
16.2823 9.841
16.2975 9.878
16.3126 9.857
16.3278 9.754
16.3430 9.775
16.3582 9.714
16.3733 9.822
16.3885 9.832
16.4037 10.053
16.4189 9.901
16.4340 9.500
16.4492 9.559
16.4644 9.530
16.4796 9.501
16.4947 9.716
16.5099 9.557
16.5251 9.631
16.5403 9.652
16.5554 9.398
16.5706 9.478
16.5858 9.710
16.6010 9.677
16.6161 9.531
16.6313 9.598
16.6465 9.665
16.6617 9.526
16.6768 9.716
16.6920 9.764
16.7072 9.843
16.7224 9.970
16.7375 9.957
16.7527 10.046
16.7679 10.034
16.7831 9.719
16.7982 9.773
16.8134 9.849
16.8286 10.168
16.8438 10.098
16.8589 9.539
16.8741 9.705
16.8893 9.791
16.9045 9.583
16.9196 9.616
16.9348 9.645
16.9500 9.724
16.9652 9.943
16.9803 10.057
16.9955 10.096
17.0107 10.075
17.0259 9.775
17.0410 9.887
17.0562 10.070
17.0714 10.035
17.0866 10.263
17.1017 10.437
17.1169 10.450
17.1321 10.664
17.1473 11.164
17.1624 11.493
17.1776 12.113
17.1928 12.981
17.2080 13.738
17.2231 14.698
17.2383 15.825
17.2535 17.584
17.2687 18.439
17.2838 18.369
17.2990 17.753
17.3142 16.754
17.3294 16.113
17.3445 15.946
17.3597 15.772
17.3749 15.446
17.3901 15.088
17.4052 14.221
17.4204 13.228
17.4356 12.560
17.4508 11.959
17.4659 11.500
17.4811 11.438
17.4963 11.194
17.5115 10.907
17.5266 10.715
17.5418 10.623
17.5570 10.603
17.5722 10.635
17.5873 10.526
17.6025 10.595
17.6177 10.829
17.6329 11.033
17.6480 11.101
17.6632 11.218
17.6784 11.516
17.6936 11.668
17.7087 11.898
17.7239 11.878
17.7391 11.672
17.7543 11.330
17.7694 11.197
17.7846 11.101
17.7998 11.169
17.8150 11.149
17.8301 11.103
17.8453 10.966
17.8605 10.543
17.8757 10.441
17.8908 10.349
17.9060 10.286
17.9212 10.390
17.9364 10.321
17.9515 10.132
17.9667 10.002
17.9819 10.041
17.9971 10.079
18.0122 10.250
18.0274 10.293
18.0426 10.255
18.0578 10.281
18.0729 10.085
18.0881 10.058
18.1033 10.145
18.1185 10.207
18.1336 10.019
18.1488 9.902
18.1640 9.814
18.1792 9.833
18.1943 9.911
18.2095 9.943
18.2247 9.902
18.2399 10.063
18.2550 10.015
18.2702 9.740
18.2854 9.859
18.3006 9.781
18.3157 9.870
18.3309 9.981
18.3461 9.998
18.3613 9.972
18.3764 9.805
18.3916 9.895
18.4068 9.823
18.4220 9.771
18.4371 9.833
18.4523 9.658
18.4675 9.794
18.4827 9.886
18.4978 9.923
18.5130 9.802
18.5282 9.727
18.5434 9.685
18.5585 9.647
18.5737 9.604
18.5889 9.709
18.6041 9.462
18.6192 9.625
18.6344 9.893
18.6496 9.906
18.6648 9.829
18.6799 9.527
18.6951 9.698
18.7103 9.902
18.7255 9.667
18.7406 9.632
18.7558 9.974
18.7710 10.089
18.7862 9.998
18.8013 9.843
18.8165 9.761
18.8317 10.065
18.8469 9.812
18.8620 9.712
18.8772 9.889
18.8924 9.791
18.9076 9.887
18.9227 9.863
18.9379 9.886
18.9531 10.101
18.9683 9.935
18.9834 9.862
18.9986 10.056
19.0138 9.851
19.0290 9.923
19.0441 10.187
19.0593 10.093
19.0745 10.162
19.0897 10.284
19.1048 10.252
19.1200 10.316
19.1352 10.368
19.1504 10.317
19.1655 10.222
19.1807 10.387
19.1959 10.695
19.2111 10.643
19.2262 10.471
19.2414 10.638
19.2566 10.717
19.2718 10.556
19.2869 10.580
19.3021 10.952
19.3173 10.980
19.3325 11.069
19.3476 11.100
19.3628 11.053
19.3780 11.063
19.3932 11.189
19.4083 11.222
19.4235 11.060
19.4387 11.184
19.4539 11.245
19.4690 11.317
19.4842 11.595
19.4994 11.377
19.5146 11.185
19.5297 11.359
19.5449 11.346
19.5601 11.492
19.5753 11.508
19.5904 11.615
19.6056 11.697
19.6208 11.624
19.6360 11.543
19.6511 11.547
19.6663 11.602
19.6815 11.491
19.6967 11.264
19.7118 11.543
19.7270 11.915
19.7422 11.750
19.7574 11.602
19.7725 11.558
19.7877 11.759
19.8029 11.810
19.8180 11.839
19.8332 11.997
19.8484 12.025
19.8636 12.141
19.8787 12.326
19.8939 12.544
19.9091 13.055
19.9243 13.313
19.9394 13.645
19.9546 13.959
19.9698 14.058
19.9850 14.143
20.0001 14.188
20.0153 14.202
20.0305 13.999
20.0457 13.776
20.0608 13.637
20.0760 13.393
20.0912 13.301
20.1064 13.554
20.1215 13.136
20.1367 12.819
20.1519 12.701
20.1671 12.573
20.1822 12.644
20.1974 12.510
20.2126 12.449
20.2278 12.612
20.2429 12.416
20.2581 12.423
20.2733 12.057
20.2885 11.935
20.3036 12.013
20.3188 11.735
20.3340 11.555
20.3492 11.585
20.3643 11.617
20.3795 11.796
20.3947 11.956
20.4099 11.692
20.4250 11.680
20.4402 11.873
20.4554 12.121
20.4706 11.911
20.4857 12.051
20.5009 12.006
20.5161 11.802
20.5313 11.582
20.5464 11.519
20.5616 11.407
20.5768 11.605
20.5920 11.424
20.6071 11.238
20.6223 11.432
20.6375 10.975
20.6527 10.921
20.6678 11.025
20.6830 10.607
20.6982 10.671
20.7134 10.559
20.7285 10.591
20.7437 10.431
20.7589 10.212
20.7741 10.284
20.7892 10.435
20.8044 10.386
20.8196 10.208
20.8348 10.174
20.8499 10.130
20.8651 10.057
20.8803 9.885
20.8955 10.076
20.9106 9.907
20.9258 10.124
20.9410 10.224
20.9562 10.182
20.9713 10.223
20.9865 9.776
21.0017 9.988
21.0169 10.000
21.0320 10.209
21.0472 10.258
21.0624 9.861
21.0776 10.020
21.0927 9.878
21.1079 9.620
21.1231 9.716
21.1383 9.635
21.1534 9.812
21.1686 9.879
21.1838 9.653
21.1990 9.843
21.2141 9.746
21.2293 9.793
21.2445 9.479
21.2597 9.555
21.2748 9.561
21.2900 9.781
21.3052 9.347
21.3204 9.416
21.3355 9.640
21.3507 9.723
21.3659 9.433
21.3811 9.107
21.3962 9.516
21.4114 9.516
21.4266 9.335
21.4418 9.290
21.4569 9.410
21.4721 9.577
21.4873 9.525
21.5025 9.326
21.5176 9.343
21.5328 9.164
21.5480 8.826
21.5632 9.073
21.5783 9.307
21.5935 9.289
21.6087 9.293
21.6239 9.256
21.6390 9.295
21.6542 9.262
21.6694 9.172
21.6846 8.872
21.6997 8.831
21.7149 9.079
21.7301 8.935
21.7453 9.022
21.7604 9.068
21.7756 9.072
21.7908 9.141
21.8060 9.058
21.8211 8.992
21.8363 9.050
21.8515 9.001
21.8667 9.042
21.8818 9.073
21.8970 8.903
21.9122 8.911
21.9274 8.866
21.9425 8.751
21.9577 8.731
21.9729 8.891
21.9881 8.880
22.0032 8.946
22.0184 8.980
22.0336 8.755
22.0488 8.739
22.0639 8.762
22.0791 8.707
22.0943 8.535
22.1095 8.495
22.1246 8.706
22.1398 8.520
22.1550 8.689
22.1702 8.882
22.1853 8.644
22.2005 8.376
22.2157 8.312
22.2309 8.357
22.2460 8.582
22.2612 8.385
22.2764 8.110
22.2916 8.428
22.3067 8.251
22.3219 8.361
22.3371 8.351
22.3523 8.568
22.3674 8.163
22.3826 8.321
22.3978 8.539
22.4130 8.431
22.4281 8.225
22.4433 8.311
22.4585 8.283
22.4737 8.363
22.4888 8.295
22.5040 8.600
22.5192 8.399
22.5344 8.245
22.5495 8.465
22.5647 8.177
22.5799 8.051
22.5951 8.300
22.6102 8.244
22.6254 8.115
22.6406 8.256
22.6558 8.482
22.6709 8.154
22.6861 8.493
22.7013 8.347
22.7165 8.082
22.7316 6.372
