'Id: "" Comment: "" Operator: "Lab Manager" Anode: "Mo" Scantype: "Still (Eiger2R_500K (1D mode))" TimePerStep: "300" X: "11.8" Y: "9.4" Z: "11.284" 
7.2532 19.150
7.2684 19.049
7.2836 18.838
7.2987 19.068
7.3139 19.130
7.3291 19.502
7.3443 19.748
7.3594 19.970
7.3746 19.975
7.3898 19.765
7.4050 19.923
7.4201 20.083
7.4353 19.482
7.4505 19.730
7.4657 19.826
7.4808 19.536
7.4960 19.895
7.5112 20.088
7.5264 20.037
7.5415 20.191
7.5567 19.863
7.5719 19.996
7.5871 20.077
7.6022 20.037
7.6174 19.978
7.6326 19.928
7.6478 20.484
7.6629 20.509
7.6781 20.072
7.6933 20.103
7.7085 20.221
7.7236 20.602
7.7388 20.735
7.7540 20.709
7.7692 20.536
7.7843 20.763
7.7995 20.567
7.8147 20.696
7.8299 20.844
7.8450 21.046
7.8602 21.069
7.8754 21.074
7.8905 20.962
7.9057 20.750
7.9209 21.044
7.9361 21.106
7.9512 21.247
7.9664 21.460
7.9816 21.118
7.9968 20.944
8.0119 21.055
8.0271 21.255
8.0423 21.384
8.0575 21.238
8.0726 21.451
8.0878 21.740
8.1030 21.448
8.1182 21.761
8.1333 21.757
8.1485 21.274
8.1637 21.640
8.1789 21.877
8.1940 22.052
8.2092 22.300
8.2244 22.265
8.2396 21.692
8.2547 21.786
8.2699 21.897
8.2851 21.679
8.3003 22.223
8.3154 22.314
8.3306 22.415
8.3458 21.975
8.3610 21.714
8.3761 21.745
8.3913 21.954
8.4065 22.019
8.4217 21.898
8.4368 21.941
8.4520 22.511
8.4672 22.031
8.4824 22.242
8.4975 21.521
8.5127 22.225
8.5279 22.355
8.5431 22.300
8.5582 22.335
8.5734 22.548
8.5886 22.114
8.6038 22.552
8.6189 22.713
8.6341 22.593
8.6493 22.543
8.6645 22.065
8.6796 22.518
8.6948 22.948
8.7100 22.537
8.7252 22.896
8.7403 22.604
8.7555 22.864
8.7707 22.629
8.7859 22.611
8.8010 22.720
8.8162 22.694
8.8314 22.765
8.8466 22.975
8.8617 22.858
8.8769 22.320
8.8921 23.025
8.9073 22.757
8.9224 22.882
8.9376 22.819
8.9528 22.600
8.9680 23.117
8.9831 23.118
8.9983 22.829
9.0135 22.369
9.0287 22.394
9.0438 22.690
9.0590 22.414
9.0742 22.938
9.0894 22.900
9.1045 22.908
9.1197 22.698
9.1349 23.051
9.1501 23.659
9.1652 23.640
9.1804 23.574
9.1956 23.460
9.2108 23.088
9.2259 23.196
9.2411 23.440
9.2563 23.075
9.2715 22.698
9.2866 23.237
9.3018 23.462
9.3170 23.359
9.3322 23.176
9.3473 23.132
9.3625 23.108
9.3777 23.305
9.3929 23.250
9.4080 22.981
9.4232 23.208
9.4384 23.543
9.4536 23.458
9.4687 23.442
9.4839 23.544
9.4991 23.205
9.5143 23.166
9.5294 23.161
9.5446 23.249
9.5598 23.408
9.5750 23.675
9.5901 23.428
9.6053 23.486
9.6205 23.677
9.6357 23.354
9.6508 23.263
9.6660 23.797
9.6812 23.984
9.6964 23.956
9.7115 24.131
9.7267 24.402
9.7419 24.647
9.7571 24.606
9.7722 24.225
9.7874 24.164
9.8026 24.285
9.8178 24.463
9.8329 24.214
9.8481 23.760
9.8633 23.964
9.8785 24.317
9.8936 24.532
9.9088 24.615
9.9240 24.384
9.9392 24.088
9.9543 24.454
9.9695 24.601
9.9847 24.392
9.9999 23.812
10.0150 23.878
10.0302 24.063
10.0454 23.754
10.0606 23.378
10.0757 23.469
10.0909 23.671
10.1061 24.086
10.1213 23.841
10.1364 23.974
10.1516 24.199
10.1668 23.990
10.1820 23.782
10.1971 23.822
10.2123 23.854
10.2275 24.069
10.2427 23.947
10.2578 23.698
10.2730 23.568
10.2882 23.354
10.3034 23.208
10.3185 23.265
10.3337 23.307
10.3489 23.479
10.3641 23.411
10.3792 23.374
10.3944 23.531
10.4096 23.258
10.4248 23.256
10.4399 23.246
10.4551 23.042
10.4703 23.292
10.4855 23.278
10.5006 22.891
10.5158 22.772
10.5310 22.963
10.5462 23.312
10.5613 23.466
10.5765 23.222
10.5917 22.885
10.6069 22.724
10.6220 23.014
10.6372 22.931
10.6524 22.716
10.6676 22.865
10.6827 22.994
10.6979 22.534
10.7131 22.407
10.7283 22.579
10.7434 22.552
10.7586 22.539
10.7738 22.499
10.7890 22.690
10.8041 22.569
10.8193 22.508
10.8345 22.395
10.8497 22.454
10.8648 22.704
10.8800 22.552
10.8952 22.214
10.9104 22.358
10.9255 22.214
10.9407 22.349
10.9559 22.343
10.9711 22.037
10.9862 22.173
11.0014 22.380
11.0166 21.990
11.0318 21.881
11.0469 21.647
11.0621 21.596
11.0773 21.836
11.0925 22.176
11.1076 21.750
11.1228 21.875
11.1380 22.213
11.1532 21.699
11.1683 21.948
11.1835 21.627
11.1987 21.749
11.2139 21.870
11.2290 21.725
11.2442 21.615
11.2594 21.758
11.2746 21.397
11.2897 21.543
11.3049 21.664
11.3201 21.743
11.3353 21.841
11.3504 21.701
11.3656 21.905
11.3808 22.016
11.3960 21.450
11.4111 21.523
11.4263 21.468
11.4415 21.410
11.4567 21.417
11.4718 21.354
11.4870 21.582
11.5022 21.257
11.5174 21.326
11.5325 21.170
11.5477 21.521
11.5629 21.613
11.5781 21.543
11.5932 21.508
11.6084 21.144
11.6236 20.906
11.6388 20.593
11.6539 20.536
11.6691 20.827
11.6843 20.675
11.6995 20.832
11.7146 20.441
11.7298 20.326
11.7450 20.423
11.7602 20.359
11.7753 20.574
11.7905 20.251
11.8057 20.021
11.8209 19.981
11.8360 19.890
11.8512 19.572
11.8664 19.910
11.8816 20.088
11.8967 19.709
11.9119 19.904
11.9271 19.617
11.9423 19.444
11.9574 19.782
11.9726 19.881
11.9878 19.448
12.0030 19.075
12.0181 19.262
12.0333 19.323
12.0485 19.364
12.0637 19.228
12.0788 18.577
12.0940 18.362
12.1092 18.718
12.1244 18.646
12.1395 18.511
12.1547 18.527
12.1699 18.525
12.1851 18.447
12.2002 18.213
12.2154 18.184
12.2306 18.472
12.2458 18.313
12.2609 17.897
12.2761 17.718
12.2913 17.869
12.3065 17.934
12.3216 17.577
12.3368 17.279
12.3520 17.418
12.3672 17.352
12.3823 17.260
12.3975 17.527
12.4127 17.318
12.4279 17.094
12.4430 17.024
12.4582 17.262
12.4734 16.930
12.4886 16.632
12.5037 16.449
12.5189 16.447
12.5341 16.740
12.5493 16.606
12.5644 16.288
12.5796 16.435
12.5948 16.599
12.6100 16.264
12.6251 16.031
12.6403 16.178
12.6555 16.073
12.6707 16.010
12.6858 15.977
12.7010 15.558
12.7162 15.449
12.7314 15.479
12.7465 15.381
12.7617 15.424
12.7769 15.341
12.7921 15.229
12.8072 15.150
12.8224 15.066
12.8376 15.092
12.8528 14.852
12.8679 14.400
12.8831 14.597
12.8983 14.743
12.9135 14.462
12.9286 14.343
12.9438 14.458
12.9590 14.486
12.9742 14.555
12.9893 14.463
13.0045 14.319
13.0197 14.162
13.0349 14.207
13.0500 14.230
13.0652 14.099
13.0804 14.064
13.0956 13.968
13.1107 13.944
13.1259 13.527
13.1411 13.168
13.1563 13.287
13.1714 13.425
13.1866 13.495
13.2018 13.503
13.2170 13.503
13.2321 13.362
13.2473 13.409
13.2625 13.621
13.2777 13.454
13.2928 13.202
13.3080 13.097
13.3232 13.109
13.3384 13.168
13.3535 13.183
13.3687 13.216
13.3839 13.208
13.3991 13.196
13.4142 13.124
13.4294 13.010
13.4446 13.086
13.4598 13.028
13.4749 12.726
13.4901 12.724
13.5053 12.578
13.5205 12.551
13.5356 12.396
13.5508 12.301
13.5660 12.467
13.5812 12.319
13.5963 12.259
13.6115 12.505
13.6267 12.461
13.6419 12.315
13.6570 12.059
13.6722 11.937
13.6874 11.968
13.7026 11.960
13.7177 11.822
13.7329 12.105
13.7481 12.066
13.7633 11.869
13.7784 11.995
13.7936 11.935
13.8088 11.869
13.8239 11.905
13.8391 12.146
13.8543 12.215
13.8695 12.184
13.8846 12.253
13.8998 12.521
13.9150 12.157
13.9302 11.842
13.9453 11.822
13.9605 11.602
13.9757 11.835
13.9909 11.824
14.0060 11.795
14.0212 11.722
14.0364 11.607
14.0516 11.470
14.0667 11.452
14.0819 11.357
14.0971 11.358
14.1123 11.564
14.1274 11.297
14.1426 11.286
14.1578 11.518
14.1730 11.433
14.1881 11.457
14.2033 11.318
14.2185 11.420
14.2337 11.457
14.2488 11.424
14.2640 11.455
14.2792 11.579
14.2944 11.634
14.3095 11.682
14.3247 11.741
14.3399 11.993
14.3551 12.342
14.3702 12.691
14.3854 13.160
14.4006 13.409
14.4158 13.806
14.4309 14.243
14.4461 14.555
14.4613 14.577
14.4765 14.502
14.4916 14.023
14.5068 13.702
14.5220 13.845
14.5372 13.172
14.5523 13.061
14.5675 12.582
14.5827 12.209
14.5979 12.102
14.6130 11.389
14.6282 11.442
14.6434 11.379
14.6586 11.233
14.6737 11.380
14.6889 11.432
14.7041 11.432
14.7193 11.328
14.7344 11.355
14.7496 11.282
14.7648 11.165
14.7800 11.443
14.7951 11.505
14.8103 11.890
14.8255 11.276
14.8407 11.311
14.8558 10.938
14.8710 10.870
14.8862 11.208
14.9014 11.094
14.9165 11.297
14.9317 11.188
14.9469 10.443
14.9621 10.725
14.9772 10.774
14.9924 10.478
15.0076 10.881
15.0228 10.526
15.0379 10.638
15.0531 10.725
15.0683 10.700
15.0835 10.408
15.0986 10.541
15.1138 10.736
15.1290 10.358
15.1442 10.270
15.1593 10.270
15.1745 10.387
15.1897 10.346
15.2049 10.461
15.2200 10.539
15.2352 10.378
15.2504 10.793
15.2656 10.174
15.2807 10.293
15.2959 10.836
15.3111 10.420
15.3263 10.596
15.3414 10.933
15.3566 10.482
15.3718 10.149
15.3870 9.904
15.4021 10.345
15.4173 10.249
15.4325 10.747
15.4477 10.331
15.4628 10.071
15.4780 10.436
15.4932 10.578
15.5084 10.409
15.5235 10.249
15.5387 9.994
15.5539 10.517
15.5691 10.527
15.5842 10.658
15.5994 10.363
15.6146 10.325
15.6298 10.061
15.6449 10.207
15.6601 10.276
15.6753 10.058
15.6905 10.399
15.7056 10.373
15.7208 10.329
15.7360 9.868
15.7512 10.177
15.7663 9.799
15.7815 9.642
15.7967 9.940
15.8119 9.897
15.8270 10.224
15.8422 10.090
15.8574 9.943
15.8726 9.995
15.8877 9.803
15.9029 9.760
15.9181 9.928
15.9333 10.006
15.9484 9.728
15.9636 9.903
15.9788 9.766
15.9940 9.866
16.0091 9.898
16.0243 9.851
16.0395 9.821
16.0547 9.947
16.0698 9.734
16.0850 9.792
16.1002 9.862
16.1154 9.979
16.1305 9.828
16.1457 9.912
16.1609 9.885
16.1761 9.702
16.1912 10.000
16.2064 9.981
16.2216 10.162
16.2368 9.769
16.2519 9.783
16.2671 10.098
16.2823 10.374
16.2975 10.303
16.3126 10.148
16.3278 10.181
16.3430 9.905
16.3582 10.087
16.3733 10.263
16.3885 10.159
16.4037 10.222
16.4189 10.020
16.4340 10.092
16.4492 10.014
16.4644 10.109
16.4796 10.233
16.4947 10.098
16.5099 9.729
16.5251 9.860
16.5403 9.952
16.5554 9.876
16.5706 9.911
16.5858 9.754
16.6010 9.784
16.6161 9.876
16.6313 9.696
16.6465 9.865
16.6617 10.012
16.6768 10.085
16.6920 10.068
16.7072 10.147
16.7224 10.075
16.7375 10.054
16.7527 10.150
16.7679 10.041
16.7831 10.101
16.7982 10.309
16.8134 10.280
16.8286 10.143
16.8438 10.082
16.8589 9.746
16.8741 9.746
16.8893 9.641
16.9045 9.832
16.9196 9.847
16.9348 9.719
16.9500 9.814
16.9652 10.021
16.9803 10.096
16.9955 9.902
17.0107 10.007
17.0259 10.016
17.0410 10.091
17.0562 10.311
17.0714 10.276
17.0866 10.459
17.1017 10.831
17.1169 10.957
17.1321 11.076
17.1473 11.309
17.1624 11.701
17.1776 12.343
17.1928 12.971
17.2080 13.795
17.2231 14.820
17.2383 16.177
17.2535 17.796
17.2687 18.632
17.2838 18.674
17.2990 18.301
17.3142 17.274
17.3294 16.251
17.3445 15.865
17.3597 15.945
17.3749 16.102
17.3901 15.477
17.4052 14.423
17.4204 13.351
17.4356 12.459
17.4508 11.948
17.4659 11.611
17.4811 11.357
17.4963 11.253
17.5115 11.133
17.5266 10.828
17.5418 10.757
17.5570 10.540
17.5722 10.373
17.5873 10.498
17.6025 10.513
17.6177 10.367
17.6329 10.427
17.6480 10.694
17.6632 10.837
17.6784 10.932
17.6936 11.360
17.7087 11.519
17.7239 11.422
17.7391 11.566
17.7543 11.798
17.7694 12.118
17.7846 12.216
17.7998 12.411
17.8150 12.667
17.8301 12.751
17.8453 12.819
17.8605 12.805
17.8757 12.667
17.8908 12.538
17.9060 12.173
17.9212 11.862
17.9364 11.696
17.9515 11.316
17.9667 11.288
17.9819 11.301
17.9971 10.999
18.0122 10.989
18.0274 10.871
18.0426 10.632
18.0578 10.380
18.0729 10.244
18.0881 10.382
18.1033 10.574
18.1185 10.251
18.1336 10.116
18.1488 10.137
18.1640 10.079
18.1792 10.091
18.1943 9.926
18.2095 10.032
18.2247 10.254
18.2399 10.287
18.2550 10.230
18.2702 10.123
18.2854 10.179
18.3006 10.087
18.3157 9.883
18.3309 9.993
18.3461 10.227
18.3613 10.151
18.3764 9.838
18.3916 10.010
18.4068 10.052
18.4220 10.064
18.4371 10.101
18.4523 10.080
18.4675 9.964
18.4827 9.870
18.4978 9.955
18.5130 10.069
18.5282 10.065
18.5434 10.065
18.5585 9.936
18.5737 9.966
18.5889 10.121
18.6041 10.078
18.6192 9.982
18.6344 10.040
18.6496 9.905
18.6648 9.722
18.6799 9.658
18.6951 9.781
18.7103 9.866
18.7255 9.695
18.7406 9.712
18.7558 9.838
18.7710 9.844
18.7862 9.954
18.8013 9.843
18.8165 9.845
18.8317 9.857
18.8469 9.726
18.8620 9.884
18.8772 9.950
18.8924 9.803
18.9076 9.903
18.9227 9.994
18.9379 10.143
18.9531 10.021
18.9683 10.053
18.9834 10.124
18.9986 10.026
19.0138 10.068
19.0290 10.099
19.0441 10.107
19.0593 10.164
19.0745 10.435
19.0897 10.410
19.1048 10.468
19.1200 10.546
19.1352 10.767
19.1504 10.790
19.1655 10.681
19.1807 10.857
19.1959 10.720
19.2111 10.823
19.2262 10.937
19.2414 10.933
19.2566 11.040
19.2718 11.086
19.2869 10.994
19.3021 10.868
19.3173 11.018
19.3325 11.137
19.3476 11.082
19.3628 11.306
19.3780 11.227
19.3932 11.149
19.4083 11.383
19.4235 11.521
19.4387 11.456
19.4539 11.265
19.4690 11.484
19.4842 11.620
19.4994 11.487
19.5146 11.542
19.5297 11.556
19.5449 11.479
19.5601 11.640
19.5753 11.763
19.5904 11.860
19.6056 11.741
19.6208 11.485
19.6360 11.541
19.6511 11.707
19.6663 11.707
19.6815 11.837
19.6967 11.833
19.7118 11.881
19.7270 11.867
19.7422 11.698
19.7574 11.831
19.7725 11.855
19.7877 11.889
19.8029 11.933
19.8180 11.944
19.8332 11.956
19.8484 12.146
19.8636 12.571
19.8787 12.826
19.8939 12.832
19.9091 13.056
19.9243 13.614
19.9394 13.845
19.9546 14.240
19.9698 14.557
19.9850 14.576
20.0001 14.532
20.0153 14.367
20.0305 14.229
20.0457 14.101
20.0608 13.645
20.0760 13.644
20.0912 13.757
20.1064 13.658
20.1215 13.681
20.1367 13.472
20.1519 12.964
20.1671 12.661
20.1822 12.750
20.1974 12.662
20.2126 12.644
20.2278 12.637
20.2429 12.665
20.2581 12.588
20.2733 12.225
20.2885 11.977
20.3036 11.700
20.3188 11.453
20.3340 11.572
20.3492 11.573
20.3643 11.515
20.3795 11.219
20.3947 11.021
20.4099 11.121
20.4250 11.318
20.4402 11.412
20.4554 11.389
20.4706 11.462
20.4857 11.527
20.5009 11.470
20.5161 11.536
20.5313 11.441
20.5464 11.412
20.5616 11.372
20.5768 11.512
20.5920 11.544
20.6071 11.560
20.6223 11.371
20.6375 11.217
20.6527 11.042
20.6678 10.970
20.6830 10.964
20.6982 10.978
20.7134 10.793
20.7285 10.771
20.7437 10.957
20.7589 10.649
20.7741 10.595
20.7892 10.586
20.8044 10.439
20.8196 10.438
20.8348 10.610
20.8499 10.678
20.8651 10.518
20.8803 10.676
20.8955 10.310
20.9106 10.053
20.9258 10.590
20.9410 10.811
20.9562 10.665
20.9713 10.434
20.9865 10.523
21.0017 10.660
21.0169 10.624
21.0320 10.537
21.0472 10.492
21.0624 10.476
21.0776 10.400
21.0927 10.245
21.1079 10.087
21.1231 10.468
21.1383 10.315
21.1534 9.998
21.1686 10.154
21.1838 10.067
21.1990 9.709
21.2141 9.875
21.2293 9.822
21.2445 9.934
21.2597 9.500
21.2748 9.585
21.2900 9.749
21.3052 9.649
21.3204 9.730
21.3355 9.592
21.3507 9.774
21.3659 10.055
21.3811 9.796
21.3962 9.467
21.4114 9.460
21.4266 9.632
21.4418 9.700
21.4569 9.635
21.4721 9.665
21.4873 9.335
21.5025 9.639
21.5176 9.309
21.5328 9.462
21.5480 9.198
21.5632 9.294
21.5783 9.387
21.5935 9.203
21.6087 8.973
21.6239 9.150
21.6390 9.030
21.6542 9.245
21.6694 9.115
21.6846 9.072
21.6997 9.015
21.7149 9.115
21.7301 9.102
21.7453 9.140
21.7604 9.077
21.7756 9.088
21.7908 9.180
21.8060 9.137
21.8211 8.839
21.8363 8.787
21.8515 8.863
21.8667 9.023
21.8818 9.205
21.8970 9.008
21.9122 8.869
21.9274 8.975
21.9425 8.865
21.9577 8.886
21.9729 8.910
21.9881 8.947
22.0032 8.995
22.0184 8.787
22.0336 8.632
22.0488 8.470
22.0639 8.557
22.0791 8.684
22.0943 8.748
22.1095 8.714
22.1246 8.759
22.1398 8.720
22.1550 8.626
22.1702 8.734
22.1853 8.598
22.2005 8.562
22.2157 8.606
22.2309 8.513
22.2460 8.603
22.2612 8.553
22.2764 8.438
22.2916 8.645
22.3067 8.816
22.3219 8.491
22.3371 8.486
22.3523 8.529
22.3674 8.448
22.3826 8.417
22.3978 8.571
22.4130 8.415
22.4281 8.505
22.4433 8.393
22.4585 8.617
22.4737 8.529
22.4888 8.215
22.5040 8.558
22.5192 8.742
22.5344 8.461
22.5495 8.659
22.5647 8.752
22.5799 8.460
22.5951 8.601
22.6102 8.341
22.6254 8.432
22.6406 8.550
22.6558 8.462
22.6709 8.280
22.6861 8.421
22.7013 8.715
22.7165 8.112
22.7316 6.510
