'Id: "" Comment: "" Operator: "Lab Manager" Anode: "Mo" Scantype: "Still (Eiger2R_500K (1D mode))" TimePerStep: "300" X: "11.8" Y: "9.4" Z: "11.284" 
7.2532 18.684
7.2684 18.506
7.2836 18.925
7.2987 18.992
7.3139 18.623
7.3291 18.904
7.3443 18.790
7.3594 19.123
7.3746 19.635
7.3898 19.630
7.4050 19.198
7.4201 19.384
7.4353 19.237
7.4505 19.513
7.4657 19.135
7.4808 19.205
7.4960 19.803
7.5112 19.956
7.5264 19.721
7.5415 20.025
7.5567 19.527
7.5719 19.799
7.5871 20.119
7.6022 19.871
7.6174 19.888
7.6326 20.299
7.6478 20.237
7.6629 20.348
7.6781 20.020
7.6933 20.018
7.7085 20.324
7.7236 20.286
7.7388 19.955
7.7540 20.156
7.7692 20.528
7.7843 20.580
7.7995 20.309
7.8147 20.271
7.8299 20.497
7.8450 20.547
7.8602 20.589
7.8754 20.827
7.8905 20.637
7.9057 20.474
7.9209 20.612
7.9361 20.809
7.9512 20.729
7.9664 20.729
7.9816 20.860
7.9968 20.993
8.0119 21.247
8.0271 21.106
8.0423 20.896
8.0575 21.164
8.0726 21.421
8.0878 21.176
8.1030 20.987
8.1182 21.201
8.1333 21.347
8.1485 21.016
8.1637 21.030
8.1789 21.006
8.1940 21.262
8.2092 21.214
8.2244 21.186
8.2396 21.400
8.2547 21.834
8.2699 21.426
8.2851 21.395
8.3003 21.732
8.3154 21.585
8.3306 21.971
8.3458 21.503
8.3610 21.702
8.3761 21.503
8.3913 21.525
8.4065 21.934
8.4217 21.566
8.4368 21.687
8.4520 21.633
8.4672 22.176
8.4824 22.033
8.4975 21.912
8.5127 21.795
8.5279 21.584
8.5431 22.038
8.5582 22.366
8.5734 21.864
8.5886 22.062
8.6038 21.624
8.6189 22.400
8.6341 22.125
8.6493 21.752
8.6645 22.216
8.6796 21.730
8.6948 22.005
8.7100 22.509
8.7252 22.120
8.7403 21.851
8.7555 21.530
8.7707 21.836
8.7859 22.455
8.8010 22.372
8.8162 22.504
8.8314 22.048
8.8466 22.420
8.8617 22.237
8.8769 22.504
8.8921 22.444
8.9073 22.509
8.9224 23.012
8.9376 22.548
8.9528 22.469
8.9680 22.583
8.9831 22.533
8.9983 22.925
9.0135 22.607
9.0287 22.703
9.0438 22.473
9.0590 22.691
9.0742 22.665
9.0894 22.699
9.1045 22.657
9.1197 22.824
9.1349 22.518
9.1501 22.372
9.1652 22.491
9.1804 22.604
9.1956 22.779
9.2108 23.012
9.2259 22.787
9.2411 22.764
9.2563 22.633
9.2715 22.975
9.2866 22.825
9.3018 23.100
9.3170 23.023
9.3322 23.067
9.3473 22.978
9.3625 23.107
9.3777 23.392
9.3929 23.293
9.4080 23.266
9.4232 23.221
9.4384 23.063
9.4536 23.038
9.4687 22.698
9.4839 22.554
9.4991 22.847
9.5143 22.999
9.5294 23.210
9.5446 23.122
9.5598 23.169
9.5750 23.267
9.5901 23.072
9.6053 23.201
9.6205 23.373
9.6357 23.360
9.6508 23.412
9.6660 23.392
9.6812 23.320
9.6964 23.631
9.7115 23.835
9.7267 23.769
9.7419 24.040
9.7571 24.150
9.7722 24.039
9.7874 23.899
9.8026 23.486
9.8178 23.191
9.8329 23.431
9.8481 23.424
9.8633 23.152
9.8785 22.982
9.8936 23.068
9.9088 23.436
9.9240 23.392
9.9392 23.119
9.9543 23.093
9.9695 23.059
9.9847 23.103
9.9999 23.533
10.0150 23.347
10.0302 23.198
10.0454 23.016
10.0606 22.979
10.0757 23.445
10.0909 23.469
10.1061 23.168
10.1213 23.203
10.1364 23.410
10.1516 23.138
10.1668 23.299
10.1820 23.405
10.1971 23.274
10.2123 23.174
10.2275 23.054
10.2427 22.952
10.2578 22.868
10.2730 22.950
10.2882 22.684
10.3034 22.477
10.3185 22.555
10.3337 22.847
10.3489 22.885
10.3641 22.862
10.3792 22.997
10.3944 22.703
10.4096 22.467
10.4248 22.730
10.4399 22.690
10.4551 22.954
10.4703 22.632
10.4855 22.467
10.5006 22.329
10.5158 22.321
10.5310 22.390
10.5462 22.355
10.5613 22.177
10.5765 22.574
10.5917 22.619
10.6069 22.627
10.6220 22.714
10.6372 22.631
10.6524 22.634
10.6676 22.411
10.6827 22.729
10.6979 22.603
10.7131 22.442
10.7283 22.373
10.7434 22.368
10.7586 22.687
10.7738 22.646
10.7890 22.413
10.8041 22.190
10.8193 22.586
10.8345 22.514
10.8497 22.041
10.8648 22.068
10.8800 22.035
10.8952 22.078
10.9104 21.807
10.9255 21.812
10.9407 22.409
10.9559 22.123
10.9711 21.811
10.9862 21.737
11.0014 22.168
11.0166 21.919
11.0318 22.148
11.0469 22.296
11.0621 21.989
11.0773 21.696
11.0925 21.450
11.1076 21.798
11.1228 21.809
11.1380 21.624
11.1532 21.436
11.1683 21.728
11.1835 21.493
11.1987 21.624
11.2139 21.677
11.2290 21.657
11.2442 21.641
11.2594 21.893
11.2746 21.891
11.2897 21.531
11.3049 21.420
11.3201 21.730
11.3353 21.312
11.3504 21.322
11.3656 21.420
11.3808 21.621
11.3960 21.083
11.4111 20.888
11.4263 21.193
11.4415 21.384
11.4567 21.195
11.4718 21.237
11.4870 21.129
11.5022 20.631
11.5174 20.911
11.5325 21.043
11.5477 20.871
11.5629 21.067
11.5781 21.180
11.5932 20.951
11.6084 20.516
11.6236 20.878
11.6388 20.973
11.6539 20.905
11.6691 20.771
11.6843 20.552
11.6995 20.552
11.7146 20.669
11.7298 20.625
11.7450 20.513
11.7602 20.446
11.7753 20.568
11.7905 20.339
11.8057 19.728
11.8209 19.320
11.8360 19.657
11.8512 19.979
11.8664 19.928
11.8816 19.906
11.8967 19.869
11.9119 19.724
11.9271 19.634
11.9423 19.357
11.9574 19.265
11.9726 19.469
11.9878 19.304
12.0030 19.344
12.0181 19.340
12.0333 19.191
12.0485 19.000
12.0637 19.022
12.0788 19.002
12.0940 18.629
12.1092 18.577
12.1244 18.496
12.1395 18.386
12.1547 18.533
12.1699 18.758
12.1851 18.706
12.2002 18.489
12.2154 18.254
12.2306 18.243
12.2458 18.077
12.2609 17.651
12.2761 17.651
12.2913 17.771
12.3065 17.628
12.3216 17.685
12.3368 17.456
12.3520 17.551
12.3672 17.478
12.3823 17.164
12.3975 17.159
12.4127 17.145
12.4279 17.398
12.4430 17.044
12.4582 16.985
12.4734 16.866
12.4886 16.657
12.5037 16.885
12.5189 16.691
12.5341 16.566
12.5493 16.406
12.5644 16.143
12.5796 16.208
12.5948 16.224
12.6100 16.297
12.6251 16.090
12.6403 15.648
12.6555 15.873
12.6707 15.885
12.6858 15.651
12.7010 15.619
12.7162 15.572
12.7314 15.675
12.7465 15.516
12.7617 15.352
12.7769 15.321
12.7921 15.526
12.8072 15.303
12.8224 14.854
12.8376 15.048
12.8528 15.242
12.8679 15.040
12.8831 14.590
12.8983 14.607
12.9135 14.657
12.9286 14.464
12.9438 14.488
12.9590 14.247
12.9742 14.318
12.9893 14.593
13.0045 14.258
13.0197 14.171
13.0349 14.014
13.0500 13.760
13.0652 13.918
13.0804 13.856
13.0956 13.977
13.1107 14.043
13.1259 13.834
13.1411 13.900
13.1563 13.658
13.1714 13.500
13.1866 13.578
13.2018 13.291
13.2170 13.253
13.2321 13.275
13.2473 13.038
13.2625 13.128
13.2777 13.293
13.2928 13.100
13.3080 13.028
13.3232 12.879
13.3384 13.016
13.3535 13.326
13.3687 12.837
13.3839 12.727
13.3991 13.002
13.4142 13.047
13.4294 12.922
13.4446 12.916
13.4598 12.911
13.4749 12.690
13.4901 12.429
13.5053 12.396
13.5205 12.444
13.5356 12.351
13.5508 12.564
13.5660 12.408
13.5812 12.327
13.5963 12.155
13.6115 11.982
13.6267 12.182
13.6419 12.233
13.6570 11.997
13.6722 12.013
13.6874 11.914
13.7026 11.870
13.7177 12.025
13.7329 12.196
13.7481 11.978
13.7633 12.051
13.7784 12.105
13.7936 12.319
13.8088 12.449
13.8239 12.259
13.8391 12.076
13.8543 12.456
13.8695 12.427
13.8846 12.215
13.8998 12.327
13.9150 12.113
13.9302 12.067
13.9453 12.060
13.9605 11.743
13.9757 11.779
13.9909 11.739
14.0060 11.517
14.0212 11.677
14.0364 11.559
14.0516 11.717
14.0667 11.766
14.0819 11.931
14.0971 11.660
14.1123 11.639
14.1274 11.608
14.1426 11.680
14.1578 11.878
14.1730 11.869
14.1881 11.832
14.2033 11.804
14.2185 11.862
14.2337 11.938
14.2488 11.803
14.2640 11.997
14.2792 11.863
14.2944 11.911
14.3095 11.770
14.3247 12.326
14.3399 12.360
14.3551 12.768
14.3702 12.957
14.3854 13.202
14.4006 13.270
14.4158 13.214
14.4309 12.848
14.4461 12.759
14.4613 12.274
14.4765 12.223
14.4916 12.600
14.5068 12.079
14.5220 11.882
14.5372 11.241
14.5523 11.481
14.5675 11.272
14.5827 11.089
14.5979 11.090
14.6130 11.176
14.6282 11.088
14.6434 10.775
14.6586 10.784
14.6737 10.889
14.6889 10.867
14.7041 10.735
14.7193 10.546
14.7344 10.947
14.7496 10.634
14.7648 10.631
14.7800 10.506
14.7951 10.503
14.8103 10.296
14.8255 10.388
14.8407 10.209
14.8558 10.366
14.8710 10.443
14.8862 10.777
14.9014 10.754
14.9165 10.798
14.9317 10.874
14.9469 10.568
14.9621 10.663
14.9772 10.427
14.9924 10.554
15.0076 10.466
15.0228 10.220
15.0379 10.619
15.0531 10.270
15.0683 10.182
15.0835 10.683
15.0986 10.024
15.1138 10.330
15.1290 10.329
15.1442 10.192
15.1593 10.294
15.1745 10.454
15.1897 10.318
15.2049 10.256
15.2200 10.020
15.2352 10.142
15.2504 10.152
15.2656 10.459
15.2807 10.274
15.2959 10.239
15.3111 9.774
15.3263 10.273
15.3414 10.426
15.3566 10.172
15.3718 10.361
15.3870 10.367
15.4021 10.278
15.4173 10.044
15.4325 9.859
15.4477 10.377
15.4628 9.968
15.4780 10.270
15.4932 9.970
15.5084 10.129
15.5235 9.738
15.5387 9.884
15.5539 9.926
15.5691 9.669
15.5842 9.783
15.5994 9.627
15.6146 9.812
15.6298 9.795
15.6449 9.677
15.6601 9.614
15.6753 9.552
15.6905 9.878
15.7056 9.983
15.7208 9.829
15.7360 9.677
15.7512 9.902
15.7663 9.789
15.7815 9.551
15.7967 9.393
15.8119 9.661
15.8270 9.653
15.8422 9.779
15.8574 9.730
15.8726 9.742
15.8877 9.849
15.9029 9.561
15.9181 9.476
15.9333 9.572
15.9484 9.347
15.9636 9.556
15.9788 9.620
15.9940 9.797
16.0091 9.723
16.0243 9.667
16.0395 9.620
16.0547 9.642
16.0698 9.554
16.0850 9.476
16.1002 9.630
16.1154 9.542
16.1305 9.614
16.1457 9.600
16.1609 9.721
16.1761 9.560
16.1912 9.403
16.2064 9.696
16.2216 9.626
16.2368 9.639
16.2519 9.848
16.2671 9.744
16.2823 9.803
16.2975 9.948
16.3126 9.893
16.3278 9.635
16.3430 9.669
16.3582 9.683
16.3733 9.832
16.3885 9.685
16.4037 9.596
16.4189 9.993
16.4340 9.910
16.4492 9.674
16.4644 9.831
16.4796 9.671
16.4947 9.618
16.5099 9.512
16.5251 9.410
16.5403 9.735
16.5554 9.675
16.5706 9.493
16.5858 9.788
16.6010 9.810
16.6161 9.628
16.6313 9.699
16.6465 9.631
16.6617 9.711
16.6768 9.577
16.6920 9.789
16.7072 10.035
16.7224 10.035
16.7375 9.965
16.7527 9.972
16.7679 10.005
16.7831 9.773
16.7982 9.940
16.8134 10.004
16.8286 9.707
16.8438 9.526
16.8589 9.625
16.8741 9.931
16.8893 9.945
16.9045 9.644
16.9196 9.720
16.9348 9.963
16.9500 9.802
16.9652 9.771
16.9803 9.880
16.9955 9.873
17.0107 9.940
17.0259 9.896
17.0410 9.948
17.0562 9.966
17.0714 10.165
17.0866 10.484
17.1017 10.650
17.1169 10.628
17.1321 10.872
17.1473 11.318
17.1624 11.788
17.1776 12.217
17.1928 12.832
17.2080 13.809
17.2231 14.934
17.2383 16.318
17.2535 17.383
17.2687 18.223
17.2838 18.512
17.2990 17.794
17.3142 17.026
17.3294 16.462
17.3445 16.183
17.3597 15.887
17.3749 15.730
17.3901 15.415
17.4052 14.316
17.4204 13.181
17.4356 12.547
17.4508 12.327
17.4659 12.053
17.4811 11.655
17.4963 11.348
17.5115 11.311
17.5266 11.373
17.5418 11.040
17.5570 10.831
17.5722 11.123
17.5873 11.323
17.6025 11.397
17.6177 11.304
17.6329 11.259
17.6480 11.274
17.6632 11.206
17.6784 11.442
17.6936 11.599
17.7087 11.388
17.7239 11.169
17.7391 11.188
17.7543 11.217
17.7694 11.001
17.7846 10.885
17.7998 10.707
17.8150 10.458
17.8301 10.369
17.8453 10.382
17.8605 10.255
17.8757 10.287
17.8908 10.370
17.9060 10.192
17.9212 10.105
17.9364 10.178
17.9515 10.000
17.9667 10.189
17.9819 10.396
17.9971 10.346
18.0122 10.157
18.0274 10.211
18.0426 10.266
18.0578 10.049
18.0729 10.045
18.0881 10.029
18.1033 10.030
18.1185 9.927
18.1336 10.054
18.1488 9.988
18.1640 9.854
18.1792 9.784
18.1943 9.926
18.2095 9.933
18.2247 10.036
18.2399 10.080
18.2550 9.879
18.2702 9.887
18.2854 9.911
18.3006 9.886
18.3157 10.005
18.3309 9.976
18.3461 9.866
18.3613 10.007
18.3764 9.991
18.3916 9.815
18.4068 9.847
18.4220 9.675
18.4371 9.679
18.4523 9.737
18.4675 9.849
18.4827 9.828
18.4978 9.858
18.5130 9.873
18.5282 9.690
18.5434 9.808
18.5585 9.927
18.5737 9.905
18.5889 10.015
18.6041 9.895
18.6192 9.613
18.6344 9.620
18.6496 9.653
18.6648 9.842
18.6799 10.031
18.6951 9.838
18.7103 9.800
18.7255 9.833
18.7406 9.886
18.7558 9.826
18.7710 9.723
18.7862 9.843
18.8013 9.663
18.8165 9.523
18.8317 9.793
18.8469 10.057
18.8620 9.947
18.8772 10.005
18.8924 9.984
18.9076 9.892
18.9227 9.902
18.9379 9.900
18.9531 9.926
18.9683 10.026
18.9834 10.132
18.9986 10.181
19.0138 10.081
19.0290 9.995
19.0441 10.067
19.0593 10.200
19.0745 10.157
19.0897 10.291
19.1048 10.667
19.1200 10.419
19.1352 10.567
19.1504 10.754
19.1655 10.686
19.1807 10.440
19.1959 10.422
19.2111 10.581
19.2262 10.577
19.2414 10.728
19.2566 10.730
19.2718 10.700
19.2869 10.907
19.3021 10.980
19.3173 11.115
19.3325 11.191
19.3476 10.891
19.3628 10.662
19.3780 10.876
19.3932 10.928
19.4083 10.859
19.4235 11.034
19.4387 11.334
19.4539 11.404
19.4690 11.465
19.4842 11.361
19.4994 11.440
19.5146 11.449
19.5297 11.375
19.5449 11.544
19.5601 11.450
19.5753 11.257
19.5904 11.465
19.6056 11.657
19.6208 11.677
19.6360 11.785
19.6511 11.746
19.6663 11.675
19.6815 11.696
19.6967 11.652
19.7118 11.584
19.7270 11.671
19.7422 11.818
19.7574 11.826
19.7725 11.770
19.7877 11.854
19.8029 11.751
19.8180 11.853
19.8332 12.167
19.8484 12.219
19.8636 11.996
19.8787 12.286
19.8939 12.640
19.9091 12.864
19.9243 13.270
19.9394 13.421
19.9546 13.938
19.9698 14.281
19.9850 14.350
20.0001 14.315
20.0153 14.197
20.0305 13.764
20.0457 13.569
20.0608 13.460
20.0760 13.375
20.0912 13.884
20.1064 13.812
20.1215 13.396
20.1367 13.200
20.1519 13.127
20.1671 13.074
20.1822 12.929
20.1974 12.750
20.2126 12.820
20.2278 13.038
20.2429 12.770
20.2581 12.319
20.2733 12.157
20.2885 11.953
20.3036 11.909
20.3188 12.053
20.3340 11.762
20.3492 11.647
20.3643 11.950
20.3795 11.974
20.3947 11.857
20.4099 11.731
20.4250 11.809
20.4402 12.104
20.4554 12.017
20.4706 11.595
20.4857 11.503
20.5009 11.648
20.5161 11.616
20.5313 11.358
20.5464 11.329
20.5616 11.160
20.5768 11.199
20.5920 11.006
20.6071 11.045
20.6223 11.222
20.6375 10.963
20.6527 10.915
20.6678 10.590
20.6830 10.552
20.6982 10.605
20.7134 10.379
20.7285 10.492
20.7437 10.437
20.7589 10.252
20.7741 10.321
20.7892 10.397
20.8044 10.411
20.8196 10.096
20.8348 10.212
20.8499 10.385
20.8651 10.112
20.8803 10.311
20.8955 9.975
20.9106 10.182
20.9258 10.002
20.9410 10.395
20.9562 10.150
20.9713 10.363
20.9865 10.220
21.0017 9.839
21.0169 9.746
21.0320 10.105
21.0472 10.017
21.0624 9.559
21.0776 9.591
21.0927 9.944
21.1079 9.833
21.1231 9.802
21.1383 9.747
21.1534 9.949
21.1686 9.671
21.1838 9.660
21.1990 9.862
21.2141 9.838
21.2293 9.787
21.2445 9.748
21.2597 9.585
21.2748 9.374
21.2900 9.734
21.3052 9.552
21.3204 9.473
21.3355 9.464
21.3507 9.502
21.3659 9.363
21.3811 9.537
21.3962 9.530
21.4114 9.582
21.4266 9.236
21.4418 9.456
21.4569 9.290
21.4721 9.703
21.4873 9.504
21.5025 9.340
21.5176 9.291
21.5328 9.347
21.5480 9.377
21.5632 9.293
21.5783 9.295
21.5935 9.179
21.6087 9.397
21.6239 9.194
21.6390 9.261
21.6542 9.141
21.6694 8.991
21.6846 9.111
21.6997 9.331
21.7149 9.340
21.7301 8.886
21.7453 9.024
21.7604 8.995
21.7756 8.928
21.7908 9.054
21.8060 9.178
21.8211 9.055
21.8363 8.987
21.8515 8.987
21.8667 9.067
21.8818 9.255
21.8970 9.154
21.9122 9.129
21.9274 9.132
21.9425 8.930
21.9577 8.824
21.9729 8.844
21.9881 8.764
22.0032 8.797
22.0184 8.866
22.0336 8.864
22.0488 8.935
22.0639 8.879
22.0791 8.846
22.0943 8.692
22.1095 8.864
22.1246 9.053
22.1398 8.834
22.1550 8.678
22.1702 8.654
22.1853 8.682
22.2005 8.651
22.2157 8.480
22.2309 8.482
22.2460 8.462
22.2612 8.409
22.2764 8.643
22.2916 8.532
22.3067 8.533
22.3219 8.184
22.3371 8.261
22.3523 8.499
22.3674 8.625
22.3826 8.463
22.3978 8.353
22.4130 8.474
22.4281 8.501
22.4433 8.340
22.4585 8.598
22.4737 8.564
22.4888 8.462
22.5040 8.733
22.5192 8.605
22.5344 8.503
22.5495 8.282
22.5647 8.830
22.5799 8.258
22.5951 8.652
22.6102 8.292
22.6254 8.402
22.6406 8.416
22.6558 8.582
22.6709 8.468
22.6861 8.275
22.7013 8.169
22.7165 7.912
22.7316 6.678
