'Id: "" Comment: "" Operator: "Lab Manager" Anode: "Mo" Scantype: "Still (Eiger2R_500K (1D mode))" TimePerStep: "300" X: "11.8" Y: "9.4" Z: "11.284" 
7.2532 19.079
7.2684 19.135
7.2836 18.859
7.2987 18.967
7.3139 19.241
7.3291 19.058
7.3443 18.633
7.3594 19.117
7.3746 19.063
7.3898 18.954
7.4050 19.330
7.4201 19.514
7.4353 19.326
7.4505 19.530
7.4657 19.610
7.4808 19.879
7.4960 19.681
7.5112 19.154
7.5264 19.678
7.5415 19.385
7.5567 19.647
7.5719 19.489
7.5871 19.686
7.6022 19.826
7.6174 19.770
7.6326 19.850
7.6478 19.834
7.6629 20.133
7.6781 20.137
7.6933 20.235
7.7085 20.265
7.7236 20.361
7.7388 20.457
7.7540 20.192
7.7692 20.053
7.7843 19.968
7.7995 20.333
7.8147 20.800
7.8299 20.553
7.8450 20.529
7.8602 20.676
7.8754 20.405
7.8905 20.561
7.9057 20.860
7.9209 20.749
7.9361 20.505
7.9512 20.531
7.9664 20.796
7.9816 20.909
7.9968 20.973
8.0119 21.024
8.0271 21.289
8.0423 20.939
8.0575 20.738
8.0726 21.082
8.0878 21.218
8.1030 20.958
8.1182 21.052
8.1333 21.131
8.1485 21.169
8.1637 21.410
8.1789 21.335
8.1940 21.532
8.2092 21.004
8.2244 20.886
8.2396 21.280
8.2547 21.743
8.2699 21.435
8.2851 21.937
8.3003 21.793
8.3154 21.676
8.3306 22.121
8.3458 21.942
8.3610 21.704
8.3761 21.950
8.3913 21.898
8.4065 21.752
8.4217 22.028
8.4368 22.052
8.4520 21.850
8.4672 22.293
8.4824 21.693
8.4975 21.687
8.5127 22.070
8.5279 22.056
8.5431 22.017
8.5582 21.766
8.5734 21.588
8.5886 22.368
8.6038 22.091
8.6189 21.928
8.6341 22.523
8.6493 22.192
8.6645 22.092
8.6796 21.937
8.6948 22.228
8.7100 22.298
8.7252 22.238
8.7403 22.111
8.7555 22.563
8.7707 22.536
8.7859 21.884
8.8010 22.202
8.8162 22.386
8.8314 22.451
8.8466 22.364
8.8617 22.710
8.8769 22.684
8.8921 22.961
8.9073 22.830
8.9224 22.408
8.9376 22.393
8.9528 22.615
8.9680 22.485
8.9831 22.775
8.9983 22.674
9.0135 22.505
9.0287 22.617
9.0438 22.593
9.0590 22.629
9.0742 22.372
9.0894 22.543
9.1045 22.633
9.1197 23.025
9.1349 22.912
9.1501 22.939
9.1652 22.883
9.1804 22.760
9.1956 22.834
9.2108 22.930
9.2259 22.825
9.2411 22.812
9.2563 23.040
9.2715 23.195
9.2866 22.799
9.3018 22.634
9.3170 22.831
9.3322 22.773
9.3473 22.907
9.3625 22.778
9.3777 22.940
9.3929 22.694
9.4080 22.502
9.4232 22.838
9.4384 22.757
9.4536 22.757
9.4687 22.919
9.4839 23.009
9.4991 22.994
9.5143 22.890
9.5294 22.819
9.5446 22.818
9.5598 22.974
9.5750 23.115
9.5901 23.265
9.6053 23.266
9.6205 23.228
9.6357 23.476
9.6508 23.549
9.6660 23.777
9.6812 23.928
9.6964 23.826
9.7115 23.759
9.7267 23.803
9.7419 23.931
9.7571 23.693
9.7722 23.493
9.7874 23.444
9.8026 23.441
9.8178 23.164
9.8329 22.861
9.8481 23.189
9.8633 23.599
9.8785 23.522
9.8936 23.216
9.9088 23.189
9.9240 22.921
9.9392 22.770
9.9543 23.042
9.9695 23.176
9.9847 23.029
9.9999 22.869
10.0150 22.853
10.0302 23.168
10.0454 23.340
10.0606 23.224
10.0757 22.887
10.0909 22.621
10.1061 22.878
10.1213 23.396
10.1364 23.586
10.1516 23.311
10.1668 23.173
10.1820 23.585
10.1971 23.479
10.2123 23.156
10.2275 22.990
10.2427 22.731
10.2578 22.787
10.2730 22.923
10.2882 22.821
10.3034 22.776
10.3185 22.588
10.3337 22.540
10.3489 22.813
10.3641 22.764
10.3792 22.461
10.3944 22.622
10.4096 22.680
10.4248 22.557
10.4399 22.845
10.4551 22.681
10.4703 22.711
10.4855 22.704
10.5006 22.585
10.5158 22.688
10.5310 22.366
10.5462 22.314
10.5613 22.515
10.5765 22.654
10.5917 22.396
10.6069 22.498
10.6220 22.532
10.6372 22.032
10.6524 22.363
10.6676 22.760
10.6827 22.596
10.6979 22.319
10.7131 22.374
10.7283 22.448
10.7434 22.493
10.7586 22.513
10.7738 22.416
10.7890 22.316
10.8041 22.297
10.8193 22.238
10.8345 22.343
10.8497 22.182
10.8648 21.879
10.8800 22.044
10.8952 22.107
10.9104 22.121
10.9255 22.214
10.9407 22.062
10.9559 21.830
10.9711 21.967
10.9862 22.150
11.0014 22.216
11.0166 21.849
11.0318 21.909
11.0469 21.971
11.0621 21.892
11.0773 22.341
11.0925 22.307
11.1076 21.636
11.1228 21.808
11.1380 22.003
11.1532 21.588
11.1683 21.796
11.1835 21.977
11.1987 21.869
11.2139 21.384
11.2290 21.467
11.2442 21.378
11.2594 21.463
11.2746 21.256
11.2897 21.489
11.3049 21.511
11.3201 21.454
11.3353 21.368
11.3504 21.249
11.3656 21.295
11.3808 21.473
11.3960 21.355
11.4111 21.373
11.4263 21.351
11.4415 20.739
11.4567 21.082
11.4718 21.234
11.4870 21.191
11.5022 21.034
11.5174 21.393
11.5325 21.244
11.5477 21.228
11.5629 20.749
11.5781 20.912
11.5932 20.940
11.6084 20.940
11.6236 21.020
11.6388 20.704
11.6539 20.672
11.6691 20.564
11.6843 20.401
11.6995 20.360
11.7146 20.320
11.7298 20.339
11.7450 20.353
11.7602 20.226
11.7753 20.149
11.7905 20.388
11.8057 19.986
11.8209 19.734
11.8360 19.771
11.8512 19.709
11.8664 20.176
11.8816 20.362
11.8967 19.936
11.9119 19.840
11.9271 19.894
11.9423 19.790
11.9574 19.275
11.9726 18.822
11.9878 19.080
12.0030 19.418
12.0181 19.211
12.0333 19.149
12.0485 19.131
12.0637 18.797
12.0788 18.787
12.0940 18.827
12.1092 18.840
12.1244 18.880
12.1395 18.427
12.1547 18.342
12.1699 18.777
12.1851 18.303
12.2002 18.024
12.2154 18.126
12.2306 18.145
12.2458 18.098
12.2609 17.917
12.2761 17.977
12.2913 18.234
12.3065 17.548
12.3216 17.644
12.3368 17.667
12.3520 17.425
12.3672 17.463
12.3823 17.455
12.3975 17.386
12.4127 17.160
12.4279 17.438
12.4430 17.387
12.4582 17.130
12.4734 16.947
12.4886 16.721
12.5037 16.546
12.5189 16.647
12.5341 16.365
12.5493 15.983
12.5644 16.084
12.5796 16.331
12.5948 16.189
12.6100 16.100
12.6251 15.922
12.6403 15.537
12.6555 16.001
12.6707 16.091
12.6858 15.917
12.7010 16.000
12.7162 15.714
12.7314 15.436
12.7465 15.514
12.7617 15.178
12.7769 15.341
12.7921 15.527
12.8072 15.278
12.8224 15.174
12.8376 15.180
12.8528 15.048
12.8679 14.949
12.8831 14.784
12.8983 14.733
12.9135 14.806
12.9286 14.700
12.9438 14.412
12.9590 14.309
12.9742 14.513
12.9893 14.693
13.0045 14.622
13.0197 14.175
13.0349 14.032
13.0500 14.192
13.0652 14.064
13.0804 13.864
13.0956 13.961
13.1107 13.745
13.1259 13.412
13.1411 13.620
13.1563 13.775
13.1714 13.581
13.1866 13.625
13.2018 13.770
13.2170 13.586
13.2321 13.545
13.2473 13.507
13.2625 13.295
13.2777 13.235
13.2928 13.158
13.3080 13.179
13.3232 13.178
13.3384 13.021
13.3535 13.103
13.3687 13.124
13.3839 13.115
13.3991 12.975
13.4142 12.987
13.4294 12.902
13.4446 12.545
13.4598 12.562
13.4749 12.558
13.4901 12.371
13.5053 12.559
13.5205 12.585
13.5356 12.502
13.5508 12.542
13.5660 12.543
13.5812 12.394
13.5963 12.239
13.6115 12.385
13.6267 12.446
13.6419 12.393
13.6570 12.296
13.6722 12.285
13.6874 12.115
13.7026 11.939
13.7177 11.808
13.7329 11.923
13.7481 12.080
13.7633 12.116
13.7784 12.122
13.7936 12.265
13.8088 12.056
13.8239 12.067
13.8391 12.341
13.8543 12.618
13.8695 12.459
13.8846 12.185
13.8998 12.047
13.9150 11.935
13.9302 12.062
13.9453 11.880
13.9605 11.616
13.9757 11.605
13.9909 11.650
14.0060 11.602
14.0212 11.718
14.0364 11.602
14.0516 12.032
14.0667 11.925
14.0819 11.692
14.0971 11.681
14.1123 11.526
14.1274 11.679
14.1426 11.808
14.1578 11.807
14.1730 11.954
14.1881 11.746
14.2033 11.923
14.2185 11.815
14.2337 11.612
14.2488 11.797
14.2640 11.829
14.2792 11.812
14.2944 11.845
14.3095 12.030
14.3247 12.120
14.3399 12.276
14.3551 12.485
14.3702 12.957
14.3854 13.158
14.4006 12.931
14.4158 13.247
14.4309 12.879
14.4461 12.538
14.4613 12.498
14.4765 12.130
14.4916 12.422
14.5068 12.143
14.5220 12.037
14.5372 11.411
14.5523 11.105
14.5675 11.089
14.5827 10.863
14.5979 10.994
14.6130 10.646
14.6282 10.792
14.6434 10.872
14.6586 10.801
14.6737 10.619
14.6889 10.872
14.7041 10.486
14.7193 10.578
14.7344 10.676
14.7496 10.696
14.7648 10.530
14.7800 10.678
14.7951 10.982
14.8103 10.592
14.8255 10.400
14.8407 10.532
14.8558 10.466
14.8710 10.394
14.8862 10.484
14.9014 10.397
14.9165 10.541
14.9317 10.764
14.9469 10.447
14.9621 10.269
14.9772 10.288
14.9924 10.052
15.0076 10.366
15.0228 10.320
15.0379 10.114
15.0531 10.342
15.0683 10.293
15.0835 10.353
15.0986 10.161
15.1138 10.264
15.1290 9.945
15.1442 10.306
15.1593 10.094
15.1745 10.245
15.1897 10.097
15.2049 9.926
15.2200 10.069
15.2352 10.202
15.2504 10.224
15.2656 10.257
15.2807 10.304
15.2959 9.731
15.3111 10.137
15.3263 9.959
15.3414 9.813
15.3566 9.979
15.3718 10.190
15.3870 10.102
15.4021 10.215
15.4173 9.894
15.4325 9.898
15.4477 10.251
15.4628 10.155
15.4780 10.379
15.4932 10.169
15.5084 9.868
15.5235 9.987
15.5387 10.032
15.5539 10.334
15.5691 9.746
15.5842 9.658
15.5994 9.769
15.6146 9.837
15.6298 9.890
15.6449 9.702
15.6601 10.052
15.6753 9.851
15.6905 9.981
15.7056 9.660
15.7208 9.663
15.7360 9.945
15.7512 9.583
15.7663 9.376
15.7815 9.588
15.7967 9.854
15.8119 9.807
15.8270 9.879
15.8422 9.683
15.8574 9.516
15.8726 9.737
15.8877 9.442
15.9029 9.455
15.9181 9.898
15.9333 9.897
15.9484 9.638
15.9636 9.595
15.9788 9.616
15.9940 9.298
16.0091 9.726
16.0243 9.740
16.0395 9.463
16.0547 9.524
16.0698 9.613
16.0850 9.440
16.1002 9.464
16.1154 9.531
16.1305 9.389
16.1457 9.453
16.1609 9.468
16.1761 9.401
16.1912 9.395
16.2064 9.549
16.2216 9.789
16.2368 9.524
16.2519 9.530
16.2671 9.314
16.2823 9.653
16.2975 10.000
16.3126 9.925
16.3278 9.842
16.3430 9.547
16.3582 9.726
16.3733 9.999
16.3885 9.813
16.4037 10.003
16.4189 9.839
16.4340 9.855
16.4492 9.904
16.4644 9.695
16.4796 9.782
16.4947 9.921
16.5099 9.988
16.5251 9.718
16.5403 9.593
16.5554 9.569
16.5706 9.577
16.5858 9.590
16.6010 9.673
16.6161 9.720
16.6313 9.726
16.6465 10.008
16.6617 9.999
16.6768 9.986
16.6920 10.051
16.7072 9.836
16.7224 9.740
16.7375 9.901
16.7527 9.866
16.7679 9.996
16.7831 10.145
16.7982 9.709
16.8134 9.726
16.8286 9.803
16.8438 9.735
16.8589 9.789
16.8741 9.698
16.8893 9.679
16.9045 9.788
16.9196 9.825
16.9348 9.819
16.9500 9.785
16.9652 9.831
16.9803 9.803
16.9955 9.666
17.0107 9.788
17.0259 9.979
17.0410 9.933
17.0562 10.013
17.0714 10.076
17.0866 10.286
17.1017 10.465
17.1169 10.586
17.1321 10.708
17.1473 11.239
17.1624 11.978
17.1776 12.491
17.1928 12.947
17.2080 13.936
17.2231 15.073
17.2383 16.285
17.2535 17.660
17.2687 18.413
17.2838 18.491
17.2990 17.798
17.3142 16.939
17.3294 16.408
17.3445 16.216
17.3597 15.963
17.3749 15.702
17.3901 15.221
17.4052 14.173
17.4204 13.148
17.4356 12.563
17.4508 12.296
17.4659 12.100
17.4811 11.841
17.4963 11.422
17.5115 11.306
17.5266 11.095
17.5418 10.903
17.5570 10.985
17.5722 10.843
17.5873 10.865
17.6025 11.096
17.6177 11.125
17.6329 11.276
17.6480 11.432
17.6632 11.328
17.6784 11.360
17.6936 11.472
17.7087 11.378
17.7239 11.169
17.7391 10.958
17.7543 10.923
17.7694 11.001
17.7846 10.933
17.7998 10.813
17.8150 10.789
17.8301 10.453
17.8453 10.270
17.8605 10.269
17.8757 10.199
17.8908 10.276
17.9060 10.321
17.9212 10.198
17.9364 10.081
17.9515 10.083
17.9667 10.091
17.9819 10.452
17.9971 10.385
18.0122 10.267
18.0274 10.062
18.0426 9.860
18.0578 9.999
18.0729 10.105
18.0881 10.264
18.1033 10.302
18.1185 10.128
18.1336 10.027
18.1488 10.135
18.1640 10.059
18.1792 9.969
18.1943 10.033
18.2095 9.917
18.2247 9.777
18.2399 9.822
18.2550 9.990
18.2702 9.758
18.2854 9.688
18.3006 9.600
18.3157 9.799
18.3309 9.934
18.3461 9.797
18.3613 9.857
18.3764 9.786
18.3916 9.726
18.4068 9.797
18.4220 9.757
18.4371 9.911
18.4523 10.080
18.4675 9.996
18.4827 9.733
18.4978 9.752
18.5130 9.808
18.5282 9.824
18.5434 10.000
18.5585 9.892
18.5737 9.763
18.5889 9.587
18.6041 9.714
18.6192 9.694
18.6344 9.654
18.6496 9.755
18.6648 9.876
18.6799 9.949
18.6951 9.696
18.7103 9.761
18.7255 9.816
18.7406 9.631
18.7558 9.709
18.7710 9.900
18.7862 10.061
18.8013 10.198
18.8165 10.021
18.8317 10.023
18.8469 10.070
18.8620 10.173
18.8772 10.048
18.8924 10.043
18.9076 10.101
18.9227 9.990
18.9379 9.972
18.9531 9.854
18.9683 9.971
18.9834 10.126
18.9986 10.060
19.0138 9.872
19.0290 10.225
19.0441 10.418
19.0593 10.340
19.0745 10.277
19.0897 10.163
19.1048 10.295
19.1200 10.461
19.1352 10.555
19.1504 10.605
19.1655 10.793
19.1807 10.741
19.1959 10.716
19.2111 10.747
19.2262 10.714
19.2414 10.758
19.2566 10.773
19.2718 10.859
19.2869 11.066
19.3021 11.151
19.3173 10.741
19.3325 10.737
19.3476 10.987
19.3628 10.952
19.3780 10.992
19.3932 10.981
19.4083 11.051
19.4235 11.100
19.4387 11.079
19.4539 11.172
19.4690 11.361
19.4842 11.578
19.4994 11.648
19.5146 11.452
19.5297 11.499
19.5449 11.645
19.5601 11.582
19.5753 11.670
19.5904 11.588
19.6056 11.435
19.6208 11.580
19.6360 11.547
19.6511 11.457
19.6663 11.555
19.6815 11.636
19.6967 11.681
19.7118 11.850
19.7270 11.998
19.7422 12.037
19.7574 11.711
19.7725 11.654
19.7877 11.977
19.8029 12.098
19.8180 12.170
19.8332 12.082
19.8484 12.108
19.8636 12.326
19.8787 12.548
19.8939 12.746
19.9091 12.953
19.9243 13.412
19.9394 14.036
19.9546 14.484
19.9698 14.538
19.9850 14.388
20.0001 14.347
20.0153 14.233
20.0305 13.977
20.0457 13.964
20.0608 13.949
20.0760 13.684
20.0912 13.550
20.1064 13.763
20.1215 13.714
20.1367 13.554
20.1519 13.180
20.1671 12.947
20.1822 12.815
20.1974 12.867
20.2126 12.817
20.2278 12.953
20.2429 12.617
20.2581 12.222
20.2733 12.028
20.2885 12.078
20.3036 12.168
20.3188 12.103
20.3340 12.298
20.3492 12.406
20.3643 12.084
20.3795 11.864
20.3947 11.868
20.4099 11.987
20.4250 12.088
20.4402 12.118
20.4554 11.951
20.4706 11.851
20.4857 11.711
20.5009 11.592
20.5161 11.410
20.5313 11.556
20.5464 11.652
20.5616 11.475
20.5768 11.174
20.5920 11.045
20.6071 11.040
20.6223 11.027
20.6375 10.915
20.6527 10.632
20.6678 10.627
20.6830 10.943
20.6982 10.559
20.7134 10.402
20.7285 10.203
20.7437 10.631
20.7589 10.474
20.7741 10.489
20.7892 10.429
20.8044 10.491
20.8196 10.293
20.8348 10.525
20.8499 10.368
20.8651 10.421
20.8803 10.139
20.8955 10.358
20.9106 10.345
20.9258 10.261
20.9410 10.365
20.9562 10.302
20.9713 10.049
20.9865 10.240
21.0017 10.254
21.0169 10.070
21.0320 9.762
21.0472 10.322
21.0624 9.776
21.0776 9.929
21.0927 9.813
21.1079 9.971
21.1231 9.904
21.1383 9.972
21.1534 9.800
21.1686 9.893
21.1838 9.784
21.1990 10.199
21.2141 9.769
21.2293 9.889
21.2445 9.880
21.2597 9.595
21.2748 9.459
21.2900 9.740
21.3052 9.730
21.3204 9.624
21.3355 9.710
21.3507 9.650
21.3659 9.672
21.3811 9.372
21.3962 9.307
21.4114 9.247
21.4266 9.529
21.4418 9.282
21.4569 9.539
21.4721 9.237
21.4873 9.567
21.5025 9.236
21.5176 9.188
21.5328 9.265
21.5480 9.287
21.5632 9.086
21.5783 9.435
21.5935 9.432
21.6087 9.211
21.6239 9.283
21.6390 9.185
21.6542 9.304
21.6694 9.091
21.6846 9.295
21.6997 9.193
21.7149 9.147
21.7301 9.160
21.7453 9.122
21.7604 9.212
21.7756 9.279
21.7908 8.983
21.8060 8.881
21.8211 9.106
21.8363 8.949
21.8515 8.947
21.8667 9.065
21.8818 8.943
21.8970 8.883
21.9122 8.992
21.9274 9.107
21.9425 8.866
21.9577 8.931
21.9729 9.093
21.9881 9.027
22.0032 8.835
22.0184 8.715
22.0336 8.798
22.0488 8.891
22.0639 8.838
22.0791 8.603
22.0943 8.424
22.1095 8.436
22.1246 8.469
22.1398 8.494
22.1550 8.592
22.1702 8.639
22.1853 8.592
22.2005 8.767
22.2157 8.660
22.2309 8.629
22.2460 8.705
22.2612 8.671
22.2764 8.673
22.2916 8.515
22.3067 8.599
22.3219 8.307
22.3371 8.536
22.3523 8.287
22.3674 8.521
22.3826 8.558
22.3978 8.585
22.4130 8.608
22.4281 8.417
22.4433 8.333
22.4585 8.308
22.4737 8.584
22.4888 8.271
22.5040 8.469
22.5192 8.388
22.5344 8.434
22.5495 8.255
22.5647 8.319
22.5799 8.422
22.5951 8.189
22.6102 8.819
22.6254 8.266
22.6406 8.638
22.6558 8.548
22.6709 8.172
22.6861 8.313
22.7013 8.112
22.7165 8.018
22.7316 6.341
