'Id: "" Comment: "" Operator: "Lab Manager" Anode: "Mo" Scantype: "Still (Eiger2R_500K (1D mode))" TimePerStep: "300" X: "11.8" Y: "9.4" Z: "11.284" 
7.2532 18.548
7.2684 18.457
7.2836 18.605
7.2987 18.305
7.3139 18.970
7.3291 19.183
7.3443 18.876
7.3594 18.904
7.3746 18.963
7.3898 18.918
7.4050 19.087
7.4201 19.348
7.4353 19.086
7.4505 19.432
7.4657 19.206
7.4808 19.157
7.4960 19.084
7.5112 19.144
7.5264 19.457
7.5415 19.783
7.5567 19.775
7.5719 19.476
7.5871 19.694
7.6022 19.657
7.6174 19.818
7.6326 19.699
7.6478 19.847
7.6629 19.874
7.6781 19.810
7.6933 20.026
7.7085 20.347
7.7236 20.481
7.7388 20.385
7.7540 20.734
7.7692 20.362
7.7843 20.207
7.7995 20.319
7.8147 20.368
7.8299 20.402
7.8450 20.146
7.8602 20.409
7.8754 20.647
7.8905 20.724
7.9057 20.666
7.9209 20.756
7.9361 20.794
7.9512 20.825
7.9664 20.538
7.9816 20.436
7.9968 20.672
8.0119 20.653
8.0271 20.956
8.0423 20.871
8.0575 21.117
8.0726 20.936
8.0878 21.029
8.1030 21.362
8.1182 21.066
8.1333 21.245
8.1485 21.172
8.1637 21.348
8.1789 21.314
8.1940 21.751
8.2092 21.451
8.2244 21.497
8.2396 21.936
8.2547 21.679
8.2699 21.258
8.2851 21.817
8.3003 21.519
8.3154 22.143
8.3306 21.584
8.3458 22.108
8.3610 21.479
8.3761 21.509
8.3913 21.663
8.4065 21.440
8.4217 21.709
8.4368 21.930
8.4520 22.180
8.4672 21.799
8.4824 21.522
8.4975 21.971
8.5127 22.065
8.5279 22.158
8.5431 22.178
8.5582 22.365
8.5734 22.101
8.5886 22.431
8.6038 21.662
8.6189 22.142
8.6341 22.398
8.6493 22.131
8.6645 22.140
8.6796 22.072
8.6948 22.462
8.7100 22.438
8.7252 22.335
8.7403 22.036
8.7555 22.020
8.7707 22.508
8.7859 21.761
8.8010 21.884
8.8162 21.346
8.8314 22.634
8.8466 22.085
8.8617 22.402
8.8769 22.458
8.8921 22.234
8.9073 22.430
8.9224 22.124
8.9376 22.854
8.9528 22.674
8.9680 22.289
8.9831 22.848
8.9983 22.759
9.0135 22.462
9.0287 22.486
9.0438 22.629
9.0590 22.271
9.0742 22.624
9.0894 22.554
9.1045 22.226
9.1197 22.656
9.1349 22.604
9.1501 22.360
9.1652 22.845
9.1804 22.692
9.1956 22.911
9.2108 22.716
9.2259 22.723
9.2411 22.438
9.2563 22.776
9.2715 23.104
9.2866 22.974
9.3018 22.939
9.3170 22.982
9.3322 22.669
9.3473 22.880
9.3625 22.912
9.3777 22.984
9.3929 22.861
9.4080 23.230
9.4232 23.168
9.4384 22.740
9.4536 22.620
9.4687 22.897
9.4839 22.995
9.4991 23.055
9.5143 23.216
9.5294 23.094
9.5446 22.893
9.5598 23.235
9.5750 23.122
9.5901 22.783
9.6053 22.735
9.6205 22.898
9.6357 23.233
9.6508 23.445
9.6660 23.630
9.6812 23.777
9.6964 23.447
9.7115 23.478
9.7267 23.340
9.7419 23.209
9.7571 23.619
9.7722 23.846
9.7874 23.738
9.8026 23.688
9.8178 23.317
9.8329 23.293
9.8481 23.436
9.8633 23.268
9.8785 22.948
9.8936 22.827
9.9088 23.053
9.9240 23.141
9.9392 23.015
9.9543 22.941
9.9695 23.164
9.9847 23.169
9.9999 23.180
10.0150 23.126
10.0302 23.085
10.0454 23.007
10.0606 22.969
10.0757 22.855
10.0909 22.981
10.1061 23.153
10.1213 23.371
10.1364 23.405
10.1516 23.307
10.1668 23.288
10.1820 23.393
10.1971 23.532
10.2123 23.273
10.2275 22.969
10.2427 23.025
10.2578 23.017
10.2730 22.846
10.2882 22.898
10.3034 22.760
10.3185 22.546
10.3337 22.541
10.3489 22.362
10.3641 22.335
10.3792 22.860
10.3944 22.725
10.4096 22.588
10.4248 22.326
10.4399 22.328
10.4551 22.787
10.4703 22.863
10.4855 22.685
10.5006 22.588
10.5158 22.764
10.5310 22.532
10.5462 22.443
10.5613 22.355
10.5765 22.513
10.5917 22.613
10.6069 22.478
10.6220 22.626
10.6372 22.701
10.6524 22.716
10.6676 22.534
10.6827 22.414
10.6979 22.460
10.7131 22.253
10.7283 22.240
10.7434 22.076
10.7586 22.218
10.7738 22.386
10.7890 22.120
10.8041 22.059
10.8193 22.112
10.8345 22.353
10.8497 22.319
10.8648 21.995
10.8800 22.031
10.8952 22.159
10.9104 22.315
10.9255 22.360
10.9407 21.990
10.9559 21.667
10.9711 21.839
10.9862 22.024
11.0014 22.098
11.0166 21.798
11.0318 22.114
11.0469 21.617
11.0621 21.350
11.0773 21.506
11.0925 21.610
11.1076 21.941
11.1228 21.893
11.1380 21.448
11.1532 21.644
11.1683 21.435
11.1835 21.814
11.1987 21.714
11.2139 21.288
11.2290 21.559
11.2442 21.491
11.2594 21.586
11.2746 21.406
11.2897 21.717
11.3049 21.942
11.3201 21.280
11.3353 21.314
11.3504 21.372
11.3656 21.601
11.3808 21.527
11.3960 21.255
11.4111 21.135
11.4263 21.193
11.4415 21.138
11.4567 21.045
11.4718 21.304
11.4870 21.352
11.5022 21.209
11.5174 21.150
11.5325 20.930
11.5477 21.169
11.5629 21.020
11.5781 20.863
11.5932 20.765
11.6084 20.741
11.6236 20.780
11.6388 20.535
11.6539 20.647
11.6691 20.687
11.6843 20.076
11.6995 20.242
11.7146 20.925
11.7298 20.690
11.7450 20.212
11.7602 20.097
11.7753 19.768
11.7905 19.898
11.8057 20.502
11.8209 20.253
11.8360 19.763
11.8512 19.685
11.8664 20.173
11.8816 19.886
11.8967 19.872
11.9119 19.585
11.9271 19.549
11.9423 19.504
11.9574 19.381
11.9726 19.448
11.9878 19.231
12.0030 19.267
12.0181 19.317
12.0333 19.141
12.0485 18.667
12.0637 18.950
12.0788 19.011
12.0940 18.848
12.1092 18.920
12.1244 18.552
12.1395 18.325
12.1547 18.453
12.1699 18.353
12.1851 18.351
12.2002 18.388
12.2154 18.287
12.2306 18.079
12.2458 17.754
12.2609 17.844
12.2761 17.939
12.2913 18.015
12.3065 17.666
12.3216 17.586
12.3368 17.572
12.3520 17.384
12.3672 17.077
12.3823 16.885
12.3975 17.117
12.4127 16.863
12.4279 16.865
12.4430 16.853
12.4582 16.943
12.4734 16.762
12.4886 16.710
12.5037 16.720
12.5189 16.406
12.5341 16.558
12.5493 16.856
12.5644 16.510
12.5796 16.423
12.5948 16.110
12.6100 15.931
12.6251 15.958
12.6403 15.957
12.6555 15.952
12.6707 15.830
12.6858 15.724
12.7010 15.946
12.7162 15.824
12.7314 15.622
12.7465 15.546
12.7617 15.300
12.7769 15.120
12.7921 15.042
12.8072 15.033
12.8224 15.076
12.8376 14.890
12.8528 15.090
12.8679 15.033
12.8831 14.769
12.8983 14.632
12.9135 14.577
12.9286 14.714
12.9438 14.586
12.9590 14.366
12.9742 14.332
12.9893 14.443
13.0045 14.312
13.0197 13.956
13.0349 14.031
13.0500 14.078
13.0652 14.069
13.0804 14.192
13.0956 13.893
13.1107 13.815
13.1259 13.925
13.1411 13.816
13.1563 13.688
13.1714 13.368
13.1866 13.340
13.2018 13.590
13.2170 13.611
13.2321 13.542
13.2473 13.265
13.2625 13.110
13.2777 13.124
13.2928 13.012
13.3080 12.938
13.3232 12.857
13.3384 12.858
13.3535 12.820
13.3687 12.872
13.3839 12.959
13.3991 12.921
13.4142 12.870
13.4294 12.778
13.4446 12.660
13.4598 12.669
13.4749 12.769
13.4901 12.736
13.5053 12.522
13.5205 12.435
13.5356 12.409
13.5508 12.378
13.5660 12.421
13.5812 12.336
13.5963 12.236
13.6115 12.223
13.6267 12.230
13.6419 12.135
13.6570 11.997
13.6722 12.082
13.6874 12.169
13.7026 12.286
13.7177 12.092
13.7329 11.873
13.7481 11.793
13.7633 11.916
13.7784 12.018
13.7936 11.877
13.8088 12.086
13.8239 12.103
13.8391 12.100
13.8543 11.959
13.8695 12.404
13.8846 12.439
13.8998 12.031
13.9150 11.976
13.9302 12.113
13.9453 11.978
13.9605 11.526
13.9757 11.332
13.9909 11.689
14.0060 11.551
14.0212 11.832
14.0364 11.475
14.0516 11.184
14.0667 11.265
14.0819 11.545
14.0971 11.546
14.1123 11.508
14.1274 11.421
14.1426 11.201
14.1578 11.354
14.1730 11.573
14.1881 11.547
14.2033 11.523
14.2185 11.739
14.2337 11.525
14.2488 11.557
14.2640 11.661
14.2792 11.772
14.2944 11.437
14.3095 11.860
14.3247 12.502
14.3399 12.376
14.3551 12.503
14.3702 12.653
14.3854 12.929
14.4006 13.198
14.4158 13.344
14.4309 12.760
14.4461 12.666
14.4613 12.924
14.4765 12.531
14.4916 12.481
14.5068 12.191
14.5220 11.910
14.5372 11.583
14.5523 11.655
14.5675 11.323
14.5827 10.855
14.5979 10.752
14.6130 10.999
14.6282 10.948
14.6434 10.636
14.6586 10.543
14.6737 10.876
14.6889 10.607
14.7041 10.411
14.7193 10.568
14.7344 10.451
14.7496 10.836
14.7648 10.526
14.7800 10.594
14.7951 10.834
14.8103 10.512
14.8255 10.464
14.8407 10.595
14.8558 10.642
14.8710 10.543
14.8862 10.256
14.9014 10.023
14.9165 10.683
14.9317 10.750
14.9469 10.464
14.9621 10.408
14.9772 10.294
14.9924 10.205
15.0076 10.050
15.0228 9.797
15.0379 10.009
15.0531 10.459
15.0683 10.220
15.0835 10.566
15.0986 10.312
15.1138 10.135
15.1290 10.185
15.1442 10.225
15.1593 10.020
15.1745 10.119
15.1897 10.079
15.2049 10.229
15.2200 10.220
15.2352 10.074
15.2504 10.171
15.2656 9.982
15.2807 10.008
15.2959 10.065
15.3111 10.104
15.3263 10.014
15.3414 10.178
15.3566 10.164
15.3718 9.719
15.3870 9.948
15.4021 10.546
15.4173 10.221
15.4325 9.970
15.4477 10.131
15.4628 10.221
15.4780 10.053
15.4932 9.935
15.5084 9.809
15.5235 10.166
15.5387 10.221
15.5539 9.708
15.5691 9.605
15.5842 9.856
15.5994 9.871
15.6146 9.644
15.6298 9.678
15.6449 9.693
15.6601 9.774
15.6753 9.774
15.6905 9.631
15.7056 9.871
15.7208 9.910
15.7360 9.904
15.7512 9.911
15.7663 9.429
15.7815 9.636
15.7967 9.760
15.8119 9.741
15.8270 9.628
15.8422 9.435
15.8574 9.586
15.8726 9.297
15.8877 9.655
15.9029 9.573
15.9181 9.536
15.9333 9.607
15.9484 9.580
15.9636 9.607
15.9788 9.581
15.9940 9.275
16.0091 9.683
16.0243 9.445
16.0395 9.411
16.0547 9.510
16.0698 9.487
16.0850 9.423
16.1002 9.404
16.1154 9.487
16.1305 9.623
16.1457 9.502
16.1609 9.558
16.1761 9.693
16.1912 9.595
16.2064 9.517
16.2216 9.681
16.2368 9.815
16.2519 9.878
16.2671 9.591
16.2823 9.742
16.2975 9.539
16.3126 9.583
16.3278 9.688
16.3430 9.552
16.3582 9.886
16.3733 9.946
16.3885 9.973
16.4037 10.060
16.4189 9.891
16.4340 9.627
16.4492 9.589
16.4644 9.539
16.4796 9.585
16.4947 9.639
16.5099 9.679
16.5251 9.668
16.5403 9.729
16.5554 9.535
16.5706 9.512
16.5858 9.459
16.6010 9.359
16.6161 9.472
16.6313 9.673
16.6465 9.865
16.6617 9.698
16.6768 9.461
16.6920 9.714
16.7072 9.910
16.7224 9.850
16.7375 9.750
16.7527 9.898
16.7679 9.934
16.7831 9.970
16.7982 10.009
16.8134 9.859
16.8286 9.961
16.8438 9.926
16.8589 9.770
16.8741 9.923
16.8893 10.023
16.9045 9.789
16.9196 9.678
16.9348 9.653
16.9500 9.621
16.9652 9.719
16.9803 9.708
16.9955 9.741
17.0107 9.896
17.0259 9.654
17.0410 9.737
17.0562 10.073
17.0714 10.002
17.0866 10.215
17.1017 10.389
17.1169 10.404
17.1321 10.630
17.1473 11.026
17.1624 11.509
17.1776 11.925
17.1928 12.905
17.2080 14.002
17.2231 14.998
17.2383 16.175
17.2535 17.313
17.2687 18.372
17.2838 18.543
17.2990 17.769
17.3142 16.939
17.3294 16.060
17.3445 15.593
17.3597 15.692
17.3749 15.518
17.3901 14.952
17.4052 14.166
17.4204 13.006
17.4356 12.234
17.4508 11.982
17.4659 11.727
17.4811 11.662
17.4963 11.494
17.5115 11.196
17.5266 10.893
17.5418 10.755
17.5570 10.703
17.5722 10.656
17.5873 10.855
17.6025 11.009
17.6177 11.152
17.6329 11.207
17.6480 11.407
17.6632 11.510
17.6784 11.606
17.6936 12.112
17.7087 11.917
17.7239 11.614
17.7391 11.376
17.7543 11.258
17.7694 11.309
17.7846 11.254
17.7998 11.057
17.8150 11.022
17.8301 10.888
17.8453 10.688
17.8605 10.496
17.8757 10.515
17.8908 10.466
17.9060 10.464
17.9212 10.458
17.9364 10.222
17.9515 10.195
17.9667 10.207
17.9819 10.330
17.9971 10.462
18.0122 10.189
18.0274 10.218
18.0426 10.341
18.0578 10.150
18.0729 10.019
18.0881 10.092
18.1033 9.995
18.1185 9.752
18.1336 9.696
18.1488 9.783
18.1640 9.967
18.1792 10.199
18.1943 10.018
18.2095 9.843
18.2247 9.944
18.2399 9.838
18.2550 9.781
18.2702 9.838
18.2854 9.975
18.3006 9.876
18.3157 9.780
18.3309 9.981
18.3461 10.049
18.3613 9.922
18.3764 9.828
18.3916 9.743
18.4068 10.002
18.4220 10.157
18.4371 9.994
18.4523 9.808
18.4675 9.548
18.4827 9.732
18.4978 9.797
18.5130 9.807
18.5282 9.823
18.5434 9.508
18.5585 9.430
18.5737 9.663
18.5889 9.874
18.6041 9.922
18.6192 9.817
18.6344 9.637
18.6496 9.624
18.6648 9.637
18.6799 9.717
18.6951 9.920
18.7103 9.868
18.7255 9.853
18.7406 9.868
18.7558 10.018
18.7710 9.912
18.7862 9.870
18.8013 9.666
18.8165 9.535
18.8317 9.766
18.8469 9.849
18.8620 9.815
18.8772 9.905
18.8924 9.991
18.9076 9.879
18.9227 9.872
18.9379 9.939
18.9531 10.145
18.9683 10.120
18.9834 9.894
18.9986 9.889
19.0138 9.902
19.0290 10.183
19.0441 10.401
19.0593 10.293
19.0745 10.293
19.0897 10.104
19.1048 10.166
19.1200 10.325
19.1352 10.328
19.1504 10.404
19.1655 10.382
19.1807 10.644
19.1959 10.676
19.2111 10.534
19.2262 10.612
19.2414 10.768
19.2566 10.743
19.2718 10.743
19.2869 10.680
19.3021 10.992
19.3173 11.006
19.3325 11.015
19.3476 10.999
19.3628 11.121
19.3780 11.358
19.3932 11.349
19.4083 10.945
19.4235 11.068
19.4387 11.104
19.4539 11.169
19.4690 11.413
19.4842 11.244
19.4994 11.294
19.5146 11.283
19.5297 11.522
19.5449 11.620
19.5601 11.484
19.5753 11.788
19.5904 12.022
19.6056 11.759
19.6208 11.530
19.6360 11.613
19.6511 11.743
19.6663 11.653
19.6815 11.663
19.6967 11.585
19.7118 11.607
19.7270 11.755
19.7422 11.743
19.7574 11.780
19.7725 11.829
19.7877 12.076
19.8029 12.257
19.8180 11.943
19.8332 12.087
19.8484 12.315
19.8636 12.456
19.8787 12.609
19.8939 12.734
19.9091 13.119
19.9243 13.341
19.9394 13.960
19.9546 14.289
19.9698 14.445
19.9850 14.551
20.0001 14.400
20.0153 14.320
20.0305 13.953
20.0457 13.643
20.0608 13.677
20.0760 13.915
20.0912 13.772
20.1064 13.745
20.1215 13.520
20.1367 13.332
20.1519 13.297
20.1671 13.014
20.1822 12.979
20.1974 12.832
20.2126 12.803
20.2278 12.952
20.2429 12.707
20.2581 12.431
20.2733 12.035
20.2885 12.092
20.3036 12.323
20.3188 12.190
20.3340 11.957
20.3492 11.819
20.3643 11.857
20.3795 12.008
20.3947 11.783
20.4099 11.677
20.4250 11.739
20.4402 11.988
20.4554 11.939
20.4706 11.775
20.4857 11.841
20.5009 11.904
20.5161 11.857
20.5313 11.635
20.5464 11.406
20.5616 11.347
20.5768 11.481
20.5920 11.527
20.6071 11.177
20.6223 11.296
20.6375 11.099
20.6527 10.940
20.6678 10.872
20.6830 11.055
20.6982 10.882
20.7134 10.534
20.7285 10.479
20.7437 10.709
20.7589 10.568
20.7741 10.319
20.7892 10.346
20.8044 10.185
20.8196 10.414
20.8348 10.449
20.8499 10.451
20.8651 10.507
20.8803 10.506
20.8955 10.239
20.9106 10.133
20.9258 10.328
20.9410 10.148
20.9562 10.184
20.9713 10.031
20.9865 9.853
21.0017 9.806
21.0169 10.304
21.0320 10.324
21.0472 10.063
21.0624 9.724
21.0776 9.872
21.0927 9.837
21.1079 10.134
21.1231 9.561
21.1383 10.260
21.1534 9.834
21.1686 10.020
21.1838 9.514
21.1990 9.935
21.2141 10.098
21.2293 9.906
21.2445 9.909
21.2597 9.809
21.2748 9.612
21.2900 9.590
21.3052 9.887
21.3204 9.630
21.3355 9.671
21.3507 9.875
21.3659 9.624
21.3811 9.455
21.3962 9.488
21.4114 9.227
21.4266 9.264
21.4418 9.391
21.4569 9.442
21.4721 9.590
21.4873 9.359
21.5025 9.478
21.5176 9.503
21.5328 9.352
21.5480 9.157
21.5632 9.337
21.5783 9.619
21.5935 9.385
21.6087 9.239
21.6239 9.180
21.6390 8.825
21.6542 9.009
21.6694 9.176
21.6846 9.084
21.6997 9.153
21.7149 9.118
21.7301 9.154
21.7453 8.884
21.7604 9.062
21.7756 9.250
21.7908 9.140
21.8060 8.926
21.8211 8.909
21.8363 9.101
21.8515 8.980
21.8667 9.026
21.8818 9.138
21.8970 9.088
21.9122 9.021
21.9274 8.941
21.9425 8.948
21.9577 8.858
21.9729 8.946
21.9881 8.976
22.0032 8.885
22.0184 8.780
22.0336 8.890
22.0488 8.817
22.0639 8.500
22.0791 8.435
22.0943 8.811
22.1095 8.811
22.1246 8.625
22.1398 8.460
22.1550 8.452
22.1702 8.629
22.1853 8.452
22.2005 8.546
22.2157 8.620
22.2309 8.519
22.2460 8.541
22.2612 8.415
22.2764 8.467
22.2916 8.479
22.3067 8.401
22.3219 8.312
22.3371 8.405
22.3523 8.326
22.3674 8.496
22.3826 8.272
22.3978 8.128
22.4130 8.179
22.4281 8.116
22.4433 8.273
22.4585 8.587
22.4737 8.458
22.4888 8.389
22.5040 8.592
22.5192 8.531
22.5344 8.498
22.5495 8.587
22.5647 8.645
22.5799 8.176
22.5951 8.406
22.6102 8.435
22.6254 8.166
22.6406 8.314
22.6558 8.312
22.6709 8.400
22.6861 8.244
22.7013 8.216
22.7165 7.929
22.7316 6.335
