'Id: "" Comment: "" Operator: "Lab Manager" Anode: "Mo" Scantype: "Still (Eiger2R_500K (1D mode))" TimePerStep: "300" X: "11.8" Y: "9.4" Z: "11.284" 
7.2532 19.022
7.2684 19.020
7.2836 18.485
7.2987 18.983
7.3139 19.130
7.3291 19.591
7.3443 19.570
7.3594 19.323
7.3746 19.645
7.3898 19.489
7.4050 19.453
7.4201 19.366
7.4353 19.432
7.4505 19.614
7.4657 19.443
7.4808 19.680
7.4960 19.547
7.5112 19.567
7.5264 19.223
7.5415 19.358
7.5567 19.636
7.5719 19.954
7.5871 20.003
7.6022 20.054
7.6174 20.267
7.6326 20.107
7.6478 19.972
7.6629 20.191
7.6781 20.098
7.6933 20.023
7.7085 20.398
7.7236 20.361
7.7388 20.453
7.7540 20.352
7.7692 20.336
7.7843 20.417
7.7995 20.336
7.8147 20.373
7.8299 20.533
7.8450 20.830
7.8602 20.766
7.8754 20.803
7.8905 20.955
7.9057 20.886
7.9209 21.070
7.9361 20.945
7.9512 20.862
7.9664 21.060
7.9816 21.007
7.9968 20.962
8.0119 21.375
8.0271 21.212
8.0423 21.050
8.0575 21.371
8.0726 21.287
8.0878 21.442
8.1030 21.204
8.1182 21.391
8.1333 21.381
8.1485 21.620
8.1637 21.381
8.1789 21.306
8.1940 21.716
8.2092 21.627
8.2244 21.532
8.2396 21.925
8.2547 21.520
8.2699 21.563
8.2851 22.161
8.3003 21.646
8.3154 22.146
8.3306 22.264
8.3458 21.859
8.3610 21.752
8.3761 22.381
8.3913 22.092
8.4065 21.902
8.4217 22.058
8.4368 21.819
8.4520 22.246
8.4672 22.229
8.4824 21.835
8.4975 22.691
8.5127 22.177
8.5279 22.072
8.5431 22.056
8.5582 22.643
8.5734 22.342
8.5886 22.410
8.6038 22.036
8.6189 22.265
8.6341 22.422
8.6493 22.438
8.6645 22.348
8.6796 22.179
8.6948 22.633
8.7100 22.132
8.7252 21.955
8.7403 22.541
8.7555 22.710
8.7707 22.299
8.7859 22.369
8.8010 22.666
8.8162 22.616
8.8314 22.590
8.8466 22.601
8.8617 22.709
8.8769 22.505
8.8921 22.596
8.9073 22.431
8.9224 22.778
8.9376 22.918
8.9528 23.002
8.9680 22.939
8.9831 22.953
8.9983 22.911
9.0135 22.849
9.0287 22.665
9.0438 23.265
9.0590 23.133
9.0742 23.105
9.0894 22.918
9.1045 23.048
9.1197 23.033
9.1349 23.133
9.1501 22.913
9.1652 22.969
9.1804 23.189
9.1956 22.897
9.2108 23.066
9.2259 23.178
9.2411 23.277
9.2563 23.095
9.2715 22.968
9.2866 22.847
9.3018 22.950
9.3170 23.289
9.3322 23.157
9.3473 22.933
9.3625 22.891
9.3777 22.911
9.3929 23.391
9.4080 23.173
9.4232 22.917
9.4384 22.929
9.4536 23.019
9.4687 23.257
9.4839 23.111
9.4991 23.183
9.5143 23.651
9.5294 23.531
9.5446 23.305
9.5598 23.381
9.5750 23.554
9.5901 23.477
9.6053 23.306
9.6205 23.552
9.6357 23.638
9.6508 23.766
9.6660 23.636
9.6812 23.528
9.6964 23.813
9.7115 23.799
9.7267 24.021
9.7419 24.447
9.7571 24.469
9.7722 24.044
9.7874 23.867
9.8026 24.038
9.8178 23.642
9.8329 23.254
9.8481 23.430
9.8633 23.667
9.8785 23.334
9.8936 23.248
9.9088 23.731
9.9240 23.773
9.9392 23.638
9.9543 23.602
9.9695 23.485
9.9847 23.467
9.9999 23.582
10.0150 23.607
10.0302 23.712
10.0454 23.580
10.0606 23.203
10.0757 23.195
10.0909 23.125
10.1061 23.026
10.1213 23.048
10.1364 23.380
10.1516 23.485
10.1668 23.378
10.1820 23.199
10.1971 23.082
10.2123 23.349
10.2275 23.814
10.2427 23.197
10.2578 22.954
10.2730 23.023
10.2882 22.823
10.3034 22.937
10.3185 23.135
10.3337 23.323
10.3489 23.163
10.3641 23.086
10.3792 23.141
10.3944 22.990
10.4096 22.997
10.4248 23.177
10.4399 23.437
10.4551 22.758
10.4703 22.774
10.4855 23.253
10.5006 23.185
10.5158 22.692
10.5310 22.762
10.5462 22.637
10.5613 22.478
10.5765 22.731
10.5917 22.470
10.6069 22.220
10.6220 22.429
10.6372 22.607
10.6524 22.530
10.6676 22.587
10.6827 22.803
10.6979 23.034
10.7131 22.849
10.7283 22.821
10.7434 22.482
10.7586 22.071
10.7738 22.573
10.7890 22.296
10.8041 22.590
10.8193 22.574
10.8345 22.435
10.8497 22.070
10.8648 22.088
10.8800 22.118
10.8952 22.427
10.9104 21.994
10.9255 22.187
10.9407 22.139
10.9559 22.029
10.9711 22.009
10.9862 22.134
11.0014 21.992
11.0166 22.119
11.0318 22.153
11.0469 22.135
11.0621 21.821
11.0773 22.178
11.0925 22.187
11.1076 22.003
11.1228 21.808
11.1380 21.953
11.1532 21.917
11.1683 21.878
11.1835 21.844
11.1987 21.536
11.2139 21.650
11.2290 21.755
11.2442 21.341
11.2594 21.419
11.2746 21.607
11.2897 21.729
11.3049 21.578
11.3201 21.606
11.3353 21.294
11.3504 21.236
11.3656 21.366
11.3808 21.543
11.3960 21.533
11.4111 21.527
11.4263 21.512
11.4415 21.346
11.4567 21.252
11.4718 21.219
11.4870 21.470
11.5022 21.330
11.5174 21.011
11.5325 21.146
11.5477 21.412
11.5629 21.230
11.5781 21.084
11.5932 21.070
11.6084 21.259
11.6236 20.862
11.6388 20.774
11.6539 20.454
11.6691 20.624
11.6843 20.449
11.6995 20.427
11.7146 20.676
11.7298 20.698
11.7450 20.365
11.7602 20.405
11.7753 20.262
11.7905 19.943
11.8057 20.255
11.8209 20.140
11.8360 20.465
11.8512 20.189
11.8664 19.911
11.8816 20.015
11.8967 19.773
11.9119 19.503
11.9271 19.282
11.9423 19.574
11.9574 19.581
11.9726 19.022
11.9878 19.130
12.0030 19.277
12.0181 19.487
12.0333 19.283
12.0485 19.083
12.0637 19.012
12.0788 19.164
12.0940 18.948
12.1092 18.751
12.1244 18.655
12.1395 18.613
12.1547 18.537
12.1699 18.624
12.1851 18.133
12.2002 17.926
12.2154 18.244
12.2306 18.278
12.2458 18.114
12.2609 17.935
12.2761 17.830
12.2913 17.761
12.3065 18.028
12.3216 17.912
12.3368 17.772
12.3520 17.441
12.3672 17.146
12.3823 17.324
12.3975 17.349
12.4127 17.410
12.4279 17.204
12.4430 17.113
12.4582 17.023
12.4734 17.004
12.4886 16.781
12.5037 16.905
12.5189 16.959
12.5341 16.772
12.5493 16.742
12.5644 16.499
12.5796 16.610
12.5948 16.213
12.6100 16.336
12.6251 16.507
12.6403 16.084
12.6555 15.804
12.6707 15.951
12.6858 15.749
12.7010 15.706
12.7162 15.672
12.7314 15.535
12.7465 15.337
12.7617 15.368
12.7769 15.313
12.7921 15.234
12.8072 15.203
12.8224 15.025
12.8376 14.817
12.8528 14.938
12.8679 15.240
12.8831 15.059
12.8983 14.822
12.9135 14.790
12.9286 14.592
12.9438 14.231
12.9590 14.476
12.9742 14.676
12.9893 14.568
13.0045 14.371
13.0197 14.016
13.0349 14.016
13.0500 14.183
13.0652 14.104
13.0804 14.065
13.0956 13.934
13.1107 13.738
13.1259 13.898
13.1411 13.901
13.1563 13.843
13.1714 13.944
13.1866 13.692
13.2018 13.496
13.2170 13.503
13.2321 13.576
13.2473 13.764
13.2625 13.587
13.2777 13.267
13.2928 13.285
13.3080 13.160
13.3232 12.899
13.3384 13.065
13.3535 13.351
13.3687 13.300
13.3839 13.037
13.3991 12.960
13.4142 12.930
13.4294 12.877
13.4446 12.838
13.4598 12.842
13.4749 12.784
13.4901 12.897
13.5053 12.818
13.5205 12.680
13.5356 12.721
13.5508 12.605
13.5660 12.597
13.5812 12.491
13.5963 12.263
13.6115 12.292
13.6267 12.310
13.6419 12.362
13.6570 12.400
13.6722 12.373
13.6874 12.237
13.7026 11.966
13.7177 12.049
13.7329 11.981
13.7481 12.103
13.7633 12.314
13.7784 12.112
13.7936 12.168
13.8088 12.113
13.8239 11.987
13.8391 12.269
13.8543 12.487
13.8695 12.371
13.8846 12.570
13.8998 12.462
13.9150 12.147
13.9302 12.130
13.9453 11.945
13.9605 12.088
13.9757 11.772
13.9909 11.641
14.0060 11.379
14.0212 11.383
14.0364 11.688
14.0516 11.639
14.0667 11.515
14.0819 11.593
14.0971 11.314
14.1123 11.282
14.1274 11.230
14.1426 11.410
14.1578 11.416
14.1730 11.273
14.1881 11.255
14.2033 11.152
14.2185 11.268
14.2337 11.367
14.2488 11.385
14.2640 11.263
14.2792 11.237
14.2944 11.295
14.3095 11.374
14.3247 11.457
14.3399 11.743
14.3551 12.031
14.3702 12.013
14.3854 12.332
14.4006 12.654
14.4158 12.515
14.4309 12.551
14.4461 12.684
14.4613 12.474
14.4765 12.442
14.4916 12.134
14.5068 11.902
14.5220 11.421
14.5372 11.429
14.5523 11.327
14.5675 11.675
14.5827 11.342
14.5979 11.319
14.6130 11.202
14.6282 11.312
14.6434 10.769
14.6586 10.909
14.6737 10.985
14.6889 10.978
14.7041 11.170
14.7193 11.124
14.7344 11.289
14.7496 11.294
14.7648 11.232
14.7800 11.071
14.7951 10.851
14.8103 10.832
14.8255 11.033
14.8407 10.699
14.8558 10.989
14.8710 10.651
14.8862 10.997
14.9014 10.827
14.9165 10.943
14.9317 10.866
14.9469 10.574
14.9621 10.977
14.9772 10.351
14.9924 10.510
15.0076 10.306
15.0228 10.997
15.0379 10.738
15.0531 10.809
15.0683 10.568
15.0835 10.180
15.0986 10.326
15.1138 10.654
15.1290 10.477
15.1442 10.351
15.1593 10.619
15.1745 10.270
15.1897 10.371
15.2049 10.248
15.2200 10.555
15.2352 10.518
15.2504 10.448
15.2656 10.407
15.2807 10.039
15.2959 10.094
15.3111 9.930
15.3263 10.530
15.3414 10.331
15.3566 10.428
15.3718 10.465
15.3870 10.353
15.4021 10.641
15.4173 10.242
15.4325 10.479
15.4477 10.466
15.4628 10.359
15.4780 10.532
15.4932 10.141
15.5084 10.545
15.5235 10.199
15.5387 10.593
15.5539 10.473
15.5691 10.564
15.5842 10.283
15.5994 10.324
15.6146 10.120
15.6298 10.089
15.6449 10.418
15.6601 10.206
15.6753 10.097
15.6905 9.731
15.7056 10.136
15.7208 9.994
15.7360 10.046
15.7512 9.972
15.7663 9.902
15.7815 9.947
15.7967 9.862
15.8119 9.774
15.8270 9.777
15.8422 10.049
15.8574 10.120
15.8726 9.770
15.8877 9.908
15.9029 9.866
15.9181 9.690
15.9333 9.740
15.9484 10.020
15.9636 9.722
15.9788 9.741
15.9940 9.768
16.0091 9.711
16.0243 9.679
16.0395 9.735
16.0547 9.551
16.0698 9.594
16.0850 10.002
16.1002 9.763
16.1154 9.816
16.1305 9.917
16.1457 9.925
16.1609 9.774
16.1761 10.006
16.1912 9.848
16.2064 9.839
16.2216 10.083
16.2368 9.928
16.2519 10.155
16.2671 9.734
16.2823 9.881
16.2975 10.021
16.3126 10.123
16.3278 10.059
16.3430 10.142
16.3582 10.058
16.3733 9.973
16.3885 10.025
16.4037 10.158
16.4189 10.143
16.4340 9.748
16.4492 9.864
16.4644 10.005
16.4796 9.996
16.4947 10.087
16.5099 10.189
16.5251 9.983
16.5403 9.769
16.5554 9.737
16.5706 9.842
16.5858 9.878
16.6010 9.854
16.6161 9.922
16.6313 9.883
16.6465 9.754
16.6617 9.871
16.6768 10.198
16.6920 10.079
16.7072 10.235
16.7224 10.205
16.7375 10.144
16.7527 10.192
16.7679 10.141
16.7831 10.050
16.7982 10.118
16.8134 10.024
16.8286 9.993
16.8438 10.142
16.8589 10.155
16.8741 10.063
16.8893 9.932
16.9045 9.785
16.9196 10.052
16.9348 10.130
16.9500 9.977
16.9652 9.998
16.9803 10.104
16.9955 9.899
17.0107 9.884
17.0259 10.101
17.0410 10.191
17.0562 10.198
17.0714 10.437
17.0866 10.561
17.1017 10.587
17.1169 10.771
17.1321 11.045
17.1473 11.501
17.1624 12.171
17.1776 12.638
17.1928 13.203
17.2080 14.109
17.2231 15.017
17.2383 16.111
17.2535 17.613
17.2687 18.547
17.2838 18.554
17.2990 18.005
17.3142 17.099
17.3294 16.504
17.3445 16.226
17.3597 16.018
17.3749 15.836
17.3901 15.268
17.4052 14.392
17.4204 13.453
17.4356 12.638
17.4508 12.094
17.4659 11.582
17.4811 11.184
17.4963 11.022
17.5115 10.810
17.5266 10.631
17.5418 10.563
17.5570 10.449
17.5722 10.386
17.5873 10.343
17.6025 10.235
17.6177 10.043
17.6329 10.105
17.6480 10.049
17.6632 9.925
17.6784 10.140
17.6936 10.313
17.7087 10.325
17.7239 10.101
17.7391 10.019
17.7543 10.216
17.7694 10.391
17.7846 10.615
17.7998 10.753
17.8150 10.814
17.8301 10.955
17.8453 10.817
17.8605 10.736
17.8757 11.135
17.8908 11.281
17.9060 11.256
17.9212 11.131
17.9364 10.876
17.9515 10.522
17.9667 10.721
17.9819 10.807
17.9971 10.666
18.0122 10.649
18.0274 10.416
18.0426 10.533
18.0578 10.580
18.0729 10.516
18.0881 10.233
18.1033 10.126
18.1185 10.113
18.1336 10.046
18.1488 10.022
18.1640 9.980
18.1792 9.932
18.1943 9.972
18.2095 10.077
18.2247 10.055
18.2399 9.890
18.2550 9.956
18.2702 10.001
18.2854 10.053
18.3006 10.098
18.3157 9.936
18.3309 9.601
18.3461 9.662
18.3613 9.897
18.3764 10.061
18.3916 9.738
18.4068 9.725
18.4220 9.801
18.4371 9.918
18.4523 9.807
18.4675 9.700
18.4827 9.640
18.4978 9.596
18.5130 9.819
18.5282 9.774
18.5434 9.928
18.5585 10.058
18.5737 9.781
18.5889 9.558
18.6041 9.636
18.6192 9.617
18.6344 9.666
18.6496 9.558
18.6648 9.893
18.6799 9.752
18.6951 9.585
18.7103 9.556
18.7255 9.524
18.7406 9.590
18.7558 9.957
18.7710 10.004
18.7862 9.709
18.8013 9.819
18.8165 9.719
18.8317 9.789
18.8469 9.888
18.8620 9.743
18.8772 9.858
18.8924 10.013
18.9076 9.975
18.9227 9.819
18.9379 9.838
18.9531 9.922
18.9683 9.964
18.9834 9.941
18.9986 10.138
19.0138 10.138
19.0290 10.240
19.0441 10.232
19.0593 10.054
19.0745 10.214
19.0897 10.441
19.1048 10.311
19.1200 10.429
19.1352 10.486
19.1504 10.434
19.1655 10.396
19.1807 10.518
19.1959 10.758
19.2111 10.792
19.2262 10.994
19.2414 11.046
19.2566 11.223
19.2718 11.097
19.2869 10.797
19.3021 10.875
19.3173 10.954
19.3325 11.173
19.3476 11.199
19.3628 11.080
19.3780 11.176
19.3932 11.224
19.4083 11.118
19.4235 11.173
19.4387 11.310
19.4539 11.405
19.4690 11.414
19.4842 11.397
19.4994 11.470
19.5146 11.491
19.5297 11.406
19.5449 11.512
19.5601 11.519
19.5753 11.651
19.5904 11.750
19.6056 11.693
19.6208 11.832
19.6360 11.763
19.6511 11.703
19.6663 11.609
19.6815 11.492
19.6967 11.607
19.7118 11.525
19.7270 11.610
19.7422 11.771
19.7574 11.534
19.7725 11.724
19.7877 12.073
19.8029 11.933
19.8180 11.966
19.8332 12.280
19.8484 12.558
19.8636 12.641
19.8787 12.613
19.8939 12.740
19.9091 13.186
19.9243 13.460
19.9394 13.732
19.9546 14.095
19.9698 14.497
19.9850 14.699
20.0001 14.628
20.0153 14.310
20.0305 13.952
20.0457 13.972
20.0608 13.949
20.0760 13.633
20.0912 13.528
20.1064 13.598
20.1215 13.290
20.1367 13.255
20.1519 12.873
20.1671 12.901
20.1822 12.971
20.1974 12.699
20.2126 12.652
20.2278 12.629
20.2429 12.415
20.2581 12.283
20.2733 12.001
20.2885 11.698
20.3036 11.464
20.3188 11.616
20.3340 11.520
20.3492 11.421
20.3643 11.509
20.3795 11.360
20.3947 10.927
20.4099 10.889
20.4250 10.871
20.4402 10.753
20.4554 10.874
20.4706 11.018
20.4857 10.768
20.5009 10.721
20.5161 10.519
20.5313 10.543
20.5464 10.584
20.5616 10.391
20.5768 10.285
20.5920 10.317
20.6071 10.514
20.6223 10.542
20.6375 10.350
20.6527 10.330
20.6678 10.309
20.6830 10.587
20.6982 10.181
20.7134 10.305
20.7285 10.403
20.7437 10.352
20.7589 10.364
20.7741 10.459
20.7892 10.350
20.8044 9.951
20.8196 10.513
20.8348 10.345
20.8499 10.250
20.8651 10.471
20.8803 10.452
20.8955 10.329
20.9106 10.002
20.9258 10.084
20.9410 10.271
20.9562 10.540
20.9713 10.547
20.9865 10.464
21.0017 10.096
21.0169 10.235
21.0320 10.313
21.0472 10.091
21.0624 10.281
21.0776 10.170
21.0927 10.103
21.1079 10.099
21.1231 9.799
21.1383 10.112
21.1534 9.946
21.1686 9.781
21.1838 9.910
21.1990 9.797
21.2141 9.900
21.2293 9.971
21.2445 9.805
21.2597 10.098
21.2748 9.488
21.2900 9.837
21.3052 9.847
21.3204 9.781
21.3355 9.544
21.3507 9.409
21.3659 9.668
21.3811 9.701
21.3962 9.564
21.4114 9.708
21.4266 9.379
21.4418 9.440
21.4569 9.256
21.4721 9.216
21.4873 9.272
21.5025 9.183
21.5176 9.364
21.5328 9.285
21.5480 9.441
21.5632 9.278
21.5783 9.025
21.5935 9.113
21.6087 9.264
21.6239 9.225
21.6390 9.280
21.6542 9.517
21.6694 8.955
21.6846 9.105
21.6997 9.038
21.7149 9.017
21.7301 9.003
21.7453 9.076
21.7604 8.931
21.7756 8.908
21.7908 8.994
21.8060 9.190
21.8211 9.171
21.8363 8.861
21.8515 8.947
21.8667 9.170
21.8818 9.115
21.8970 8.828
21.9122 8.847
21.9274 8.870
21.9425 8.688
21.9577 8.895
21.9729 8.954
21.9881 9.078
22.0032 9.046
22.0184 8.898
22.0336 8.729
22.0488 8.672
22.0639 8.568
22.0791 8.594
22.0943 8.686
22.1095 8.637
22.1246 8.481
22.1398 8.482
22.1550 8.664
22.1702 8.458
22.1853 8.334
22.2005 8.508
22.2157 8.697
22.2309 8.533
22.2460 8.464
22.2612 8.653
22.2764 8.746
22.2916 8.743
22.3067 8.499
22.3219 8.657
22.3371 8.655
22.3523 8.673
22.3674 8.586
22.3826 8.658
22.3978 8.547
22.4130 8.680
22.4281 8.640
22.4433 8.612
22.4585 8.557
22.4737 8.926
22.4888 8.349
22.5040 8.200
22.5192 8.358
22.5344 8.327
22.5495 8.257
22.5647 8.491
22.5799 8.639
22.5951 8.529
22.6102 8.606
22.6254 8.362
22.6406 8.288
22.6558 8.275
22.6709 8.125
22.6861 8.411
22.7013 8.338
22.7165 7.914
22.7316 6.363
