'Id: "" Comment: "" Operator: "Lab Manager" Anode: "Mo" Scantype: "Still (Eiger2R_500K (1D mode))" TimePerStep: "300" X: "11.8" Y: "9.4" Z: "11.284" 
7.2532 18.323
7.2684 18.750
7.2836 18.710
7.2987 18.393
7.3139 19.263
7.3291 19.176
7.3443 19.595
7.3594 19.216
7.3746 19.376
7.3898 18.970
7.4050 19.150
7.4201 19.670
7.4353 19.420
7.4505 19.395
7.4657 19.812
7.4808 19.398
7.4960 19.884
7.5112 20.044
7.5264 19.950
7.5415 20.019
7.5567 20.088
7.5719 19.852
7.5871 20.060
7.6022 20.130
7.6174 20.403
7.6326 20.354
7.6478 20.317
7.6629 20.059
7.6781 20.319
7.6933 20.410
7.7085 20.123
7.7236 20.349
7.7388 20.659
7.7540 20.720
7.7692 20.598
7.7843 20.395
7.7995 20.251
7.8147 20.654
7.8299 20.958
7.8450 20.889
7.8602 20.957
7.8754 21.034
7.8905 21.273
7.9057 21.149
7.9209 21.070
7.9361 21.070
7.9512 21.019
7.9664 20.994
7.9816 20.966
7.9968 21.108
8.0119 20.908
8.0271 21.382
8.0423 21.333
8.0575 21.174
8.0726 21.235
8.0878 21.369
8.1030 21.408
8.1182 21.379
8.1333 21.250
8.1485 21.263
8.1637 21.540
8.1789 21.555
8.1940 21.404
8.2092 21.723
8.2244 21.469
8.2396 21.613
8.2547 21.625
8.2699 22.089
8.2851 21.829
8.3003 21.858
8.3154 21.891
8.3306 21.770
8.3458 21.962
8.3610 21.815
8.3761 21.869
8.3913 22.174
8.4065 22.226
8.4217 22.192
8.4368 23.104
8.4520 21.870
8.4672 21.814
8.4824 22.432
8.4975 22.035
8.5127 21.823
8.5279 22.643
8.5431 22.755
8.5582 22.583
8.5734 22.230
8.5886 22.193
8.6038 22.569
8.6189 22.224
8.6341 22.164
8.6493 22.400
8.6645 22.281
8.6796 22.227
8.6948 22.981
8.7100 22.770
8.7252 22.258
8.7403 23.138
8.7555 22.953
8.7707 22.508
8.7859 22.606
8.8010 22.873
8.8162 22.765
8.8314 22.978
8.8466 22.793
8.8617 22.655
8.8769 22.289
8.8921 22.353
8.9073 23.062
8.9224 23.165
8.9376 22.987
8.9528 22.811
8.9680 22.826
8.9831 22.596
8.9983 23.019
9.0135 23.092
9.0287 22.899
9.0438 22.679
9.0590 22.819
9.0742 22.955
9.0894 22.649
9.1045 22.650
9.1197 22.767
9.1349 22.811
9.1501 22.865
9.1652 23.100
9.1804 23.149
9.1956 22.969
9.2108 23.044
9.2259 23.130
9.2411 23.186
9.2563 23.054
9.2715 22.898
9.2866 23.152
9.3018 22.904
9.3170 23.070
9.3322 23.028
9.3473 23.251
9.3625 23.118
9.3777 23.366
9.3929 23.235
9.4080 23.139
9.4232 23.234
9.4384 23.590
9.4536 23.784
9.4687 23.254
9.4839 23.016
9.4991 23.301
9.5143 23.049
9.5294 23.054
9.5446 23.247
9.5598 23.316
9.5750 23.169
9.5901 23.389
9.6053 23.506
9.6205 23.578
9.6357 23.888
9.6508 23.839
9.6660 23.623
9.6812 23.988
9.6964 24.345
9.7115 24.488
9.7267 24.156
9.7419 24.114
9.7571 24.434
9.7722 24.495
9.7874 24.466
9.8026 23.873
9.8178 23.492
9.8329 23.695
9.8481 23.427
9.8633 23.325
9.8785 23.430
9.8936 23.543
9.9088 23.654
9.9240 23.375
9.9392 23.136
9.9543 23.385
9.9695 23.639
9.9847 23.588
9.9999 23.498
10.0150 23.568
10.0302 23.809
10.0454 23.780
10.0606 23.300
10.0757 23.423
10.0909 23.616
10.1061 23.761
10.1213 23.498
10.1364 23.273
10.1516 23.670
10.1668 23.759
10.1820 23.908
10.1971 24.099
10.2123 23.966
10.2275 23.944
10.2427 24.304
10.2578 24.180
10.2730 23.970
10.2882 23.472
10.3034 23.123
10.3185 23.257
10.3337 23.592
10.3489 23.442
10.3641 23.064
10.3792 23.410
10.3944 23.311
10.4096 22.988
10.4248 23.119
10.4399 22.959
10.4551 22.905
10.4703 22.817
10.4855 22.574
10.5006 22.495
10.5158 22.624
10.5310 22.677
10.5462 22.847
10.5613 22.538
10.5765 22.482
10.5917 22.864
10.6069 23.033
10.6220 22.946
10.6372 22.581
10.6524 22.545
10.6676 22.479
10.6827 22.773
10.6979 22.342
10.7131 22.277
10.7283 22.610
10.7434 22.275
10.7586 22.364
10.7738 22.423
10.7890 22.298
10.8041 22.479
10.8193 22.455
10.8345 22.576
10.8497 22.608
10.8648 22.534
10.8800 22.376
10.8952 22.079
10.9104 22.393
10.9255 22.218
10.9407 22.154
10.9559 22.148
10.9711 21.957
10.9862 22.013
11.0014 22.367
11.0166 22.760
11.0318 22.688
11.0469 22.224
11.0621 21.860
11.0773 22.372
11.0925 21.988
11.1076 21.833
11.1228 21.825
11.1380 21.963
11.1532 21.928
11.1683 22.035
11.1835 22.108
11.1987 21.813
11.2139 21.619
11.2290 21.723
11.2442 22.164
11.2594 22.532
11.2746 22.151
11.2897 21.846
11.3049 21.602
11.3201 21.742
11.3353 21.866
11.3504 21.554
11.3656 21.470
11.3808 21.643
11.3960 21.796
11.4111 21.665
11.4263 21.367
11.4415 21.311
11.4567 21.264
11.4718 21.504
11.4870 21.299
11.5022 21.252
11.5174 21.088
11.5325 20.817
11.5477 20.909
11.5629 20.535
11.5781 20.766
11.5932 20.919
11.6084 21.434
11.6236 20.863
11.6388 20.859
11.6539 20.664
11.6691 20.986
11.6843 20.795
11.6995 20.632
11.7146 20.535
11.7298 20.623
11.7450 20.318
11.7602 20.428
11.7753 20.314
11.7905 20.242
11.8057 20.167
11.8209 20.004
11.8360 20.326
11.8512 20.002
11.8664 19.816
11.8816 20.145
11.8967 20.182
11.9119 20.041
11.9271 20.136
11.9423 19.674
11.9574 19.498
11.9726 19.537
11.9878 19.288
12.0030 19.362
12.0181 19.414
12.0333 18.828
12.0485 18.682
12.0637 18.912
12.0788 18.973
12.0940 18.806
12.1092 18.351
12.1244 18.326
12.1395 18.586
12.1547 18.860
12.1699 18.763
12.1851 18.385
12.2002 18.511
12.2154 18.582
12.2306 18.423
12.2458 18.205
12.2609 18.068
12.2761 18.341
12.2913 18.277
12.3065 17.794
12.3216 17.776
12.3368 17.888
12.3520 17.630
12.3672 17.426
12.3823 17.491
12.3975 17.367
12.4127 17.423
12.4279 17.394
12.4430 17.257
12.4582 17.237
12.4734 17.533
12.4886 17.321
12.5037 17.030
12.5189 16.819
12.5341 16.875
12.5493 16.574
12.5644 16.525
12.5796 16.544
12.5948 16.493
12.6100 16.321
12.6251 16.202
12.6403 15.954
12.6555 15.730
12.6707 15.820
12.6858 15.991
12.7010 16.015
12.7162 16.107
12.7314 16.005
12.7465 15.612
12.7617 15.280
12.7769 15.053
12.7921 15.076
12.8072 15.313
12.8224 15.517
12.8376 15.436
12.8528 15.053
12.8679 14.720
12.8831 14.832
12.8983 14.807
12.9135 14.629
12.9286 14.492
12.9438 14.351
12.9590 14.405
12.9742 14.380
12.9893 14.409
13.0045 14.445
13.0197 14.431
13.0349 14.292
13.0500 13.996
13.0652 14.182
13.0804 14.314
13.0956 14.108
13.1107 13.966
13.1259 13.903
13.1411 13.855
13.1563 13.856
13.1714 13.742
13.1866 13.620
13.2018 13.638
13.2170 13.455
13.2321 13.440
13.2473 13.361
13.2625 13.202
13.2777 13.394
13.2928 13.256
13.3080 13.200
13.3232 13.183
13.3384 12.779
13.3535 12.967
13.3687 13.279
13.3839 13.092
13.3991 12.925
13.4142 13.073
13.4294 12.962
13.4446 12.836
13.4598 12.978
13.4749 12.870
13.4901 12.806
13.5053 12.785
13.5205 12.631
13.5356 12.489
13.5508 12.309
13.5660 12.468
13.5812 12.393
13.5963 12.196
13.6115 12.049
13.6267 12.164
13.6419 12.215
13.6570 12.038
13.6722 11.861
13.6874 11.930
13.7026 11.958
13.7177 11.843
13.7329 12.098
13.7481 12.069
13.7633 12.002
13.7784 12.259
13.7936 12.308
13.8088 12.328
13.8239 12.477
13.8391 12.255
13.8543 12.159
13.8695 12.055
13.8846 12.141
13.8998 12.211
13.9150 12.085
13.9302 12.100
13.9453 12.130
13.9605 12.129
13.9757 12.142
13.9909 11.788
14.0060 11.573
14.0212 11.573
14.0364 11.601
14.0516 11.666
14.0667 11.566
14.0819 11.469
14.0971 11.557
14.1123 11.728
14.1274 11.550
14.1426 11.624
14.1578 11.509
14.1730 11.510
14.1881 11.907
14.2033 11.878
14.2185 12.037
14.2337 11.968
14.2488 12.162
14.2640 12.046
14.2792 11.815
14.2944 12.152
14.3095 12.419
14.3247 12.540
14.3399 12.255
14.3551 12.329
14.3702 13.013
14.3854 13.058
14.4006 12.809
14.4158 12.920
14.4309 12.743
14.4461 12.193
14.4613 12.254
14.4765 12.362
14.4916 12.418
14.5068 12.177
14.5220 11.561
14.5372 11.422
14.5523 11.410
14.5675 11.532
14.5827 11.230
14.5979 11.156
14.6130 11.179
14.6282 11.372
14.6434 11.206
14.6586 11.118
14.6737 11.180
14.6889 10.998
14.7041 10.702
14.7193 10.956
14.7344 10.710
14.7496 10.858
14.7648 10.838
14.7800 10.768
14.7951 10.689
14.8103 11.126
14.8255 10.953
14.8407 10.933
14.8558 10.517
14.8710 10.419
14.8862 10.578
14.9014 10.262
14.9165 10.932
14.9317 10.840
14.9469 10.517
14.9621 10.640
14.9772 10.697
14.9924 10.346
15.0076 10.633
15.0228 10.503
15.0379 10.699
15.0531 10.964
15.0683 10.626
15.0835 10.495
15.0986 10.759
15.1138 10.709
15.1290 10.664
15.1442 10.382
15.1593 10.511
15.1745 10.369
15.1897 10.493
15.2049 10.149
15.2200 10.237
15.2352 10.190
15.2504 10.582
15.2656 10.557
15.2807 10.382
15.2959 10.066
15.3111 10.445
15.3263 10.113
15.3414 10.449
15.3566 10.291
15.3718 10.526
15.3870 10.109
15.4021 10.323
15.4173 10.762
15.4325 10.103
15.4477 10.512
15.4628 10.603
15.4780 10.444
15.4932 10.317
15.5084 10.099
15.5235 10.234
15.5387 10.382
15.5539 10.694
15.5691 10.344
15.5842 10.381
15.5994 9.924
15.6146 10.078
15.6298 10.011
15.6449 10.115
15.6601 10.249
15.6753 10.023
15.6905 9.560
15.7056 10.131
15.7208 10.028
15.7360 9.657
15.7512 10.089
15.7663 9.996
15.7815 9.802
15.7967 9.978
15.8119 9.761
15.8270 9.802
15.8422 9.711
15.8574 9.681
15.8726 9.700
15.8877 9.882
15.9029 9.868
15.9181 9.786
15.9333 10.062
15.9484 10.152
15.9636 9.858
15.9788 9.977
15.9940 9.649
16.0091 9.717
16.0243 9.759
16.0395 10.110
16.0547 9.814
16.0698 9.663
16.0850 9.716
16.1002 9.728
16.1154 9.835
16.1305 9.979
16.1457 9.965
16.1609 9.726
16.1761 9.566
16.1912 9.657
16.2064 10.029
16.2216 9.890
16.2368 9.919
16.2519 9.893
16.2671 10.092
16.2823 9.962
16.2975 9.991
16.3126 9.925
16.3278 9.910
16.3430 10.050
16.3582 9.801
16.3733 9.783
16.3885 9.900
16.4037 10.135
16.4189 10.029
16.4340 10.013
16.4492 9.949
16.4644 9.724
16.4796 9.817
16.4947 9.751
16.5099 9.842
16.5251 9.816
16.5403 9.648
16.5554 9.675
16.5706 9.794
16.5858 9.860
16.6010 9.950
16.6161 9.873
16.6313 9.795
16.6465 9.778
16.6617 9.796
16.6768 9.871
16.6920 10.028
16.7072 9.867
16.7224 9.907
16.7375 10.064
16.7527 10.000
16.7679 10.053
16.7831 9.949
16.7982 9.995
16.8134 10.136
16.8286 10.092
16.8438 9.903
16.8589 9.799
16.8741 9.796
16.8893 9.840
16.9045 9.921
16.9196 9.697
16.9348 9.711
16.9500 9.802
16.9652 9.857
16.9803 9.813
16.9955 9.786
17.0107 9.739
17.0259 9.803
17.0410 10.113
17.0562 10.087
17.0714 10.128
17.0866 10.316
17.1017 10.519
17.1169 10.587
17.1321 11.070
17.1473 11.595
17.1624 11.950
17.1776 12.299
17.1928 13.081
17.2080 14.185
17.2231 15.159
17.2383 16.430
17.2535 17.734
17.2687 18.663
17.2838 18.711
17.2990 18.090
17.3142 17.223
17.3294 16.413
17.3445 16.091
17.3597 16.143
17.3749 15.869
17.3901 15.304
17.4052 14.406
17.4204 13.278
17.4356 12.649
17.4508 12.210
17.4659 11.812
17.4811 11.601
17.4963 11.612
17.5115 11.579
17.5266 11.387
17.5418 11.539
17.5570 11.561
17.5722 11.523
17.5873 11.508
17.6025 11.328
17.6177 11.431
17.6329 11.294
17.6480 11.085
17.6632 11.066
17.6784 11.158
17.6936 10.959
17.7087 10.676
17.7239 10.522
17.7391 10.521
17.7543 10.541
17.7694 10.583
17.7846 10.450
17.7998 10.276
17.8150 10.300
17.8301 10.307
17.8453 10.259
17.8605 10.183
17.8757 10.032
17.8908 10.184
17.9060 10.465
17.9212 10.419
17.9364 10.238
17.9515 10.140
17.9667 10.184
17.9819 10.375
17.9971 10.235
18.0122 10.436
18.0274 10.556
18.0426 10.359
18.0578 10.368
18.0729 10.376
18.0881 10.115
18.1033 9.911
18.1185 9.810
18.1336 9.979
18.1488 10.136
18.1640 10.115
18.1792 9.993
18.1943 9.732
18.2095 10.042
18.2247 10.026
18.2399 9.773
18.2550 9.771
18.2702 9.612
18.2854 9.803
18.3006 9.828
18.3157 9.832
18.3309 9.833
18.3461 9.821
18.3613 9.890
18.3764 9.861
18.3916 9.911
18.4068 9.803
18.4220 9.763
18.4371 9.889
18.4523 9.853
18.4675 9.798
18.4827 9.681
18.4978 9.798
18.5130 9.812
18.5282 9.875
18.5434 9.664
18.5585 9.521
18.5737 9.711
18.5889 9.561
18.6041 9.589
18.6192 9.878
18.6344 9.701
18.6496 9.495
18.6648 9.602
18.6799 9.755
18.6951 9.911
18.7103 9.601
18.7255 9.499
18.7406 9.625
18.7558 9.622
18.7710 9.609
18.7862 9.670
18.8013 9.613
18.8165 9.740
18.8317 9.932
18.8469 9.993
18.8620 9.943
18.8772 10.181
18.8924 10.059
18.9076 9.873
18.9227 9.891
18.9379 9.990
18.9531 9.990
18.9683 9.853
18.9834 9.916
18.9986 10.278
19.0138 10.285
19.0290 10.080
19.0441 10.192
19.0593 10.267
19.0745 10.242
19.0897 10.426
19.1048 10.396
19.1200 10.564
19.1352 10.655
19.1504 10.436
19.1655 10.470
19.1807 10.493
19.1959 10.554
19.2111 10.855
19.2262 10.839
19.2414 10.747
19.2566 10.794
19.2718 10.724
19.2869 10.959
19.3021 11.031
19.3173 10.878
19.3325 10.831
19.3476 10.922
19.3628 11.122
19.3780 11.223
19.3932 11.386
19.4083 11.197
19.4235 11.217
19.4387 11.473
19.4539 11.409
19.4690 11.158
19.4842 11.334
19.4994 11.356
19.5146 11.566
19.5297 11.549
19.5449 11.355
19.5601 11.538
19.5753 11.692
19.5904 11.649
19.6056 11.629
19.6208 11.535
19.6360 11.561
19.6511 11.527
19.6663 11.658
19.6815 11.936
19.6967 11.705
19.7118 11.742
19.7270 12.049
19.7422 11.914
19.7574 11.619
19.7725 11.696
19.7877 11.977
19.8029 12.037
19.8180 12.185
19.8332 12.293
19.8484 12.499
19.8636 12.697
19.8787 12.532
19.8939 12.513
19.9091 12.802
19.9243 13.428
19.9394 13.964
19.9546 14.107
19.9698 14.158
19.9850 14.390
20.0001 14.448
20.0153 14.243
20.0305 14.183
20.0457 13.992
20.0608 13.698
20.0760 13.847
20.0912 13.842
20.1064 13.719
20.1215 13.690
20.1367 13.454
20.1519 13.269
20.1671 13.102
20.1822 13.009
20.1974 12.819
20.2126 12.873
20.2278 12.926
20.2429 12.764
20.2581 12.469
20.2733 12.321
20.2885 12.046
20.3036 11.791
20.3188 11.736
20.3340 11.787
20.3492 11.687
20.3643 11.333
20.3795 11.415
20.3947 11.243
20.4099 10.944
20.4250 10.922
20.4402 10.734
20.4554 10.979
20.4706 10.969
20.4857 10.892
20.5009 10.823
20.5161 10.645
20.5313 10.641
20.5464 10.745
20.5616 10.712
20.5768 10.628
20.5920 10.933
20.6071 10.902
20.6223 10.897
20.6375 10.829
20.6527 10.804
20.6678 10.746
20.6830 10.542
20.6982 10.789
20.7134 10.705
20.7285 10.648
20.7437 10.577
20.7589 10.332
20.7741 10.358
20.7892 10.316
20.8044 10.208
20.8196 10.169
20.8348 10.496
20.8499 10.419
20.8651 10.121
20.8803 10.348
20.8955 9.871
20.9106 9.868
20.9258 10.328
20.9410 9.989
20.9562 10.175
20.9713 10.490
20.9865 10.057
21.0017 10.290
21.0169 9.805
21.0320 9.841
21.0472 9.926
21.0624 10.198
21.0776 9.887
21.0927 9.743
21.1079 9.766
21.1231 9.902
21.1383 9.901
21.1534 9.647
21.1686 9.945
21.1838 9.505
21.1990 10.032
21.2141 9.642
21.2293 9.739
21.2445 9.654
21.2597 9.768
21.2748 9.647
21.2900 9.584
21.3052 9.892
21.3204 9.647
21.3355 9.378
21.3507 9.483
21.3659 9.588
21.3811 9.651
21.3962 9.646
21.4114 9.240
21.4266 9.587
21.4418 9.745
21.4569 9.635
21.4721 9.292
21.4873 9.498
21.5025 9.124
21.5176 9.256
21.5328 9.450
21.5480 9.410
21.5632 9.200
21.5783 9.261
21.5935 9.417
21.6087 9.155
21.6239 9.079
21.6390 9.256
21.6542 9.174
21.6694 9.137
21.6846 9.259
21.6997 9.048
21.7149 8.870
21.7301 9.055
21.7453 9.051
21.7604 9.011
21.7756 9.196
21.7908 9.120
21.8060 9.146
21.8211 9.310
21.8363 9.060
21.8515 9.139
21.8667 9.099
21.8818 8.993
21.8970 8.992
21.9122 9.085
21.9274 9.119
21.9425 9.009
21.9577 9.053
21.9729 8.836
21.9881 8.847
22.0032 9.087
22.0184 8.932
22.0336 8.874
22.0488 8.833
22.0639 8.791
22.0791 8.791
22.0943 8.839
22.1095 8.933
22.1246 8.940
22.1398 8.968
22.1550 8.709
22.1702 8.560
22.1853 8.719
22.2005 8.620
22.2157 8.575
22.2309 8.728
22.2460 8.815
22.2612 8.729
22.2764 8.670
22.2916 8.817
22.3067 8.874
22.3219 8.677
22.3371 8.349
22.3523 8.459
22.3674 8.750
22.3826 8.591
22.3978 8.695
22.4130 8.515
22.4281 8.470
22.4433 8.325
22.4585 8.611
22.4737 8.595
22.4888 8.687
22.5040 8.562
22.5192 8.346
22.5344 8.569
22.5495 8.267
22.5647 8.812
22.5799 8.677
22.5951 8.507
22.6102 8.406
22.6254 8.528
22.6406 8.455
22.6558 8.617
22.6709 8.375
22.6861 8.363
22.7013 8.302
22.7165 7.839
22.7316 6.427
