'Id: "" Comment: "" Operator: "Lab Manager" Anode: "Mo" Scantype: "Still (Eiger2R_500K (1D mode))" TimePerStep: "300" X: "11.8" Y: "9.4" Z: "11.284" 
7.2532 19.117
7.2684 19.301
7.2836 18.860
7.2987 18.694
7.3139 18.866
7.3291 19.043
7.3443 19.112
7.3594 19.508
7.3746 19.722
7.3898 19.505
7.4050 19.626
7.4201 19.625
7.4353 19.337
7.4505 19.409
7.4657 19.611
7.4808 19.552
7.4960 19.583
7.5112 19.576
7.5264 19.661
7.5415 19.697
7.5567 19.865
7.5719 19.768
7.5871 19.753
7.6022 20.024
7.6174 20.243
7.6326 20.070
7.6478 20.132
7.6629 20.294
7.6781 20.298
7.6933 20.235
7.7085 19.961
7.7236 20.122
7.7388 20.625
7.7540 20.666
7.7692 20.515
7.7843 20.321
7.7995 20.524
7.8147 20.727
7.8299 20.550
7.8450 20.432
7.8602 20.739
7.8754 20.995
7.8905 21.031
7.9057 21.022
7.9209 21.022
7.9361 21.082
7.9512 20.878
7.9664 20.704
7.9816 20.741
7.9968 20.790
8.0119 21.019
8.0271 21.523
8.0423 21.026
8.0575 21.162
8.0726 21.243
8.0878 21.155
8.1030 21.268
8.1182 21.150
8.1333 21.808
8.1485 21.480
8.1637 21.541
8.1789 21.872
8.1940 21.890
8.2092 21.657
8.2244 21.418
8.2396 22.050
8.2547 21.920
8.2699 21.915
8.2851 22.388
8.3003 21.928
8.3154 21.695
8.3306 21.909
8.3458 22.012
8.3610 21.741
8.3761 21.998
8.3913 22.000
8.4065 22.385
8.4217 22.137
8.4368 22.372
8.4520 21.901
8.4672 22.215
8.4824 22.166
8.4975 22.162
8.5127 22.008
8.5279 22.264
8.5431 21.987
8.5582 22.187
8.5734 22.466
8.5886 22.321
8.6038 22.777
8.6189 22.210
8.6341 22.727
8.6493 21.690
8.6645 22.606
8.6796 22.683
8.6948 22.464
8.7100 22.158
8.7252 22.245
8.7403 22.419
8.7555 22.736
8.7707 22.700
8.7859 22.654
8.8010 22.761
8.8162 22.278
8.8314 22.587
8.8466 21.868
8.8617 22.480
8.8769 22.579
8.8921 22.902
8.9073 22.450
8.9224 22.767
8.9376 22.703
8.9528 22.795
8.9680 22.755
8.9831 22.739
8.9983 22.542
9.0135 22.555
9.0287 22.707
9.0438 22.998
9.0590 23.002
9.0742 23.122
9.0894 23.113
9.1045 22.861
9.1197 23.071
9.1349 23.115
9.1501 22.991
9.1652 23.135
9.1804 23.110
9.1956 22.984
9.2108 23.036
9.2259 22.869
9.2411 23.054
9.2563 23.393
9.2715 22.888
9.2866 22.514
9.3018 22.888
9.3170 23.144
9.3322 22.952
9.3473 22.960
9.3625 23.058
9.3777 23.397
9.3929 23.423
9.4080 23.242
9.4232 23.326
9.4384 23.330
9.4536 22.852
9.4687 22.845
9.4839 22.948
9.4991 22.941
9.5143 22.863
9.5294 23.336
9.5446 23.733
9.5598 23.689
9.5750 23.508
9.5901 23.366
9.6053 23.600
9.6205 23.494
9.6357 23.272
9.6508 23.452
9.6660 23.462
9.6812 23.430
9.6964 23.614
9.7115 23.956
9.7267 24.422
9.7419 24.398
9.7571 24.172
9.7722 23.816
9.7874 23.962
9.8026 24.129
9.8178 23.820
9.8329 23.743
9.8481 23.953
9.8633 24.019
9.8785 23.826
9.8936 23.943
9.9088 24.276
9.9240 24.150
9.9392 23.748
9.9543 23.691
9.9695 23.673
9.9847 23.739
9.9999 23.593
10.0150 23.430
10.0302 23.369
10.0454 23.371
10.0606 22.973
10.0757 22.648
10.0909 22.704
10.1061 22.973
10.1213 23.291
10.1364 23.369
10.1516 23.229
10.1668 23.279
10.1820 23.019
10.1971 23.202
10.2123 23.512
10.2275 23.084
10.2427 23.273
10.2578 23.301
10.2730 23.272
10.2882 23.075
10.3034 22.800
10.3185 23.028
10.3337 23.083
10.3489 22.994
10.3641 23.188
10.3792 22.803
10.3944 22.937
10.4096 22.886
10.4248 22.925
10.4399 22.900
10.4551 22.595
10.4703 22.687
10.4855 23.005
10.5006 22.806
10.5158 22.443
10.5310 22.604
10.5462 22.616
10.5613 22.568
10.5765 22.662
10.5917 22.636
10.6069 23.019
10.6220 22.804
10.6372 22.509
10.6524 22.675
10.6676 22.612
10.6827 22.528
10.6979 22.538
10.7131 22.821
10.7283 22.431
10.7434 22.514
10.7586 22.717
10.7738 22.751
10.7890 22.661
10.8041 22.272
10.8193 22.250
10.8345 22.364
10.8497 22.359
10.8648 22.127
10.8800 22.514
10.8952 21.989
10.9104 21.811
10.9255 22.082
10.9407 22.205
10.9559 22.338
10.9711 22.175
10.9862 22.265
11.0014 22.548
11.0166 22.003
11.0318 22.193
11.0469 21.934
11.0621 21.576
11.0773 21.836
11.0925 22.091
11.1076 22.016
11.1228 22.029
11.1380 21.914
11.1532 21.687
11.1683 21.788
11.1835 22.200
11.1987 21.865
11.2139 21.530
11.2290 21.642
11.2442 21.518
11.2594 21.753
11.2746 21.866
11.2897 21.852
11.3049 21.612
11.3201 22.030
11.3353 21.663
11.3504 21.472
11.3656 21.148
11.3808 21.122
11.3960 21.635
11.4111 21.842
11.4263 21.680
11.4415 21.671
11.4567 21.703
11.4718 21.701
11.4870 21.409
11.5022 21.291
11.5174 21.368
11.5325 21.463
11.5477 21.295
11.5629 21.087
11.5781 21.088
11.5932 21.070
11.6084 21.263
11.6236 21.137
11.6388 20.906
11.6539 20.609
11.6691 20.663
11.6843 20.868
11.6995 20.737
11.7146 20.467
11.7298 20.522
11.7450 20.317
11.7602 20.236
11.7753 20.138
11.7905 20.196
11.8057 20.651
11.8209 20.466
11.8360 20.064
11.8512 19.879
11.8664 19.727
11.8816 19.823
11.8967 19.811
11.9119 19.948
11.9271 19.771
11.9423 19.576
11.9574 19.595
11.9726 19.296
11.9878 19.414
12.0030 19.607
12.0181 19.641
12.0333 19.634
12.0485 19.244
12.0637 19.233
12.0788 19.015
12.0940 18.711
12.1092 18.895
12.1244 18.933
12.1395 18.823
12.1547 18.501
12.1699 18.432
12.1851 18.457
12.2002 18.449
12.2154 18.288
12.2306 18.344
12.2458 18.318
12.2609 18.046
12.2761 17.635
12.2913 17.566
12.3065 17.813
12.3216 17.696
12.3368 17.346
12.3520 17.273
12.3672 17.404
12.3823 17.230
12.3975 17.132
12.4127 17.134
12.4279 16.951
12.4430 16.860
12.4582 16.880
12.4734 16.625
12.4886 16.546
12.5037 16.619
12.5189 16.631
12.5341 16.511
12.5493 16.391
12.5644 16.351
12.5796 16.328
12.5948 16.144
12.6100 15.997
12.6251 16.083
12.6403 15.993
12.6555 16.083
12.6707 16.013
12.6858 16.092
12.7010 16.072
12.7162 15.784
12.7314 15.776
12.7465 15.387
12.7617 15.136
12.7769 15.213
12.7921 15.243
12.8072 15.323
12.8224 15.436
12.8376 15.239
12.8528 15.164
12.8679 15.046
12.8831 14.948
12.8983 14.904
12.9135 14.923
12.9286 14.784
12.9438 14.424
12.9590 14.464
12.9742 14.665
12.9893 14.363
13.0045 14.093
13.0197 14.049
13.0349 13.849
13.0500 14.007
13.0652 14.181
13.0804 13.957
13.0956 13.893
13.1107 13.842
13.1259 13.703
13.1411 13.663
13.1563 13.677
13.1714 13.383
13.1866 13.289
13.2018 13.632
13.2170 13.572
13.2321 13.342
13.2473 13.398
13.2625 13.683
13.2777 13.773
13.2928 13.563
13.3080 13.397
13.3232 13.296
13.3384 13.099
13.3535 13.148
13.3687 13.140
13.3839 12.730
13.3991 12.807
13.4142 13.058
13.4294 12.992
13.4446 13.020
13.4598 12.834
13.4749 12.627
13.4901 12.703
13.5053 12.668
13.5205 12.604
13.5356 12.456
13.5508 12.481
13.5660 12.516
13.5812 12.551
13.5963 12.669
13.6115 12.310
13.6267 12.250
13.6419 12.278
13.6570 11.971
13.6722 11.886
13.6874 12.130
13.7026 12.253
13.7177 12.404
13.7329 12.534
13.7481 12.497
13.7633 12.253
13.7784 12.051
13.7936 11.918
13.8088 11.976
13.8239 12.359
13.8391 12.469
13.8543 12.514
13.8695 12.699
13.8846 12.334
13.8998 12.052
13.9150 12.060
13.9302 12.086
13.9453 12.045
13.9605 12.129
13.9757 11.866
13.9909 11.691
14.0060 11.511
14.0212 11.392
14.0364 11.563
14.0516 11.618
14.0667 11.527
14.0819 11.579
14.0971 11.522
14.1123 11.515
14.1274 11.439
14.1426 11.592
14.1578 11.495
14.1730 11.770
14.1881 11.698
14.2033 11.460
14.2185 11.439
14.2337 11.686
14.2488 11.486
14.2640 11.446
14.2792 11.508
14.2944 11.597
14.3095 11.496
14.3247 11.863
14.3399 11.924
14.3551 12.035
14.3702 12.782
14.3854 12.680
14.4006 13.071
14.4158 12.872
14.4309 12.777
14.4461 12.890
14.4613 12.764
14.4765 12.559
14.4916 12.532
14.5068 12.237
14.5220 12.099
14.5372 11.637
14.5523 11.835
14.5675 11.498
14.5827 11.373
14.5979 11.409
14.6130 11.029
14.6282 11.228
14.6434 11.172
14.6586 10.979
14.6737 11.138
14.6889 11.360
14.7041 10.993
14.7193 10.906
14.7344 10.925
14.7496 11.024
14.7648 10.830
14.7800 11.136
14.7951 11.153
14.8103 10.814
14.8255 11.048
14.8407 10.905
14.8558 11.043
14.8710 11.051
14.8862 10.895
14.9014 10.915
14.9165 10.774
14.9317 10.930
14.9469 10.815
14.9621 10.779
14.9772 10.491
14.9924 10.496
15.0076 10.624
15.0228 10.541
15.0379 10.193
15.0531 10.717
15.0683 10.484
15.0835 10.475
15.0986 10.755
15.1138 10.465
15.1290 9.979
15.1442 10.431
15.1593 10.288
15.1745 10.585
15.1897 10.384
15.2049 10.412
15.2200 10.195
15.2352 10.497
15.2504 10.612
15.2656 10.629
15.2807 10.377
15.2959 10.589
15.3111 10.152
15.3263 10.482
15.3414 10.330
15.3566 10.073
15.3718 9.833
15.3870 9.994
15.4021 10.422
15.4173 10.453
15.4325 10.471
15.4477 10.265
15.4628 10.438
15.4780 10.346
15.4932 10.320
15.5084 10.320
15.5235 10.566
15.5387 10.311
15.5539 9.827
15.5691 10.345
15.5842 10.347
15.5994 9.951
15.6146 9.956
15.6298 10.091
15.6449 9.709
15.6601 9.995
15.6753 10.232
15.6905 10.154
15.7056 10.058
15.7208 9.980
15.7360 9.666
15.7512 9.601
15.7663 9.800
15.7815 9.861
15.7967 10.143
15.8119 10.038
15.8270 10.067
15.8422 9.538
15.8574 10.003
15.8726 9.913
15.8877 9.671
15.9029 9.646
15.9181 9.809
15.9333 9.784
15.9484 9.788
15.9636 9.962
15.9788 9.919
15.9940 9.736
16.0091 9.558
16.0243 9.635
16.0395 9.991
16.0547 9.897
16.0698 9.876
16.0850 9.961
16.1002 9.740
16.1154 9.621
16.1305 9.721
16.1457 9.890
16.1609 9.970
16.1761 9.592
16.1912 9.385
16.2064 9.724
16.2216 9.753
16.2368 9.650
16.2519 9.771
16.2671 9.700
16.2823 9.959
16.2975 10.121
16.3126 9.835
16.3278 9.707
16.3430 9.752
16.3582 10.034
16.3733 10.179
16.3885 10.195
16.4037 10.073
16.4189 10.185
16.4340 9.939
16.4492 9.930
16.4644 9.861
16.4796 9.966
16.4947 10.158
16.5099 9.832
16.5251 9.924
16.5403 9.871
16.5554 9.561
16.5706 9.802
16.5858 9.864
16.6010 9.887
16.6161 9.928
16.6313 10.122
16.6465 10.121
16.6617 10.093
16.6768 10.011
16.6920 9.935
16.7072 9.648
16.7224 9.915
16.7375 10.089
16.7527 10.012
16.7679 10.084
16.7831 10.100
16.7982 10.138
16.8134 10.066
16.8286 10.089
16.8438 10.126
16.8589 9.810
16.8741 9.902
16.8893 9.997
16.9045 9.866
16.9196 9.937
16.9348 10.086
16.9500 10.132
16.9652 10.180
16.9803 10.047
16.9955 10.176
17.0107 10.255
17.0259 10.021
17.0410 10.132
17.0562 10.315
17.0714 10.426
17.0866 10.637
17.1017 10.691
17.1169 10.744
17.1321 11.190
17.1473 11.585
17.1624 11.892
17.1776 12.306
17.1928 13.191
17.2080 14.085
17.2231 15.040
17.2383 16.451
17.2535 17.669
17.2687 18.523
17.2838 18.721
17.2990 18.117
17.3142 17.243
17.3294 16.493
17.3445 16.105
17.3597 16.005
17.3749 15.805
17.3901 15.226
17.4052 14.305
17.4204 13.429
17.4356 12.603
17.4508 11.718
17.4659 11.294
17.4811 11.291
17.4963 11.185
17.5115 10.913
17.5266 10.768
17.5418 10.744
17.5570 10.567
17.5722 10.354
17.5873 10.502
17.6025 10.624
17.6177 10.442
17.6329 10.363
17.6480 10.174
17.6632 10.087
17.6784 10.103
17.6936 10.044
17.7087 10.252
17.7239 10.623
17.7391 10.563
17.7543 10.680
17.7694 10.827
17.7846 10.978
17.7998 11.394
17.8150 11.159
17.8301 10.886
17.8453 10.871
17.8605 11.117
17.8757 11.316
17.8908 11.124
17.9060 10.982
17.9212 11.068
17.9364 10.869
17.9515 10.529
17.9667 10.605
17.9819 10.625
17.9971 10.493
18.0122 10.177
18.0274 10.195
18.0426 10.171
18.0578 10.080
18.0729 10.051
18.0881 10.227
18.1033 10.182
18.1185 9.844
18.1336 9.851
18.1488 9.977
18.1640 10.055
18.1792 10.074
18.1943 9.786
18.2095 9.769
18.2247 10.015
18.2399 9.994
18.2550 9.945
18.2702 9.957
18.2854 10.078
18.3006 9.975
18.3157 10.080
18.3309 10.171
18.3461 9.897
18.3613 9.681
18.3764 9.740
18.3916 9.701
18.4068 9.692
18.4220 9.791
18.4371 9.770
18.4523 9.791
18.4675 9.966
18.4827 9.899
18.4978 9.806
18.5130 9.799
18.5282 9.714
18.5434 9.763
18.5585 9.728
18.5737 9.748
18.5889 9.804
18.6041 9.941
18.6192 9.877
18.6344 9.886
18.6496 9.775
18.6648 9.805
18.6799 9.771
18.6951 9.638
18.7103 9.672
18.7255 9.822
18.7406 9.883
18.7558 10.070
18.7710 9.954
18.7862 9.889
18.8013 9.904
18.8165 9.859
18.8317 9.775
18.8469 9.826
18.8620 9.978
18.8772 9.963
18.8924 9.707
18.9076 9.954
18.9227 10.012
18.9379 10.076
18.9531 10.044
18.9683 10.015
18.9834 10.299
18.9986 10.031
19.0138 9.959
19.0290 10.027
19.0441 9.995
19.0593 10.177
19.0745 10.397
19.0897 10.400
19.1048 10.219
19.1200 10.446
19.1352 10.525
19.1504 10.364
19.1655 10.431
19.1807 10.665
19.1959 10.756
19.2111 10.787
19.2262 10.963
19.2414 10.935
19.2566 10.822
19.2718 10.963
19.2869 11.040
19.3021 11.100
19.3173 10.899
19.3325 10.816
19.3476 11.069
19.3628 11.168
19.3780 11.133
19.3932 11.359
19.4083 11.355
19.4235 11.343
19.4387 11.244
19.4539 11.226
19.4690 11.153
19.4842 11.180
19.4994 11.442
19.5146 11.419
19.5297 11.386
19.5449 11.439
19.5601 11.526
19.5753 11.480
19.5904 11.747
19.6056 11.795
19.6208 11.492
19.6360 11.337
19.6511 11.450
19.6663 11.800
19.6815 11.905
19.6967 11.759
19.7118 11.634
19.7270 11.775
19.7422 11.727
19.7574 11.967
19.7725 11.920
19.7877 11.754
19.8029 12.121
19.8180 12.122
19.8332 12.066
19.8484 12.222
19.8636 12.327
19.8787 12.648
19.8939 12.970
19.9091 13.160
19.9243 13.615
19.9394 14.043
19.9546 14.276
19.9698 14.458
19.9850 14.509
20.0001 14.267
20.0153 14.136
20.0305 14.192
20.0457 14.072
20.0608 13.887
20.0760 14.084
20.0912 14.007
20.1064 13.793
20.1215 13.548
20.1367 13.311
20.1519 12.951
20.1671 12.824
20.1822 12.827
20.1974 12.683
20.2126 12.406
20.2278 12.571
20.2429 12.539
20.2581 12.046
20.2733 11.731
20.2885 11.586
20.3036 11.897
20.3188 11.912
20.3340 11.481
20.3492 11.348
20.3643 11.418
20.3795 11.350
20.3947 11.039
20.4099 10.864
20.4250 10.880
20.4402 11.074
20.4554 10.647
20.4706 10.662
20.4857 10.901
20.5009 10.886
20.5161 10.627
20.5313 10.592
20.5464 10.787
20.5616 10.839
20.5768 10.733
20.5920 10.729
20.6071 10.684
20.6223 10.654
20.6375 10.605
20.6527 10.515
20.6678 10.556
20.6830 10.438
20.6982 10.459
20.7134 10.579
20.7285 10.507
20.7437 10.477
20.7589 10.200
20.7741 10.338
20.7892 10.322
20.8044 10.492
20.8196 10.808
20.8348 10.376
20.8499 10.349
20.8651 10.109
20.8803 10.599
20.8955 10.621
20.9106 10.290
20.9258 10.438
20.9410 10.740
20.9562 10.444
20.9713 10.505
20.9865 10.592
21.0017 10.566
21.0169 10.585
21.0320 10.433
21.0472 10.358
21.0624 10.288
21.0776 10.192
21.0927 10.141
21.1079 10.127
21.1231 10.274
21.1383 10.161
21.1534 10.055
21.1686 10.252
21.1838 9.861
21.1990 9.657
21.2141 9.813
21.2293 9.948
21.2445 9.493
21.2597 9.426
21.2748 9.673
21.2900 9.405
21.3052 9.485
21.3204 9.519
21.3355 9.812
21.3507 9.544
21.3659 9.794
21.3811 9.632
21.3962 9.316
21.4114 9.623
21.4266 9.418
21.4418 9.297
21.4569 9.586
21.4721 9.314
21.4873 9.389
21.5025 9.604
21.5176 9.471
21.5328 9.426
21.5480 9.303
21.5632 9.354
21.5783 9.425
21.5935 9.329
21.6087 9.466
21.6239 9.302
21.6390 9.027
21.6542 9.094
21.6694 9.159
21.6846 9.062
21.6997 9.144
21.7149 8.955
21.7301 9.028
21.7453 8.889
21.7604 8.863
21.7756 8.931
21.7908 9.154
21.8060 8.976
21.8211 8.908
21.8363 9.000
21.8515 9.170
21.8667 9.190
21.8818 9.221
21.8970 8.954
21.9122 8.911
21.9274 9.261
21.9425 9.177
21.9577 9.163
21.9729 9.070
21.9881 8.854
22.0032 8.821
22.0184 8.971
22.0336 8.939
22.0488 8.818
22.0639 8.844
22.0791 8.690
22.0943 8.747
22.1095 8.916
22.1246 8.888
22.1398 8.763
22.1550 8.590
22.1702 8.610
22.1853 8.645
22.2005 8.717
22.2157 8.566
22.2309 8.419
22.2460 8.445
22.2612 8.557
22.2764 8.683
22.2916 8.605
22.3067 8.448
22.3219 8.569
22.3371 8.499
22.3523 8.658
22.3674 8.584
22.3826 8.604
22.3978 8.593
22.4130 8.368
22.4281 8.504
22.4433 8.372
22.4585 8.198
22.4737 8.341
22.4888 8.610
22.5040 8.708
22.5192 8.599
22.5344 8.642
22.5495 8.465
22.5647 8.293
22.5799 8.660
22.5951 8.585
22.6102 8.803
22.6254 8.302
22.6406 8.253
22.6558 8.392
22.6709 8.332
22.6861 8.506
22.7013 8.421
22.7165 7.924
22.7316 6.490
