'Id: "" Comment: "" Operator: "Lab Manager" Anode: "Mo" Scantype: "Still (Eiger2R_500K (1D mode))" TimePerStep: "300" X: "11.8" Y: "9.4" Z: "11.284" 
7.2532 18.861
7.2684 19.191
7.2836 18.437
7.2987 18.941
7.3139 18.769
7.3291 19.164
7.3443 19.274
7.3594 19.325
7.3746 19.406
7.3898 19.087
7.4050 18.994
7.4201 19.134
7.4353 19.536
7.4505 19.572
7.4657 19.703
7.4808 19.733
7.4960 19.288
7.5112 19.307
7.5264 19.539
7.5415 19.459
7.5567 19.900
7.5719 19.842
7.5871 19.764
7.6022 19.866
7.6174 19.822
7.6326 19.832
7.6478 19.921
7.6629 19.997
7.6781 20.102
7.6933 20.194
7.7085 20.475
7.7236 20.262
7.7388 20.199
7.7540 20.570
7.7692 20.745
7.7843 20.536
7.7995 20.501
7.8147 20.677
7.8299 20.949
7.8450 20.886
7.8602 20.526
7.8754 20.387
7.8905 20.291
7.9057 20.685
7.9209 20.878
7.9361 20.658
7.9512 20.454
7.9664 20.883
7.9816 20.781
7.9968 20.773
8.0119 21.235
8.0271 21.305
8.0423 21.252
8.0575 21.186
8.0726 21.195
8.0878 21.304
8.1030 21.143
8.1182 21.036
8.1333 21.180
8.1485 21.321
8.1637 21.342
8.1789 21.407
8.1940 21.546
8.2092 21.609
8.2244 21.097
8.2396 21.522
8.2547 21.829
8.2699 21.908
8.2851 21.840
8.3003 21.613
8.3154 21.770
8.3306 21.680
8.3458 21.510
8.3610 21.675
8.3761 21.635
8.3913 21.737
8.4065 21.777
8.4217 21.921
8.4368 21.830
8.4520 22.203
8.4672 21.918
8.4824 21.920
8.4975 21.802
8.5127 21.629
8.5279 21.735
8.5431 21.708
8.5582 21.857
8.5734 21.930
8.5886 22.100
8.6038 22.322
8.6189 22.301
8.6341 22.002
8.6493 21.991
8.6645 22.010
8.6796 22.372
8.6948 21.945
8.7100 21.802
8.7252 21.910
8.7403 21.851
8.7555 22.017
8.7707 22.555
8.7859 22.194
8.8010 22.107
8.8162 22.504
8.8314 22.366
8.8466 22.347
8.8617 22.350
8.8769 22.533
8.8921 22.607
8.9073 22.582
8.9224 22.589
8.9376 22.440
8.9528 22.514
8.9680 22.685
8.9831 22.357
8.9983 22.682
9.0135 23.030
9.0287 22.129
9.0438 22.349
9.0590 22.639
9.0742 22.701
9.0894 22.494
9.1045 22.819
9.1197 22.814
9.1349 22.646
9.1501 22.694
9.1652 22.827
9.1804 22.796
9.1956 22.990
9.2108 22.951
9.2259 22.933
9.2411 22.528
9.2563 22.323
9.2715 22.346
9.2866 22.453
9.3018 22.614
9.3170 22.857
9.3322 23.044
9.3473 23.083
9.3625 22.742
9.3777 22.783
9.3929 23.034
9.4080 23.141
9.4232 22.946
9.4384 22.906
9.4536 22.912
9.4687 23.186
9.4839 23.150
9.4991 23.183
9.5143 23.195
9.5294 23.267
9.5446 22.939
9.5598 23.113
9.5750 23.246
9.5901 23.164
9.6053 23.205
9.6205 23.319
9.6357 23.366
9.6508 23.394
9.6660 23.423
9.6812 23.529
9.6964 23.658
9.7115 23.844
9.7267 24.198
9.7419 24.693
9.7571 24.240
9.7722 23.657
9.7874 23.746
9.8026 23.757
9.8178 23.386
9.8329 23.309
9.8481 23.589
9.8633 23.700
9.8785 23.558
9.8936 23.501
9.9088 23.347
9.9240 22.912
9.9392 22.719
9.9543 22.805
9.9695 23.097
9.9847 23.697
9.9999 23.456
10.0150 23.296
10.0302 23.288
10.0454 23.129
10.0606 23.321
10.0757 23.349
10.0909 23.333
10.1061 23.579
10.1213 23.525
10.1364 23.490
10.1516 23.523
10.1668 23.468
10.1820 23.180
10.1971 23.323
10.2123 23.767
10.2275 23.346
10.2427 23.355
10.2578 23.402
10.2730 23.267
10.2882 22.834
10.3034 22.576
10.3185 22.735
10.3337 23.004
10.3489 22.929
10.3641 22.765
10.3792 22.942
10.3944 22.922
10.4096 22.734
10.4248 22.722
10.4399 22.628
10.4551 22.321
10.4703 22.428
10.4855 22.645
10.5006 22.527
10.5158 22.261
10.5310 22.263
10.5462 22.622
10.5613 22.512
10.5765 22.610
10.5917 22.731
10.6069 22.864
10.6220 22.532
10.6372 22.719
10.6524 22.510
10.6676 22.296
10.6827 22.516
10.6979 22.028
10.7131 22.210
10.7283 22.353
10.7434 22.021
10.7586 22.441
10.7738 22.572
10.7890 22.350
10.8041 22.049
10.8193 22.240
10.8345 22.139
10.8497 22.308
10.8648 22.279
10.8800 22.213
10.8952 22.236
10.9104 22.136
10.9255 21.937
10.9407 21.734
10.9559 21.838
10.9711 22.033
10.9862 22.159
11.0014 22.331
11.0166 22.335
11.0318 22.221
11.0469 21.793
11.0621 21.470
11.0773 21.638
11.0925 21.859
11.1076 22.034
11.1228 21.764
11.1380 21.664
11.1532 21.663
11.1683 21.359
11.1835 21.894
11.1987 21.976
11.2139 21.910
11.2290 21.863
11.2442 21.597
11.2594 21.806
11.2746 21.600
11.2897 21.562
11.3049 21.212
11.3201 21.299
11.3353 21.183
11.3504 21.302
11.3656 21.208
11.3808 21.301
11.3960 21.607
11.4111 21.475
11.4263 21.519
11.4415 21.291
11.4567 20.906
11.4718 21.131
11.4870 21.135
11.5022 20.840
11.5174 20.681
11.5325 21.035
11.5477 20.827
11.5629 21.020
11.5781 20.855
11.5932 20.897
11.6084 20.791
11.6236 20.677
11.6388 20.641
11.6539 20.706
11.6691 20.582
11.6843 20.420
11.6995 20.422
11.7146 20.542
11.7298 20.380
11.7450 20.333
11.7602 20.262
11.7753 19.977
11.7905 19.967
11.8057 19.982
11.8209 19.934
11.8360 19.912
11.8512 19.927
11.8664 20.311
11.8816 20.061
11.8967 19.300
11.9119 19.256
11.9271 19.485
11.9423 19.460
11.9574 18.952
11.9726 18.845
11.9878 18.605
12.0030 18.943
12.0181 19.230
12.0333 18.903
12.0485 19.176
12.0637 18.872
12.0788 18.908
12.0940 19.024
12.1092 18.987
12.1244 18.717
12.1395 18.491
12.1547 18.535
12.1699 18.852
12.1851 18.282
12.2002 18.069
12.2154 18.287
12.2306 18.172
12.2458 18.240
12.2609 17.725
12.2761 17.764
12.2913 17.792
12.3065 17.803
12.3216 17.782
12.3368 17.519
12.3520 17.378
12.3672 17.464
12.3823 17.344
12.3975 17.328
12.4127 17.012
12.4279 17.053
12.4430 17.180
12.4582 17.038
12.4734 16.623
12.4886 16.684
12.5037 16.798
12.5189 16.433
12.5341 16.278
12.5493 16.440
12.5644 16.596
12.5796 16.358
12.5948 16.052
12.6100 15.865
12.6251 15.792
12.6403 15.631
12.6555 15.821
12.6707 16.067
12.6858 15.887
12.7010 15.709
12.7162 15.688
12.7314 15.843
12.7465 15.720
12.7617 15.331
12.7769 15.239
12.7921 15.193
12.8072 14.733
12.8224 14.743
12.8376 14.988
12.8528 14.915
12.8679 14.956
12.8831 14.958
12.8983 14.928
12.9135 14.896
12.9286 14.684
12.9438 14.411
12.9590 14.246
12.9742 14.198
12.9893 14.200
13.0045 14.509
13.0197 14.297
13.0349 13.983
13.0500 13.912
13.0652 13.659
13.0804 13.903
13.0956 13.975
13.1107 13.753
13.1259 13.672
13.1411 13.666
13.1563 13.508
13.1714 13.373
13.1866 13.403
13.2018 13.494
13.2170 13.672
13.2321 13.423
13.2473 13.195
13.2625 13.026
13.2777 13.020
13.2928 13.156
13.3080 13.081
13.3232 13.210
13.3384 13.079
13.3535 13.000
13.3687 12.988
13.3839 12.847
13.3991 12.794
13.4142 12.746
13.4294 12.841
13.4446 12.607
13.4598 12.579
13.4749 12.710
13.4901 12.473
13.5053 12.210
13.5205 12.345
13.5356 12.486
13.5508 12.393
13.5660 12.274
13.5812 12.064
13.5963 12.117
13.6115 12.364
13.6267 12.312
13.6419 12.203
13.6570 12.262
13.6722 11.988
13.6874 11.866
13.7026 12.046
13.7177 12.005
13.7329 11.877
13.7481 12.204
13.7633 12.286
13.7784 12.139
13.7936 12.017
13.8088 12.105
13.8239 12.375
13.8391 12.144
13.8543 11.858
13.8695 12.192
13.8846 12.362
13.8998 12.056
13.9150 12.144
13.9302 12.270
13.9453 12.053
13.9605 11.686
13.9757 11.537
13.9909 11.681
14.0060 11.911
14.0212 11.589
14.0364 11.689
14.0516 11.695
14.0667 11.375
14.0819 11.223
14.0971 11.170
14.1123 11.395
14.1274 11.401
14.1426 11.295
14.1578 11.407
14.1730 11.244
14.1881 11.132
14.2033 11.342
14.2185 11.743
14.2337 11.924
14.2488 11.679
14.2640 11.772
14.2792 11.661
14.2944 11.792
14.3095 11.867
14.3247 12.099
14.3399 12.290
14.3551 12.569
14.3702 12.919
14.3854 13.290
14.4006 13.423
14.4158 13.319
14.4309 13.554
14.4461 13.575
14.4613 12.650
14.4765 12.514
14.4916 12.409
14.5068 12.460
14.5220 12.114
14.5372 11.859
14.5523 11.409
14.5675 11.257
14.5827 11.218
14.5979 10.762
14.6130 10.900
14.6282 10.976
14.6434 10.870
14.6586 10.881
14.6737 10.582
14.6889 10.585
14.7041 10.818
14.7193 10.412
14.7344 10.554
14.7496 10.629
14.7648 10.765
14.7800 10.725
14.7951 10.500
14.8103 10.567
14.8255 10.354
14.8407 10.450
14.8558 10.440
14.8710 10.176
14.8862 10.241
14.9014 10.367
14.9165 10.618
14.9317 10.533
14.9469 10.415
14.9621 10.297
14.9772 10.218
14.9924 10.113
15.0076 10.562
15.0228 10.148
15.0379 10.054
15.0531 10.518
15.0683 10.127
15.0835 10.095
15.0986 10.020
15.1138 10.358
15.1290 10.326
15.1442 10.500
15.1593 10.416
15.1745 10.247
15.1897 10.203
15.2049 10.032
15.2200 10.267
15.2352 9.847
15.2504 10.124
15.2656 10.349
15.2807 10.146
15.2959 9.976
15.3111 10.492
15.3263 10.459
15.3414 10.163
15.3566 10.151
15.3718 10.229
15.3870 10.197
15.4021 10.103
15.4173 10.254
15.4325 10.209
15.4477 10.171
15.4628 10.383
15.4780 10.049
15.4932 10.043
15.5084 10.011
15.5235 10.159
15.5387 10.141
15.5539 10.031
15.5691 9.968
15.5842 9.828
15.5994 9.685
15.6146 9.861
15.6298 9.858
15.6449 9.698
15.6601 9.706
15.6753 9.853
15.6905 10.113
15.7056 9.829
15.7208 9.679
15.7360 9.635
15.7512 9.755
15.7663 9.582
15.7815 9.498
15.7967 9.581
15.8119 9.756
15.8270 9.924
15.8422 9.800
15.8574 9.485
15.8726 9.355
15.8877 9.633
15.9029 9.656
15.9181 9.677
15.9333 9.453
15.9484 9.603
15.9636 9.657
15.9788 9.540
15.9940 9.378
16.0091 9.351
16.0243 9.569
16.0395 9.531
16.0547 9.411
16.0698 9.464
16.0850 9.443
16.1002 9.419
16.1154 9.491
16.1305 9.760
16.1457 9.679
16.1609 9.894
16.1761 9.824
16.1912 9.481
16.2064 9.494
16.2216 9.829
16.2368 9.729
16.2519 9.755
16.2671 9.716
16.2823 9.679
16.2975 9.888
16.3126 9.930
16.3278 9.851
16.3430 9.749
16.3582 9.841
16.3733 10.223
16.3885 9.826
16.4037 9.807
16.4189 9.733
16.4340 9.541
16.4492 9.704
16.4644 9.752
16.4796 9.741
16.4947 9.946
16.5099 9.728
16.5251 9.416
16.5403 9.624
16.5554 9.728
16.5706 9.626
16.5858 9.656
16.6010 9.646
16.6161 9.667
16.6313 9.543
16.6465 9.686
16.6617 9.778
16.6768 9.650
16.6920 9.650
16.7072 9.811
16.7224 9.926
16.7375 9.834
16.7527 9.943
16.7679 9.850
16.7831 9.818
16.7982 9.882
16.8134 9.673
16.8286 9.631
16.8438 9.806
16.8589 9.789
16.8741 9.704
16.8893 9.805
16.9045 9.729
16.9196 9.639
16.9348 9.761
16.9500 9.648
16.9652 9.648
16.9803 9.848
16.9955 9.939
17.0107 9.893
17.0259 9.944
17.0410 10.031
17.0562 9.926
17.0714 10.087
17.0866 10.285
17.1017 10.212
17.1169 10.398
17.1321 10.970
17.1473 11.188
17.1624 11.417
17.1776 12.179
17.1928 12.835
17.2080 13.753
17.2231 14.764
17.2383 15.976
17.2535 17.265
17.2687 18.313
17.2838 18.690
17.2990 18.035
17.3142 17.017
17.3294 16.248
17.3445 15.891
17.3597 15.845
17.3749 15.866
17.3901 15.202
17.4052 14.060
17.4204 13.181
17.4356 12.408
17.4508 11.766
17.4659 11.490
17.4811 11.536
17.4963 11.264
17.5115 10.865
17.5266 10.872
17.5418 10.708
17.5570 10.521
17.5722 10.572
17.5873 10.818
17.6025 11.100
17.6177 11.128
17.6329 11.141
17.6480 11.433
17.6632 11.536
17.6784 11.707
17.6936 12.225
17.7087 12.251
17.7239 11.896
17.7391 11.696
17.7543 11.587
17.7694 11.510
17.7846 11.500
17.7998 11.585
17.8150 11.316
17.8301 10.858
17.8453 10.727
17.8605 10.535
17.8757 10.353
17.8908 10.530
17.9060 10.575
17.9212 10.369
17.9364 10.120
17.9515 10.219
17.9667 10.214
17.9819 10.234
17.9971 10.114
18.0122 10.053
18.0274 10.034
18.0426 10.104
18.0578 10.166
18.0729 9.984
18.0881 10.014
18.1033 9.988
18.1185 9.849
18.1336 10.169
18.1488 10.106
18.1640 9.909
18.1792 9.945
18.1943 9.756
18.2095 9.884
18.2247 9.904
18.2399 9.838
18.2550 9.579
18.2702 9.678
18.2854 9.940
18.3006 9.922
18.3157 9.921
18.3309 9.879
18.3461 9.681
18.3613 9.633
18.3764 9.795
18.3916 9.704
18.4068 9.867
18.4220 10.084
18.4371 10.138
18.4523 9.795
18.4675 9.694
18.4827 9.953
18.4978 9.854
18.5130 9.662
18.5282 9.676
18.5434 9.745
18.5585 9.856
18.5737 9.804
18.5889 9.817
18.6041 9.771
18.6192 9.695
18.6344 9.692
18.6496 9.688
18.6648 9.686
18.6799 9.858
18.6951 9.778
18.7103 9.888
18.7255 10.043
18.7406 9.927
18.7558 9.758
18.7710 9.747
18.7862 9.772
18.8013 9.997
18.8165 9.657
18.8317 9.574
18.8469 9.636
18.8620 9.737
18.8772 9.902
18.8924 9.920
18.9076 9.819
18.9227 9.973
18.9379 10.012
18.9531 9.908
18.9683 9.850
18.9834 10.140
18.9986 10.175
19.0138 10.167
19.0290 10.064
19.0441 10.138
19.0593 10.170
19.0745 10.051
19.0897 10.507
19.1048 10.570
19.1200 10.461
19.1352 10.551
19.1504 10.582
19.1655 10.588
19.1807 10.378
19.1959 10.491
19.2111 10.774
19.2262 10.685
19.2414 10.579
19.2566 10.947
19.2718 11.231
19.2869 11.105
19.3021 10.901
19.3173 10.809
19.3325 10.832
19.3476 10.901
19.3628 11.062
19.3780 11.252
19.3932 11.104
19.4083 11.076
19.4235 11.116
19.4387 11.075
19.4539 11.216
19.4690 11.250
19.4842 11.287
19.4994 11.311
19.5146 11.135
19.5297 11.322
19.5449 11.580
19.5601 11.420
19.5753 11.442
19.5904 11.478
19.6056 11.511
19.6208 11.440
19.6360 11.524
19.6511 11.546
19.6663 11.583
19.6815 11.410
19.6967 11.543
19.7118 11.756
19.7270 11.614
19.7422 11.790
19.7574 11.727
19.7725 11.596
19.7877 11.880
19.8029 12.110
19.8180 12.114
19.8332 12.008
19.8484 12.174
19.8636 12.441
19.8787 12.675
19.8939 13.011
19.9091 13.135
19.9243 13.232
19.9394 13.498
19.9546 13.881
19.9698 14.315
19.9850 14.438
20.0001 14.333
20.0153 14.123
20.0305 14.025
20.0457 13.932
20.0608 13.708
20.0760 13.511
20.0912 13.595
20.1064 13.513
20.1215 13.163
20.1367 12.992
20.1519 12.835
20.1671 12.573
20.1822 12.665
20.1974 12.731
20.2126 12.625
20.2278 12.650
20.2429 12.470
20.2581 12.296
20.2733 12.087
20.2885 11.649
20.3036 11.714
20.3188 12.035
20.3340 12.015
20.3492 11.660
20.3643 11.598
20.3795 11.913
20.3947 11.883
20.4099 11.704
20.4250 11.774
20.4402 11.876
20.4554 12.069
20.4706 12.197
20.4857 12.069
20.5009 11.923
20.5161 11.971
20.5313 11.727
20.5464 11.356
20.5616 11.415
20.5768 11.385
20.5920 11.250
20.6071 11.472
20.6223 11.127
20.6375 11.233
20.6527 11.014
20.6678 10.810
20.6830 10.796
20.6982 10.803
20.7134 10.616
20.7285 10.750
20.7437 10.466
20.7589 10.507
20.7741 10.442
20.7892 10.289
20.8044 9.976
20.8196 10.449
20.8348 10.489
20.8499 10.186
20.8651 10.193
20.8803 9.947
20.8955 9.967
20.9106 10.505
20.9258 10.139
20.9410 10.369
20.9562 10.056
20.9713 10.026
20.9865 9.875
21.0017 9.915
21.0169 9.947
21.0320 10.124
21.0472 9.758
21.0624 10.079
21.0776 9.634
21.0927 9.850
21.1079 9.748
21.1231 9.770
21.1383 9.840
21.1534 9.820
21.1686 9.753
21.1838 9.898
21.1990 9.802
21.2141 9.803
21.2293 9.738
21.2445 9.805
21.2597 9.622
21.2748 9.445
21.2900 9.661
21.3052 9.495
21.3204 9.646
21.3355 9.642
21.3507 9.832
21.3659 9.768
21.3811 9.319
21.3962 9.661
21.4114 9.366
21.4266 9.234
21.4418 9.444
21.4569 9.519
21.4721 9.392
21.4873 9.493
21.5025 9.526
21.5176 9.414
21.5328 9.198
21.5480 9.310
21.5632 9.270
21.5783 9.324
21.5935 9.151
21.6087 9.236
21.6239 9.544
21.6390 9.070
21.6542 9.065
21.6694 9.055
21.6846 9.066
21.6997 9.111
21.7149 9.180
21.7301 9.054
21.7453 8.924
21.7604 9.007
21.7756 8.870
21.7908 9.045
21.8060 8.899
21.8211 8.967
21.8363 8.962
21.8515 9.025
21.8667 8.955
21.8818 9.136
21.8970 9.159
21.9122 8.908
21.9274 8.697
21.9425 8.757
21.9577 8.868
21.9729 8.696
21.9881 8.743
22.0032 8.867
22.0184 8.841
22.0336 8.713
22.0488 8.528
22.0639 8.410
22.0791 8.615
22.0943 8.886
22.1095 9.041
22.1246 8.737
22.1398 8.731
22.1550 8.757
22.1702 8.640
22.1853 8.814
22.2005 8.514
22.2157 8.363
22.2309 8.607
22.2460 8.614
22.2612 8.410
22.2764 8.229
22.2916 8.546
22.3067 8.406
22.3219 8.548
22.3371 8.508
22.3523 8.360
22.3674 8.213
22.3826 8.298
22.3978 8.499
22.4130 8.464
22.4281 8.326
22.4433 8.360
22.4585 8.276
22.4737 8.412
22.4888 8.383
22.5040 8.327
22.5192 8.565
22.5344 8.283
22.5495 8.650
22.5647 8.094
22.5799 8.377
22.5951 8.302
22.6102 8.734
22.6254 8.310
22.6406 8.425
22.6558 8.173
22.6709 8.022
22.6861 8.156
22.7013 8.003
22.7165 7.851
22.7316 6.313
