'Id: "" Comment: "" Operator: "Lab Manager" Anode: "Mo" Scantype: "Still (Eiger2R_500K (1D mode))" TimePerStep: "300" X: "11.8" Y: "9.4" Z: "11.284" 
7.2532 18.653
7.2684 19.041
7.2836 19.320
7.2987 19.047
7.3139 19.140
7.3291 19.335
7.3443 19.613
7.3594 19.605
7.3746 19.314
7.3898 19.393
7.4050 19.215
7.4201 19.259
7.4353 19.718
7.4505 19.801
7.4657 19.573
7.4808 19.644
7.4960 19.765
7.5112 19.902
7.5264 19.399
7.5415 19.904
7.5567 19.931
7.5719 19.879
7.5871 19.782
7.6022 19.811
7.6174 20.101
7.6326 20.080
7.6478 20.013
7.6629 20.118
7.6781 20.241
7.6933 20.367
7.7085 20.302
7.7236 20.669
7.7388 20.928
7.7540 20.536
7.7692 20.292
7.7843 20.396
7.7995 20.746
7.8147 20.636
7.8299 20.626
7.8450 20.612
7.8602 20.611
7.8754 20.913
7.8905 20.761
7.9057 20.659
7.9209 20.940
7.9361 21.130
7.9512 20.812
7.9664 20.791
7.9816 20.880
7.9968 20.988
8.0119 21.007
8.0271 21.195
8.0423 21.365
8.0575 21.232
8.0726 21.396
8.0878 21.844
8.1030 21.449
8.1182 21.124
8.1333 21.300
8.1485 21.371
8.1637 21.587
8.1789 21.580
8.1940 21.876
8.2092 22.296
8.2244 21.788
8.2396 21.643
8.2547 21.681
8.2699 21.756
8.2851 21.544
8.3003 22.133
8.3154 22.564
8.3306 21.924
8.3458 22.434
8.3610 21.770
8.3761 21.770
8.3913 21.462
8.4065 21.535
8.4217 21.826
8.4368 21.968
8.4520 22.103
8.4672 21.675
8.4824 21.917
8.4975 22.483
8.5127 21.906
8.5279 21.953
8.5431 21.781
8.5582 22.266
8.5734 22.315
8.5886 22.900
8.6038 22.014
8.6189 22.267
8.6341 22.431
8.6493 22.477
8.6645 22.526
8.6796 21.900
8.6948 22.664
8.7100 23.117
8.7252 22.539
8.7403 22.422
8.7555 22.131
8.7707 22.733
8.7859 22.174
8.8010 22.299
8.8162 22.715
8.8314 22.516
8.8466 22.874
8.8617 22.699
8.8769 22.741
8.8921 22.606
8.9073 22.772
8.9224 22.593
8.9376 22.473
8.9528 22.782
8.9680 22.843
8.9831 22.437
8.9983 22.685
9.0135 22.808
9.0287 22.584
9.0438 22.501
9.0590 22.298
9.0742 22.656
9.0894 22.967
9.1045 23.038
9.1197 22.919
9.1349 22.903
9.1501 23.198
9.1652 22.793
9.1804 22.835
9.1956 23.187
9.2108 22.614
9.2259 23.152
9.2411 23.178
9.2563 22.856
9.2715 22.882
9.2866 23.025
9.3018 23.057
9.3170 22.952
9.3322 23.200
9.3473 23.229
9.3625 23.206
9.3777 22.982
9.3929 22.892
9.4080 23.003
9.4232 22.997
9.4384 22.955
9.4536 23.019
9.4687 23.103
9.4839 22.868
9.4991 23.158
9.5143 23.360
9.5294 23.379
9.5446 23.376
9.5598 23.452
9.5750 23.421
9.5901 23.657
9.6053 23.485
9.6205 23.255
9.6357 23.383
9.6508 23.633
9.6660 23.765
9.6812 23.708
9.6964 23.689
9.7115 23.958
9.7267 24.102
9.7419 23.965
9.7571 24.004
9.7722 24.189
9.7874 24.083
9.8026 23.706
9.8178 23.433
9.8329 23.595
9.8481 23.863
9.8633 23.874
9.8785 23.593
9.8936 23.728
9.9088 23.707
9.9240 23.846
9.9392 24.107
9.9543 23.880
9.9695 23.658
9.9847 23.652
9.9999 23.400
10.0150 23.046
10.0302 23.169
10.0454 23.391
10.0606 23.313
10.0757 23.354
10.0909 23.218
10.1061 23.288
10.1213 23.484
10.1364 23.120
10.1516 23.128
10.1668 23.096
10.1820 23.249
10.1971 23.170
10.2123 22.922
10.2275 23.090
10.2427 23.364
10.2578 23.461
10.2730 23.006
10.2882 23.076
10.3034 22.855
10.3185 22.821
10.3337 22.829
10.3489 23.017
10.3641 23.002
10.3792 23.162
10.3944 23.103
10.4096 22.607
10.4248 22.790
10.4399 23.160
10.4551 23.139
10.4703 22.999
10.4855 22.762
10.5006 22.578
10.5158 22.568
10.5310 22.559
10.5462 22.470
10.5613 22.433
10.5765 22.639
10.5917 22.715
10.6069 22.625
10.6220 22.708
10.6372 22.488
10.6524 22.364
10.6676 22.531
10.6827 22.793
10.6979 22.438
10.7131 22.321
10.7283 22.404
10.7434 22.663
10.7586 22.751
10.7738 22.202
10.7890 22.298
10.8041 22.587
10.8193 22.416
10.8345 22.433
10.8497 22.385
10.8648 22.416
10.8800 22.280
10.8952 22.086
10.9104 22.157
10.9255 22.390
10.9407 22.245
10.9559 22.428
10.9711 22.303
10.9862 22.157
11.0014 22.456
11.0166 22.292
11.0318 22.109
11.0469 21.844
11.0621 21.823
11.0773 21.944
11.0925 21.668
11.1076 21.579
11.1228 21.831
11.1380 21.994
11.1532 22.116
11.1683 21.846
11.1835 21.841
11.1987 21.906
11.2139 21.723
11.2290 21.667
11.2442 21.759
11.2594 21.737
11.2746 21.737
11.2897 21.686
11.3049 21.755
11.3201 21.590
11.3353 21.743
11.3504 22.041
11.3656 21.364
11.3808 21.449
11.3960 21.413
11.4111 21.474
11.4263 21.675
11.4415 21.829
11.4567 21.552
11.4718 21.517
11.4870 21.785
11.5022 21.591
11.5174 21.290
11.5325 21.465
11.5477 21.118
11.5629 21.104
11.5781 20.960
11.5932 20.906
11.6084 21.132
11.6236 21.107
11.6388 20.872
11.6539 20.856
11.6691 20.653
11.6843 20.587
11.6995 20.227
11.7146 20.386
11.7298 20.592
11.7450 20.250
11.7602 20.269
11.7753 20.271
11.7905 20.406
11.8057 20.446
11.8209 20.139
11.8360 20.051
11.8512 19.929
11.8664 20.087
11.8816 20.230
11.8967 20.042
11.9119 19.788
11.9271 19.541
11.9423 19.564
11.9574 19.602
11.9726 19.314
11.9878 19.433
12.0030 19.197
12.0181 19.168
12.0333 19.137
12.0485 18.961
12.0637 19.050
12.0788 18.857
12.0940 18.908
12.1092 18.925
12.1244 18.622
12.1395 18.770
12.1547 18.548
12.1699 18.404
12.1851 18.226
12.2002 18.221
12.2154 18.413
12.2306 18.166
12.2458 17.788
12.2609 17.782
12.2761 18.083
12.2913 18.146
12.3065 17.851
12.3216 17.609
12.3368 17.507
12.3520 17.835
12.3672 17.483
12.3823 17.375
12.3975 17.465
12.4127 17.361
12.4279 17.395
12.4430 17.210
12.4582 17.115
12.4734 16.808
12.4886 16.595
12.5037 16.678
12.5189 16.875
12.5341 16.846
12.5493 16.653
12.5644 16.764
12.5796 16.593
12.5948 16.285
12.6100 16.030
12.6251 16.061
12.6403 16.111
12.6555 15.956
12.6707 15.652
12.6858 15.622
12.7010 15.604
12.7162 15.666
12.7314 15.673
12.7465 15.481
12.7617 15.216
12.7769 15.309
12.7921 15.411
12.8072 15.153
12.8224 15.011
12.8376 15.043
12.8528 14.953
12.8679 14.777
12.8831 14.735
12.8983 14.644
12.9135 14.559
12.9286 14.452
12.9438 14.318
12.9590 14.655
12.9742 14.483
12.9893 14.287
13.0045 14.392
13.0197 14.366
13.0349 14.316
13.0500 14.163
13.0652 13.995
13.0804 13.905
13.0956 13.856
13.1107 13.831
13.1259 13.855
13.1411 13.666
13.1563 13.696
13.1714 13.791
13.1866 13.751
13.2018 13.604
13.2170 13.428
13.2321 13.436
13.2473 13.545
13.2625 13.377
13.2777 13.196
13.2928 13.339
13.3080 13.253
13.3232 13.296
13.3384 13.310
13.3535 13.252
13.3687 13.204
13.3839 13.143
13.3991 13.047
13.4142 13.014
13.4294 12.987
13.4446 12.883
13.4598 12.940
13.4749 13.113
13.4901 13.113
13.5053 12.769
13.5205 12.200
13.5356 12.254
13.5508 12.612
13.5660 12.476
13.5812 12.390
13.5963 12.374
13.6115 12.318
13.6267 12.290
13.6419 12.384
13.6570 12.433
13.6722 12.409
13.6874 12.390
13.7026 11.983
13.7177 12.221
13.7329 12.351
13.7481 12.176
13.7633 12.156
13.7784 12.179
13.7936 12.085
13.8088 12.096
13.8239 12.557
13.8391 12.883
13.8543 12.527
13.8695 12.287
13.8846 12.131
13.8998 12.256
13.9150 12.193
13.9302 11.976
13.9453 11.730
13.9605 11.829
13.9757 11.767
13.9909 11.804
14.0060 11.848
14.0212 11.914
14.0364 11.794
14.0516 11.754
14.0667 11.631
14.0819 11.421
14.0971 11.151
14.1123 11.444
14.1274 11.458
14.1426 11.410
14.1578 11.305
14.1730 11.398
14.1881 11.337
14.2033 11.577
14.2185 11.734
14.2337 11.583
14.2488 11.473
14.2640 11.527
14.2792 11.402
14.2944 11.719
14.3095 11.788
14.3247 11.664
14.3399 12.065
14.3551 12.115
14.3702 11.943
14.3854 12.640
14.4006 12.470
14.4158 12.583
14.4309 12.796
14.4461 12.337
14.4613 12.679
14.4765 12.606
14.4916 12.385
14.5068 12.517
14.5220 12.349
14.5372 12.053
14.5523 11.318
14.5675 11.578
14.5827 11.724
14.5979 11.387
14.6130 10.987
14.6282 10.971
14.6434 11.135
14.6586 11.120
14.6737 11.134
14.6889 10.992
14.7041 10.855
14.7193 11.331
14.7344 10.992
14.7496 11.124
14.7648 10.913
14.7800 11.100
14.7951 11.025
14.8103 11.096
14.8255 11.162
14.8407 10.944
14.8558 10.656
14.8710 10.860
14.8862 10.902
14.9014 10.897
14.9165 11.045
14.9317 11.184
14.9469 10.849
14.9621 10.793
14.9772 10.374
14.9924 10.446
15.0076 10.318
15.0228 10.687
15.0379 10.549
15.0531 10.633
15.0683 10.398
15.0835 10.688
15.0986 10.561
15.1138 10.464
15.1290 10.521
15.1442 11.100
15.1593 10.138
15.1745 10.266
15.1897 10.112
15.2049 10.334
15.2200 10.414
15.2352 10.232
15.2504 10.455
15.2656 10.227
15.2807 10.276
15.2959 10.319
15.3111 10.299
15.3263 10.621
15.3414 10.521
15.3566 10.458
15.3718 10.117
15.3870 10.110
15.4021 10.607
15.4173 10.047
15.4325 10.494
15.4477 10.467
15.4628 10.518
15.4780 10.560
15.4932 10.299
15.5084 10.491
15.5235 10.313
15.5387 10.260
15.5539 10.511
15.5691 10.531
15.5842 10.568
15.5994 10.390
15.6146 10.292
15.6298 10.275
15.6449 10.088
15.6601 10.256
15.6753 9.946
15.6905 9.997
15.7056 10.226
15.7208 10.169
15.7360 9.655
15.7512 10.313
15.7663 10.354
15.7815 10.077
15.7967 9.977
15.8119 9.568
15.8270 10.013
15.8422 9.880
15.8574 10.026
15.8726 9.995
15.8877 9.717
15.9029 9.610
15.9181 9.870
15.9333 9.885
15.9484 9.720
15.9636 9.757
15.9788 9.662
15.9940 9.665
16.0091 10.057
16.0243 9.889
16.0395 9.644
16.0547 9.817
16.0698 9.554
16.0850 9.900
16.1002 9.674
16.1154 9.714
16.1305 9.947
16.1457 9.749
16.1609 9.766
16.1761 9.955
16.1912 9.854
16.2064 9.716
16.2216 9.609
16.2368 10.118
16.2519 10.021
16.2671 9.831
16.2823 9.831
16.2975 9.836
16.3126 9.758
16.3278 9.819
16.3430 9.898
16.3582 9.793
16.3733 10.015
16.3885 9.940
16.4037 10.120
16.4189 10.332
16.4340 10.290
16.4492 10.054
16.4644 9.852
16.4796 10.023
16.4947 10.173
16.5099 10.069
16.5251 10.015
16.5403 9.924
16.5554 9.853
16.5706 9.709
16.5858 9.649
16.6010 9.649
16.6161 9.797
16.6313 9.990
16.6465 9.735
16.6617 9.851
16.6768 9.945
16.6920 9.993
16.7072 10.033
16.7224 10.367
16.7375 10.162
16.7527 10.065
16.7679 10.098
16.7831 10.127
16.7982 10.193
16.8134 10.344
16.8286 10.272
16.8438 10.003
16.8589 9.810
16.8741 9.840
16.8893 10.037
16.9045 10.020
16.9196 9.862
16.9348 10.002
16.9500 9.809
16.9652 9.906
16.9803 9.961
16.9955 9.785
17.0107 9.943
17.0259 10.007
17.0410 9.938
17.0562 9.981
17.0714 10.292
17.0866 10.592
17.1017 10.764
17.1169 10.836
17.1321 11.127
17.1473 11.358
17.1624 11.809
17.1776 12.639
17.1928 13.355
17.2080 14.043
17.2231 15.087
17.2383 16.173
17.2535 17.410
17.2687 18.612
17.2838 18.925
17.2990 17.990
17.3142 16.828
17.3294 16.490
17.3445 16.303
17.3597 16.198
17.3749 15.863
17.3901 15.036
17.4052 14.333
17.4204 13.363
17.4356 12.275
17.4508 11.764
17.4659 11.537
17.4811 11.179
17.4963 11.041
17.5115 10.911
17.5266 10.674
17.5418 10.739
17.5570 10.583
17.5722 10.464
17.5873 10.505
17.6025 10.305
17.6177 10.053
17.6329 9.980
17.6480 10.250
17.6632 10.257
17.6784 10.133
17.6936 10.239
17.7087 10.204
17.7239 10.379
17.7391 10.334
17.7543 10.192
17.7694 10.381
17.7846 10.644
17.7998 10.902
17.8150 10.971
17.8301 10.977
17.8453 10.932
17.8605 10.813
17.8757 11.005
17.8908 11.346
17.9060 11.198
17.9212 10.835
17.9364 10.787
17.9515 10.624
17.9667 10.381
17.9819 10.496
17.9971 10.532
18.0122 10.467
18.0274 10.506
18.0426 10.417
18.0578 10.208
18.0729 10.346
18.0881 10.376
18.1033 10.048
18.1185 10.078
18.1336 10.114
18.1488 10.105
18.1640 10.111
18.1792 9.988
18.1943 10.090
18.2095 10.019
18.2247 10.064
18.2399 10.117
18.2550 9.814
18.2702 9.837
18.2854 10.088
18.3006 9.936
18.3157 9.982
18.3309 9.871
18.3461 9.692
18.3613 9.677
18.3764 9.814
18.3916 9.988
18.4068 9.992
18.4220 9.903
18.4371 9.899
18.4523 9.916
18.4675 9.673
18.4827 9.847
18.4978 9.891
18.5130 9.779
18.5282 9.830
18.5434 9.710
18.5585 9.483
18.5737 9.734
18.5889 9.673
18.6041 9.706
18.6192 9.770
18.6344 9.480
18.6496 9.584
18.6648 9.793
18.6799 9.818
18.6951 9.719
18.7103 9.595
18.7255 9.749
18.7406 9.506
18.7558 9.575
18.7710 9.962
18.7862 10.108
18.8013 9.970
18.8165 9.732
18.8317 9.911
18.8469 9.953
18.8620 9.759
18.8772 9.859
18.8924 9.864
18.9076 9.941
18.9227 9.944
18.9379 9.847
18.9531 9.989
18.9683 9.919
18.9834 9.585
18.9986 9.801
19.0138 10.154
19.0290 10.079
19.0441 10.286
19.0593 10.345
19.0745 10.416
19.0897 10.299
19.1048 10.181
19.1200 10.290
19.1352 10.472
19.1504 10.535
19.1655 10.543
19.1807 10.858
19.1959 10.863
19.2111 10.540
19.2262 10.591
19.2414 10.763
19.2566 11.000
19.2718 10.960
19.2869 11.030
19.3021 11.090
19.3173 11.223
19.3325 11.224
19.3476 11.088
19.3628 11.078
19.3780 11.073
19.3932 10.969
19.4083 11.118
19.4235 11.429
19.4387 11.386
19.4539 11.516
19.4690 11.709
19.4842 11.613
19.4994 11.465
19.5146 11.475
19.5297 11.426
19.5449 11.415
19.5601 11.438
19.5753 11.486
19.5904 11.459
19.6056 11.530
19.6208 11.784
19.6360 11.862
19.6511 11.748
19.6663 11.507
19.6815 11.664
19.6967 11.821
19.7118 11.709
19.7270 11.761
19.7422 12.005
19.7574 11.907
19.7725 11.804
19.7877 11.903
19.8029 11.936
19.8180 11.856
19.8332 12.005
19.8484 12.418
19.8636 12.633
19.8787 12.664
19.8939 12.744
19.9091 13.126
19.9243 13.533
19.9394 13.736
19.9546 13.773
19.9698 14.253
19.9850 14.746
20.0001 14.349
20.0153 14.164
20.0305 14.190
20.0457 13.936
20.0608 13.856
20.0760 13.800
20.0912 13.500
20.1064 13.748
20.1215 13.860
20.1367 13.437
20.1519 13.036
20.1671 12.747
20.1822 12.740
20.1974 12.747
20.2126 12.690
20.2278 12.428
20.2429 12.422
20.2581 12.161
20.2733 11.725
20.2885 11.715
20.3036 11.754
20.3188 11.744
20.3340 11.613
20.3492 11.309
20.3643 11.468
20.3795 11.265
20.3947 11.031
20.4099 10.959
20.4250 10.782
20.4402 10.797
20.4554 10.905
20.4706 11.001
20.4857 10.865
20.5009 10.774
20.5161 10.621
20.5313 10.599
20.5464 10.616
20.5616 10.881
20.5768 10.743
20.5920 10.726
20.6071 10.677
20.6223 10.485
20.6375 10.485
20.6527 10.522
20.6678 10.355
20.6830 10.382
20.6982 10.537
20.7134 10.612
20.7285 10.557
20.7437 10.517
20.7589 10.394
20.7741 10.492
20.7892 10.458
20.8044 10.527
20.8196 10.768
20.8348 10.653
20.8499 10.345
20.8651 10.288
20.8803 10.151
20.8955 10.367
20.9106 10.405
20.9258 10.310
20.9410 10.432
20.9562 10.189
20.9713 10.199
20.9865 10.372
21.0017 10.164
21.0169 10.276
21.0320 10.354
21.0472 10.100
21.0624 10.306
21.0776 10.241
21.0927 10.192
21.1079 10.299
21.1231 10.437
21.1383 10.148
21.1534 10.150
21.1686 10.031
21.1838 10.153
21.1990 9.724
21.2141 9.792
21.2293 9.577
21.2445 9.887
21.2597 9.805
21.2748 9.621
21.2900 9.643
21.3052 9.569
21.3204 9.754
21.3355 9.310
21.3507 9.666
21.3659 9.507
21.3811 9.662
21.3962 9.566
21.4114 9.097
21.4266 9.517
21.4418 9.494
21.4569 9.327
21.4721 9.339
21.4873 9.474
21.5025 9.550
21.5176 9.286
21.5328 9.096
21.5480 9.198
21.5632 9.173
21.5783 9.104
21.5935 9.112
21.6087 9.359
21.6239 9.458
21.6390 9.099
21.6542 9.118
21.6694 9.432
21.6846 9.100
21.6997 8.999
21.7149 9.201
21.7301 9.190
21.7453 8.782
21.7604 8.959
21.7756 8.934
21.7908 8.959
21.8060 9.173
21.8211 9.177
21.8363 8.992
21.8515 8.926
21.8667 9.042
21.8818 9.308
21.8970 8.968
21.9122 8.933
21.9274 8.911
21.9425 8.796
21.9577 9.097
21.9729 9.090
21.9881 9.007
22.0032 9.046
22.0184 8.838
22.0336 8.769
22.0488 8.688
22.0639 8.833
22.0791 8.956
22.0943 8.757
22.1095 8.848
22.1246 8.861
22.1398 8.665
22.1550 8.567
22.1702 8.606
22.1853 8.698
22.2005 8.549
22.2157 8.660
22.2309 8.867
22.2460 8.637
22.2612 8.527
22.2764 8.768
22.2916 8.717
22.3067 8.536
22.3219 8.633
22.3371 8.769
22.3523 8.916
22.3674 8.735
22.3826 8.475
22.3978 8.527
22.4130 8.336
22.4281 8.475
22.4433 8.669
22.4585 8.507
22.4737 8.546
22.4888 8.607
22.5040 8.528
22.5192 8.258
22.5344 8.582
22.5495 8.314
22.5647 8.286
22.5799 8.750
22.5951 8.491
22.6102 8.624
22.6254 8.556
22.6406 8.587
22.6558 8.469
22.6709 8.309
22.6861 8.526
22.7013 8.326
22.7165 7.703
22.7316 6.390
