'Id: "" Comment: "" Operator: "Lab Manager" Anode: "Mo" Scantype: "Still (Eiger2R_500K (1D mode))" TimePerStep: "300" X: "11.8" Y: "9.4" Z: "11.284" 
7.2532 18.646
7.2684 18.865
7.2836 18.596
7.2987 19.316
7.3139 19.340
7.3291 19.242
7.3443 19.128
7.3594 19.023
7.3746 19.088
7.3898 19.432
7.4050 19.366
7.4201 19.498
7.4353 19.332
7.4505 19.492
7.4657 19.389
7.4808 19.483
7.4960 19.709
7.5112 20.121
7.5264 19.718
7.5415 19.885
7.5567 20.009
7.5719 19.922
7.5871 20.123
7.6022 20.234
7.6174 19.801
7.6326 19.937
7.6478 19.941
7.6629 20.315
7.6781 20.443
7.6933 20.336
7.7085 20.500
7.7236 20.632
7.7388 20.713
7.7540 20.790
7.7692 20.724
7.7843 20.735
7.7995 21.015
7.8147 21.201
7.8299 20.905
7.8450 20.777
7.8602 20.941
7.8754 21.077
7.8905 20.884
7.9057 21.064
7.9209 21.056
7.9361 20.993
7.9512 21.259
7.9664 21.061
7.9816 21.012
7.9968 21.141
8.0119 21.046
8.0271 21.027
8.0423 21.458
8.0575 21.399
8.0726 20.917
8.0878 21.307
8.1030 21.539
8.1182 21.673
8.1333 21.482
8.1485 21.386
8.1637 21.568
8.1789 21.443
8.1940 21.540
8.2092 21.424
8.2244 21.287
8.2396 21.646
8.2547 21.308
8.2699 22.081
8.2851 21.952
8.3003 21.852
8.3154 21.562
8.3306 21.551
8.3458 22.378
8.3610 21.954
8.3761 22.122
8.3913 21.924
8.4065 22.301
8.4217 21.753
8.4368 22.058
8.4520 21.823
8.4672 22.258
8.4824 22.275
8.4975 22.063
8.5127 22.262
8.5279 22.295
8.5431 22.644
8.5582 22.128
8.5734 22.392
8.5886 22.521
8.6038 22.158
8.6189 22.404
8.6341 22.093
8.6493 22.482
8.6645 22.386
8.6796 22.660
8.6948 22.434
8.7100 22.713
8.7252 22.344
8.7403 23.003
8.7555 22.627
8.7707 22.777
8.7859 22.682
8.8010 22.280
8.8162 22.323
8.8314 22.607
8.8466 22.627
8.8617 22.643
8.8769 22.635
8.8921 22.969
8.9073 22.347
8.9224 22.865
8.9376 22.544
8.9528 23.045
8.9680 23.084
8.9831 22.859
8.9983 23.108
9.0135 22.824
9.0287 22.918
9.0438 23.043
9.0590 23.119
9.0742 22.644
9.0894 22.864
9.1045 22.947
9.1197 22.518
9.1349 22.842
9.1501 22.785
9.1652 22.820
9.1804 22.961
9.1956 22.887
9.2108 22.868
9.2259 22.923
9.2411 22.773
9.2563 23.122
9.2715 23.056
9.2866 23.250
9.3018 23.053
9.3170 23.236
9.3322 23.109
9.3473 23.227
9.3625 22.810
9.3777 23.204
9.3929 22.814
9.4080 22.789
9.4232 23.147
9.4384 22.925
9.4536 23.026
9.4687 23.161
9.4839 23.157
9.4991 23.188
9.5143 23.204
9.5294 23.473
9.5446 23.782
9.5598 23.538
9.5750 23.539
9.5901 23.412
9.6053 23.487
9.6205 23.767
9.6357 23.422
9.6508 23.320
9.6660 23.660
9.6812 23.655
9.6964 23.985
9.7115 24.135
9.7267 24.263
9.7419 24.339
9.7571 23.990
9.7722 24.156
9.7874 24.036
9.8026 23.758
9.8178 23.662
9.8329 23.541
9.8481 23.424
9.8633 23.429
9.8785 23.253
9.8936 23.170
9.9088 23.366
9.9240 23.375
9.9392 23.577
9.9543 23.497
9.9695 23.681
9.9847 23.822
9.9999 24.049
10.0150 23.978
10.0302 23.877
10.0454 23.866
10.0606 23.574
10.0757 23.932
10.0909 23.962
10.1061 23.623
10.1213 23.558
10.1364 23.792
10.1516 23.789
10.1668 23.808
10.1820 24.066
10.1971 24.079
10.2123 24.061
10.2275 23.987
10.2427 23.880
10.2578 23.919
10.2730 23.720
10.2882 23.525
10.3034 23.474
10.3185 23.435
10.3337 23.591
10.3489 23.175
10.3641 23.139
10.3792 22.999
10.3944 22.931
10.4096 22.980
10.4248 23.082
10.4399 23.131
10.4551 22.939
10.4703 22.696
10.4855 22.843
10.5006 22.876
10.5158 22.739
10.5310 22.907
10.5462 23.010
10.5613 22.922
10.5765 22.938
10.5917 22.834
10.6069 22.548
10.6220 22.530
10.6372 23.079
10.6524 23.140
10.6676 22.734
10.6827 22.208
10.6979 22.414
10.7131 22.555
10.7283 22.552
10.7434 22.338
10.7586 22.425
10.7738 22.580
10.7890 22.519
10.8041 22.566
10.8193 22.435
10.8345 22.519
10.8497 22.096
10.8648 21.919
10.8800 21.951
10.8952 22.354
10.9104 22.301
10.9255 22.687
10.9407 22.540
10.9559 22.148
10.9711 22.366
10.9862 22.501
11.0014 22.236
11.0166 22.417
11.0318 22.115
11.0469 22.077
11.0621 22.186
11.0773 22.062
11.0925 21.968
11.1076 22.259
11.1228 22.287
11.1380 21.954
11.1532 21.985
11.1683 21.734
11.1835 21.761
11.1987 21.734
11.2139 21.618
11.2290 22.018
11.2442 22.106
11.2594 22.154
11.2746 22.155
11.2897 22.057
11.3049 21.941
11.3201 21.698
11.3353 21.479
11.3504 21.590
11.3656 21.559
11.3808 21.681
11.3960 21.414
11.4111 21.284
11.4263 21.526
11.4415 21.215
11.4567 21.260
11.4718 21.029
11.4870 21.004
11.5022 21.009
11.5174 21.063
11.5325 21.159
11.5477 21.023
11.5629 21.007
11.5781 20.917
11.5932 20.961
11.6084 20.936
11.6236 21.187
11.6388 20.904
11.6539 20.627
11.6691 20.099
11.6843 20.331
11.6995 20.656
11.7146 20.682
11.7298 20.446
11.7450 19.901
11.7602 19.877
11.7753 20.010
11.7905 20.104
11.8057 20.296
11.8209 19.867
11.8360 20.119
11.8512 20.114
11.8664 19.673
11.8816 19.875
11.8967 19.892
11.9119 19.294
11.9271 19.291
11.9423 19.625
11.9574 19.443
11.9726 19.261
11.9878 19.434
12.0030 19.670
12.0181 19.127
12.0333 18.870
12.0485 18.825
12.0637 19.293
12.0788 19.239
12.0940 18.988
12.1092 18.733
12.1244 18.566
12.1395 18.730
12.1547 18.631
12.1699 18.409
12.1851 18.360
12.2002 18.329
12.2154 18.519
12.2306 18.306
12.2458 18.383
12.2609 18.175
12.2761 18.013
12.2913 18.205
12.3065 17.936
12.3216 17.842
12.3368 17.473
12.3520 17.491
12.3672 17.479
12.3823 17.337
12.3975 17.339
12.4127 17.318
12.4279 17.356
12.4430 17.248
12.4582 17.141
12.4734 17.102
12.4886 16.996
12.5037 17.052
12.5189 17.132
12.5341 16.721
12.5493 16.635
12.5644 16.732
12.5796 16.562
12.5948 16.523
12.6100 16.203
12.6251 16.077
12.6403 16.226
12.6555 15.827
12.6707 15.599
12.6858 15.701
12.7010 15.673
12.7162 15.663
12.7314 15.453
12.7465 15.320
12.7617 15.378
12.7769 15.242
12.7921 15.208
12.8072 15.386
12.8224 15.286
12.8376 14.917
12.8528 14.702
12.8679 14.805
12.8831 14.785
12.8983 14.815
12.9135 14.981
12.9286 14.800
12.9438 14.539
12.9590 14.553
12.9742 14.347
12.9893 14.345
13.0045 14.384
13.0197 14.262
13.0349 14.109
13.0500 14.028
13.0652 14.136
13.0804 14.025
13.0956 13.819
13.1107 13.711
13.1259 13.834
13.1411 13.762
13.1563 13.575
13.1714 13.717
13.1866 13.560
13.2018 13.465
13.2170 13.458
13.2321 13.419
13.2473 13.336
13.2625 13.124
13.2777 13.249
13.2928 13.232
13.3080 13.076
13.3232 13.109
13.3384 13.032
13.3535 12.846
13.3687 12.907
13.3839 12.952
13.3991 13.003
13.4142 13.036
13.4294 12.972
13.4446 12.737
13.4598 12.812
13.4749 12.918
13.4901 12.636
13.5053 12.535
13.5205 12.702
13.5356 12.614
13.5508 12.597
13.5660 12.655
13.5812 12.500
13.5963 12.176
13.6115 12.086
13.6267 12.050
13.6419 12.273
13.6570 12.170
13.6722 12.270
13.6874 12.223
13.7026 12.062
13.7177 12.008
13.7329 12.029
13.7481 11.939
13.7633 11.992
13.7784 12.007
13.7936 12.336
13.8088 12.359
13.8239 12.017
13.8391 12.018
13.8543 12.293
13.8695 12.155
13.8846 12.354
13.8998 12.278
13.9150 11.943
13.9302 11.784
13.9453 11.846
13.9605 11.936
13.9757 11.843
13.9909 11.908
14.0060 11.618
14.0212 11.371
14.0364 11.551
14.0516 11.293
14.0667 11.564
14.0819 11.459
14.0971 11.119
14.1123 11.199
14.1274 11.585
14.1426 11.502
14.1578 11.592
14.1730 11.563
14.1881 11.612
14.2033 11.642
14.2185 11.784
14.2337 11.468
14.2488 11.735
14.2640 11.981
14.2792 11.730
14.2944 11.751
14.3095 12.161
14.3247 12.381
14.3399 12.560
14.3551 12.843
14.3702 13.051
14.3854 13.099
14.4006 13.452
14.4158 12.883
14.4309 12.844
14.4461 12.967
14.4613 13.070
14.4765 12.925
14.4916 12.939
14.5068 12.399
14.5220 12.149
14.5372 11.915
14.5523 11.894
14.5675 12.002
14.5827 11.654
14.5979 11.678
14.6130 11.561
14.6282 11.328
14.6434 11.255
14.6586 11.262
14.6737 11.384
14.6889 11.466
14.7041 11.029
14.7193 10.859
14.7344 10.815
14.7496 10.853
14.7648 10.506
14.7800 10.646
14.7951 10.616
14.8103 10.663
14.8255 10.457
14.8407 10.798
14.8558 10.565
14.8710 10.570
14.8862 10.504
14.9014 10.607
14.9165 11.220
14.9317 10.796
14.9469 10.690
14.9621 10.824
14.9772 10.176
14.9924 10.221
15.0076 10.602
15.0228 10.712
15.0379 10.491
15.0531 10.361
15.0683 10.461
15.0835 10.418
15.0986 10.486
15.1138 10.564
15.1290 11.031
15.1442 10.374
15.1593 10.509
15.1745 10.538
15.1897 10.443
15.2049 10.441
15.2200 10.656
15.2352 10.265
15.2504 10.428
15.2656 10.149
15.2807 10.038
15.2959 10.339
15.3111 10.161
15.3263 10.233
15.3414 10.322
15.3566 10.627
15.3718 10.136
15.3870 10.490
15.4021 10.454
15.4173 10.164
15.4325 10.740
15.4477 10.478
15.4628 10.588
15.4780 10.433
15.4932 10.387
15.5084 10.300
15.5235 10.069
15.5387 10.154
15.5539 10.410
15.5691 10.331
15.5842 10.373
15.5994 10.135
15.6146 10.266
15.6298 10.181
15.6449 9.773
15.6601 9.990
15.6753 9.631
15.6905 10.009
15.7056 10.062
15.7208 10.027
15.7360 10.064
15.7512 10.038
15.7663 10.163
15.7815 9.991
15.7967 9.712
15.8119 9.586
15.8270 9.720
15.8422 9.694
15.8574 10.161
15.8726 9.789
15.8877 9.938
15.9029 9.669
15.9181 9.766
15.9333 9.710
15.9484 9.584
15.9636 9.725
15.9788 9.543
15.9940 10.054
16.0091 10.008
16.0243 9.665
16.0395 9.783
16.0547 9.705
16.0698 9.899
16.0850 9.813
16.1002 9.456
16.1154 9.855
16.1305 9.798
16.1457 9.802
16.1609 9.557
16.1761 9.540
16.1912 9.844
16.2064 9.910
16.2216 10.052
16.2368 9.732
16.2519 9.644
16.2671 9.723
16.2823 9.967
16.2975 10.226
16.3126 10.221
16.3278 9.892
16.3430 9.804
16.3582 10.047
16.3733 10.186
16.3885 9.961
16.4037 9.829
16.4189 9.990
16.4340 10.057
16.4492 10.075
16.4644 10.411
16.4796 9.971
16.4947 9.669
16.5099 9.758
16.5251 9.817
16.5403 9.504
16.5554 9.753
16.5706 9.677
16.5858 9.548
16.6010 9.652
16.6161 9.673
16.6313 9.812
16.6465 9.877
16.6617 10.035
16.6768 9.797
16.6920 9.822
16.7072 10.043
16.7224 10.170
16.7375 10.027
16.7527 9.770
16.7679 9.770
16.7831 9.905
16.7982 9.842
16.8134 9.922
16.8286 9.923
16.8438 9.867
16.8589 9.609
16.8741 9.582
16.8893 9.860
16.9045 9.865
16.9196 9.786
16.9348 9.857
16.9500 9.964
16.9652 9.940
16.9803 9.855
16.9955 10.002
17.0107 10.214
17.0259 10.073
17.0410 9.998
17.0562 9.999
17.0714 10.145
17.0866 10.420
17.1017 10.432
17.1169 10.678
17.1321 11.005
17.1473 11.396
17.1624 11.699
17.1776 12.208
17.1928 13.124
17.2080 13.976
17.2231 15.208
17.2383 16.455
17.2535 17.522
17.2687 18.377
17.2838 18.564
17.2990 18.204
17.3142 17.094
17.3294 16.396
17.3445 16.332
17.3597 16.060
17.3749 15.931
17.3901 15.389
17.4052 14.134
17.4204 12.909
17.4356 12.239
17.4508 12.019
17.4659 11.916
17.4811 11.724
17.4963 11.467
17.5115 11.309
17.5266 11.330
17.5418 11.187
17.5570 11.009
17.5722 11.342
17.5873 11.600
17.6025 11.560
17.6177 11.494
17.6329 11.258
17.6480 11.005
17.6632 10.956
17.6784 11.095
17.6936 10.979
17.7087 10.777
17.7239 10.810
17.7391 10.791
17.7543 10.661
17.7694 10.603
17.7846 10.806
17.7998 10.910
17.8150 10.862
17.8301 10.860
17.8453 10.802
17.8605 10.735
17.8757 10.994
17.8908 10.911
17.9060 10.719
17.9212 10.786
17.9364 10.640
17.9515 10.583
17.9667 10.615
17.9819 10.250
17.9971 10.131
18.0122 10.364
18.0274 10.279
18.0426 9.937
18.0578 10.071
18.0729 10.263
18.0881 10.137
18.1033 10.265
18.1185 10.258
18.1336 10.047
18.1488 9.898
18.1640 9.855
18.1792 9.795
18.1943 9.976
18.2095 9.936
18.2247 9.872
18.2399 9.974
18.2550 9.960
18.2702 9.868
18.2854 9.644
18.3006 9.829
18.3157 9.730
18.3309 9.761
18.3461 9.844
18.3613 9.710
18.3764 9.795
18.3916 9.769
18.4068 9.981
18.4220 10.037
18.4371 9.896
18.4523 9.909
18.4675 9.948
18.4827 9.915
18.4978 9.786
18.5130 9.834
18.5282 9.892
18.5434 9.778
18.5585 9.588
18.5737 9.706
18.5889 9.670
18.6041 9.651
18.6192 9.749
18.6344 9.626
18.6496 9.725
18.6648 9.831
18.6799 9.768
18.6951 9.698
18.7103 9.681
18.7255 9.635
18.7406 9.574
18.7558 9.655
18.7710 9.730
18.7862 9.637
18.8013 9.389
18.8165 9.577
18.8317 9.936
18.8469 9.785
18.8620 9.767
18.8772 9.983
18.8924 9.934
18.9076 9.867
18.9227 9.929
18.9379 9.838
18.9531 10.083
18.9683 10.238
18.9834 9.833
18.9986 10.006
19.0138 10.359
19.0290 10.331
19.0441 10.136
19.0593 10.101
19.0745 10.294
19.0897 10.401
19.1048 10.457
19.1200 10.287
19.1352 10.240
19.1504 10.478
19.1655 10.558
19.1807 10.741
19.1959 10.772
19.2111 10.483
19.2262 10.445
19.2414 10.755
19.2566 10.986
19.2718 10.860
19.2869 10.828
19.3021 10.921
19.3173 11.101
19.3325 11.068
19.3476 10.947
19.3628 11.173
19.3780 11.270
19.3932 11.321
19.4083 11.318
19.4235 11.241
19.4387 11.115
19.4539 11.083
19.4690 11.309
19.4842 11.391
19.4994 11.207
19.5146 11.240
19.5297 11.448
19.5449 11.311
19.5601 11.244
19.5753 11.239
19.5904 11.126
19.6056 11.404
19.6208 11.693
19.6360 11.603
19.6511 11.528
19.6663 11.750
19.6815 11.728
19.6967 11.456
19.7118 11.532
19.7270 11.575
19.7422 11.433
19.7574 11.593
19.7725 11.799
19.7877 11.895
19.8029 11.882
19.8180 11.920
19.8332 11.942
19.8484 11.936
19.8636 12.330
19.8787 12.609
19.8939 12.657
19.9091 12.857
19.9243 13.086
19.9394 13.572
19.9546 13.982
19.9698 14.179
19.9850 14.229
20.0001 14.322
20.0153 14.212
20.0305 13.701
20.0457 13.514
20.0608 13.456
20.0760 13.501
20.0912 13.596
20.1064 13.881
20.1215 13.712
20.1367 13.509
20.1519 13.258
20.1671 13.032
20.1822 13.049
20.1974 12.859
20.2126 12.805
20.2278 12.882
20.2429 12.771
20.2581 12.346
20.2733 11.982
20.2885 12.090
20.3036 11.959
20.3188 11.934
20.3340 11.850
20.3492 11.612
20.3643 11.434
20.3795 11.426
20.3947 11.107
20.4099 10.804
20.4250 11.020
20.4402 11.121
20.4554 10.894
20.4706 10.858
20.4857 11.059
20.5009 11.037
20.5161 10.730
20.5313 10.724
20.5464 10.897
20.5616 10.983
20.5768 10.810
20.5920 10.782
20.6071 10.849
20.6223 10.932
20.6375 10.930
20.6527 10.801
20.6678 10.503
20.6830 10.816
20.6982 10.715
20.7134 10.459
20.7285 10.762
20.7437 10.669
20.7589 10.550
20.7741 10.524
20.7892 10.538
20.8044 10.529
20.8196 10.403
20.8348 10.948
20.8499 10.328
20.8651 10.443
20.8803 10.432
20.8955 10.279
20.9106 10.195
20.9258 10.093
20.9410 10.240
20.9562 10.332
20.9713 10.334
20.9865 9.775
21.0017 9.824
21.0169 9.897
21.0320 10.068
21.0472 9.939
21.0624 10.255
21.0776 10.029
21.0927 9.919
21.1079 9.933
21.1231 9.849
21.1383 9.796
21.1534 9.678
21.1686 9.409
21.1838 10.014
21.1990 9.799
21.2141 9.640
21.2293 9.778
21.2445 9.637
21.2597 9.844
21.2748 9.346
21.2900 9.512
21.3052 9.471
21.3204 9.514
21.3355 9.773
21.3507 9.748
21.3659 9.388
21.3811 9.563
21.3962 9.521
21.4114 9.547
21.4266 9.209
21.4418 9.097
21.4569 9.290
21.4721 9.273
21.4873 9.455
21.5025 9.355
21.5176 9.655
21.5328 8.960
21.5480 9.409
21.5632 9.436
21.5783 9.237
21.5935 9.286
21.6087 9.093
21.6239 9.265
21.6390 9.133
21.6542 9.302
21.6694 9.280
21.6846 9.091
21.6997 9.160
21.7149 9.053
21.7301 9.158
21.7453 9.097
21.7604 8.964
21.7756 9.054
21.7908 9.036
21.8060 8.980
21.8211 8.914
21.8363 9.017
21.8515 9.164
21.8667 9.174
21.8818 8.991
21.8970 9.012
21.9122 8.963
21.9274 8.948
21.9425 8.963
21.9577 9.003
21.9729 9.069
21.9881 9.089
22.0032 9.007
22.0184 8.962
22.0336 8.723
22.0488 8.674
22.0639 8.921
22.0791 9.033
22.0943 8.882
22.1095 8.673
22.1246 8.503
22.1398 8.559
22.1550 8.649
22.1702 8.571
22.1853 8.511
22.2005 8.629
22.2157 8.597
22.2309 8.556
22.2460 8.473
22.2612 8.677
22.2764 8.872
22.2916 8.658
22.3067 8.474
22.3219 8.564
22.3371 8.436
22.3523 8.512
22.3674 8.519
22.3826 8.553
22.3978 8.395
22.4130 8.519
22.4281 8.757
22.4433 8.708
22.4585 8.329
22.4737 8.402
22.4888 8.325
22.5040 8.503
22.5192 8.540
22.5344 8.432
22.5495 8.549
22.5647 8.584
22.5799 8.640
22.5951 8.298
22.6102 8.458
22.6254 8.638
22.6406 8.403
22.6558 8.505
22.6709 8.598
22.6861 8.560
22.7013 8.227
22.7165 7.920
22.7316 6.577
