'Id: "" Comment: "" Operator: "Lab Manager" Anode: "Mo" Scantype: "Still (Eiger2R_500K (1D mode))" TimePerStep: "300" X: "11.8" Y: "9.4" Z: "11.284" 
7.2532 18.527
7.2684 18.541
7.2836 18.599
7.2987 18.963
7.3139 19.309
7.3291 19.167
7.3443 19.380
7.3594 19.284
7.3746 19.403
7.3898 19.719
7.4050 19.372
7.4201 19.535
7.4353 19.590
7.4505 19.585
7.4657 19.624
7.4808 19.916
7.4960 19.612
7.5112 19.617
7.5264 20.178
7.5415 19.748
7.5567 19.799
7.5719 20.168
7.5871 19.747
7.6022 19.917
7.6174 20.301
7.6326 20.329
7.6478 20.180
7.6629 20.276
7.6781 20.615
7.6933 20.072
7.7085 19.846
7.7236 20.236
7.7388 20.194
7.7540 20.295
7.7692 20.473
7.7843 20.421
7.7995 20.464
7.8147 20.636
7.8299 20.785
7.8450 21.001
7.8602 20.768
7.8754 20.521
7.8905 20.780
7.9057 20.824
7.9209 20.766
7.9361 20.770
7.9512 20.957
7.9664 21.265
7.9816 21.041
7.9968 21.122
8.0119 21.318
8.0271 21.263
8.0423 21.222
8.0575 21.294
8.0726 21.293
8.0878 21.330
8.1030 21.210
8.1182 21.177
8.1333 20.938
8.1485 21.463
8.1637 22.012
8.1789 21.693
8.1940 21.766
8.2092 21.411
8.2244 21.607
8.2396 21.661
8.2547 21.803
8.2699 21.376
8.2851 21.927
8.3003 21.670
8.3154 21.885
8.3306 21.596
8.3458 21.805
8.3610 21.717
8.3761 21.864
8.3913 21.737
8.4065 21.532
8.4217 21.669
8.4368 21.658
8.4520 22.212
8.4672 22.196
8.4824 21.488
8.4975 21.534
8.5127 22.320
8.5279 22.341
8.5431 22.037
8.5582 22.520
8.5734 22.010
8.5886 22.412
8.6038 21.971
8.6189 22.404
8.6341 22.284
8.6493 22.182
8.6645 22.368
8.6796 22.241
8.6948 22.144
8.7100 22.337
8.7252 22.343
8.7403 22.797
8.7555 22.585
8.7707 22.203
8.7859 23.004
8.8010 22.594
8.8162 22.666
8.8314 22.667
8.8466 22.293
8.8617 21.915
8.8769 22.173
8.8921 22.466
8.9073 23.076
8.9224 22.763
8.9376 22.808
8.9528 22.803
8.9680 22.708
8.9831 22.393
8.9983 22.565
9.0135 22.740
9.0287 22.559
9.0438 22.357
9.0590 22.578
9.0742 22.928
9.0894 23.231
9.1045 23.082
9.1197 22.960
9.1349 22.941
9.1501 23.188
9.1652 23.535
9.1804 23.182
9.1956 23.074
9.2108 23.104
9.2259 23.086
9.2411 23.034
9.2563 22.974
9.2715 22.651
9.2866 22.656
9.3018 22.917
9.3170 23.039
9.3322 22.698
9.3473 22.932
9.3625 22.892
9.3777 23.128
9.3929 23.170
9.4080 23.348
9.4232 23.045
9.4384 23.234
9.4536 23.259
9.4687 23.052
9.4839 23.144
9.4991 23.051
9.5143 23.212
9.5294 23.675
9.5446 23.506
9.5598 23.032
9.5750 23.259
9.5901 23.224
9.6053 23.074
9.6205 23.474
9.6357 23.799
9.6508 23.686
9.6660 23.697
9.6812 23.480
9.6964 23.741
9.7115 24.178
9.7267 24.177
9.7419 24.313
9.7571 24.415
9.7722 24.248
9.7874 24.000
9.8026 23.821
9.8178 23.716
9.8329 23.523
9.8481 23.457
9.8633 23.728
9.8785 23.798
9.8936 23.748
9.9088 23.697
9.9240 23.489
9.9392 23.510
9.9543 23.622
9.9695 23.411
9.9847 23.263
9.9999 23.580
10.0150 23.534
10.0302 23.387
10.0454 23.673
10.0606 23.729
10.0757 23.552
10.0909 23.503
10.1061 23.266
10.1213 23.421
10.1364 23.547
10.1516 23.569
10.1668 23.467
10.1820 23.528
10.1971 23.250
10.2123 23.269
10.2275 22.908
10.2427 22.759
10.2578 22.951
10.2730 23.117
10.2882 22.976
10.3034 22.943
10.3185 22.694
10.3337 22.923
10.3489 22.868
10.3641 22.722
10.3792 22.997
10.3944 22.984
10.4096 22.719
10.4248 22.937
10.4399 23.196
10.4551 22.846
10.4703 22.464
10.4855 22.525
10.5006 22.845
10.5158 22.554
10.5310 22.281
10.5462 22.273
10.5613 22.296
10.5765 22.506
10.5917 22.762
10.6069 22.580
10.6220 22.694
10.6372 22.909
10.6524 22.708
10.6676 22.547
10.6827 22.892
10.6979 22.626
10.7131 22.351
10.7283 22.616
10.7434 22.538
10.7586 22.485
10.7738 22.378
10.7890 22.615
10.8041 22.569
10.8193 22.625
10.8345 22.474
10.8497 22.249
10.8648 22.238
10.8800 22.248
10.8952 22.024
10.9104 22.216
10.9255 22.203
10.9407 22.248
10.9559 22.215
10.9711 22.091
10.9862 22.314
11.0014 22.180
11.0166 21.961
11.0318 22.039
11.0469 22.281
11.0621 21.902
11.0773 22.024
11.0925 22.376
11.1076 21.979
11.1228 21.674
11.1380 21.640
11.1532 21.853
11.1683 21.907
11.1835 21.795
11.1987 21.248
11.2139 21.675
11.2290 21.714
11.2442 21.585
11.2594 21.522
11.2746 21.579
11.2897 21.762
11.3049 21.642
11.3201 21.713
11.3353 21.743
11.3504 21.829
11.3656 21.548
11.3808 21.442
11.3960 21.702
11.4111 21.433
11.4263 21.055
11.4415 21.235
11.4567 21.110
11.4718 21.038
11.4870 21.324
11.5022 21.464
11.5174 21.447
11.5325 21.176
11.5477 21.394
11.5629 21.345
11.5781 21.066
11.5932 20.586
11.6084 20.993
11.6236 21.463
11.6388 20.972
11.6539 20.749
11.6691 20.725
11.6843 20.694
11.6995 20.624
11.7146 20.432
11.7298 20.263
11.7450 20.633
11.7602 20.329
11.7753 20.255
11.7905 20.376
11.8057 20.347
11.8209 20.155
11.8360 20.061
11.8512 19.985
11.8664 19.732
11.8816 19.696
11.8967 19.998
11.9119 19.752
11.9271 19.189
11.9423 19.626
11.9574 19.453
11.9726 19.232
11.9878 19.222
12.0030 19.238
12.0181 19.226
12.0333 19.065
12.0485 18.963
12.0637 19.032
12.0788 19.067
12.0940 18.901
12.1092 18.955
12.1244 18.790
12.1395 18.846
12.1547 18.402
12.1699 18.053
12.1851 18.088
12.2002 18.491
12.2154 18.355
12.2306 18.075
12.2458 18.097
12.2609 18.199
12.2761 18.053
12.2913 18.019
12.3065 17.750
12.3216 17.658
12.3368 17.618
12.3520 17.555
12.3672 17.209
12.3823 17.519
12.3975 17.581
12.4127 17.293
12.4279 17.157
12.4430 16.871
12.4582 16.785
12.4734 16.995
12.4886 16.751
12.5037 16.498
12.5189 16.634
12.5341 16.874
12.5493 16.675
12.5644 16.619
12.5796 16.582
12.5948 16.173
12.6100 16.237
12.6251 16.235
12.6403 16.001
12.6555 15.940
12.6707 15.813
12.6858 15.895
12.7010 15.827
12.7162 15.680
12.7314 15.448
12.7465 15.315
12.7617 15.245
12.7769 15.235
12.7921 15.125
12.8072 15.276
12.8224 15.268
12.8376 15.061
12.8528 15.017
12.8679 14.942
12.8831 14.870
12.8983 14.938
12.9135 14.807
12.9286 14.654
12.9438 14.553
12.9590 14.651
12.9742 14.553
12.9893 14.430
13.0045 14.348
13.0197 14.163
13.0349 14.091
13.0500 14.160
13.0652 14.189
13.0804 14.155
13.0956 13.868
13.1107 13.924
13.1259 14.178
13.1411 13.749
13.1563 13.430
13.1714 13.708
13.1866 13.997
13.2018 13.751
13.2170 13.430
13.2321 13.415
13.2473 13.497
13.2625 13.570
13.2777 13.420
13.2928 13.501
13.3080 13.701
13.3232 13.356
13.3384 13.244
13.3535 13.275
13.3687 12.941
13.3839 12.956
13.3991 13.223
13.4142 13.104
13.4294 12.928
13.4446 12.900
13.4598 12.967
13.4749 12.911
13.4901 12.862
13.5053 12.440
13.5205 12.271
13.5356 12.472
13.5508 12.677
13.5660 12.810
13.5812 12.389
13.5963 12.354
13.6115 12.406
13.6267 12.195
13.6419 12.165
13.6570 12.093
13.6722 12.115
13.6874 12.319
13.7026 12.463
13.7177 12.055
13.7329 11.922
13.7481 11.964
13.7633 12.029
13.7784 12.356
13.7936 12.140
13.8088 12.334
13.8239 12.393
13.8391 12.316
13.8543 12.280
13.8695 12.307
13.8846 12.290
13.8998 12.379
13.9150 12.101
13.9302 12.078
13.9453 12.047
13.9605 12.234
13.9757 12.119
13.9909 11.816
14.0060 11.518
14.0212 11.464
14.0364 11.765
14.0516 11.495
14.0667 11.491
14.0819 11.529
14.0971 11.587
14.1123 11.561
14.1274 11.614
14.1426 11.756
14.1578 11.745
14.1730 11.520
14.1881 11.326
14.2033 11.612
14.2185 11.595
14.2337 11.435
14.2488 11.938
14.2640 11.551
14.2792 11.500
14.2944 11.963
14.3095 11.826
14.3247 12.084
14.3399 12.478
14.3551 12.562
14.3702 12.678
14.3854 13.218
14.4006 13.032
14.4158 13.229
14.4309 13.175
14.4461 13.106
14.4613 13.148
14.4765 12.732
14.4916 12.360
14.5068 12.025
14.5220 11.975
14.5372 11.598
14.5523 11.452
14.5675 11.452
14.5827 11.087
14.5979 11.280
14.6130 10.953
14.6282 10.979
14.6434 11.130
14.6586 10.856
14.6737 10.621
14.6889 10.725
14.7041 10.635
14.7193 10.787
14.7344 10.728
14.7496 10.776
14.7648 10.841
14.7800 10.479
14.7951 10.604
14.8103 10.603
14.8255 10.525
14.8407 10.712
14.8558 10.720
14.8710 10.545
14.8862 10.963
14.9014 10.366
14.9165 11.047
14.9317 11.180
14.9469 10.668
14.9621 10.673
14.9772 10.248
14.9924 10.305
15.0076 10.091
15.0228 10.596
15.0379 10.283
15.0531 10.665
15.0683 10.476
15.0835 10.242
15.0986 10.382
15.1138 10.277
15.1290 10.446
15.1442 10.605
15.1593 10.158
15.1745 10.373
15.1897 10.570
15.2049 10.288
15.2200 10.135
15.2352 10.034
15.2504 10.216
15.2656 10.445
15.2807 10.046
15.2959 10.329
15.3111 9.910
15.3263 10.254
15.3414 10.694
15.3566 10.114
15.3718 10.424
15.3870 9.967
15.4021 10.220
15.4173 10.100
15.4325 10.212
15.4477 10.417
15.4628 10.203
15.4780 10.103
15.4932 10.225
15.5084 10.262
15.5235 10.433
15.5387 10.061
15.5539 9.808
15.5691 10.236
15.5842 10.176
15.5994 10.326
15.6146 9.907
15.6298 10.267
15.6449 9.743
15.6601 9.985
15.6753 9.913
15.6905 10.053
15.7056 10.087
15.7208 9.805
15.7360 10.077
15.7512 9.770
15.7663 9.920
15.7815 9.758
15.7967 9.644
15.8119 9.890
15.8270 10.108
15.8422 10.108
15.8574 9.878
15.8726 9.698
15.8877 9.600
15.9029 9.744
15.9181 9.714
15.9333 9.787
15.9484 9.642
15.9636 9.574
15.9788 9.800
15.9940 9.797
16.0091 9.668
16.0243 9.813
16.0395 9.835
16.0547 9.794
16.0698 9.678
16.0850 9.627
16.1002 9.866
16.1154 9.544
16.1305 9.636
16.1457 9.670
16.1609 9.630
16.1761 9.510
16.1912 9.770
16.2064 9.723
16.2216 9.952
16.2368 10.003
16.2519 9.733
16.2671 9.702
16.2823 9.957
16.2975 10.012
16.3126 10.006
16.3278 9.784
16.3430 9.677
16.3582 9.898
16.3733 10.117
16.3885 10.023
16.4037 10.100
16.4189 10.107
16.4340 9.949
16.4492 9.727
16.4644 9.821
16.4796 10.118
16.4947 9.936
16.5099 9.724
16.5251 9.700
16.5403 9.748
16.5554 9.674
16.5706 9.711
16.5858 9.732
16.6010 9.757
16.6161 9.816
16.6313 10.006
16.6465 9.835
16.6617 9.855
16.6768 10.041
16.6920 10.002
16.7072 9.847
16.7224 9.932
16.7375 10.061
16.7527 9.868
16.7679 9.853
16.7831 9.979
16.7982 9.906
16.8134 10.048
16.8286 10.094
16.8438 10.027
16.8589 9.891
16.8741 9.694
16.8893 9.781
16.9045 9.791
16.9196 9.571
16.9348 9.779
16.9500 10.037
16.9652 10.189
16.9803 10.087
16.9955 9.866
17.0107 9.689
17.0259 9.809
17.0410 10.207
17.0562 10.283
17.0714 10.408
17.0866 10.602
17.1017 10.748
17.1169 10.861
17.1321 11.099
17.1473 11.299
17.1624 11.657
17.1776 12.606
17.1928 13.372
17.2080 13.840
17.2231 15.043
17.2383 16.559
17.2535 17.665
17.2687 18.420
17.2838 18.637
17.2990 18.190
17.3142 17.096
17.3294 16.235
17.3445 16.034
17.3597 15.849
17.3749 15.695
17.3901 15.277
17.4052 14.051
17.4204 13.172
17.4356 12.566
17.4508 11.811
17.4659 11.649
17.4811 11.504
17.4963 11.238
17.5115 11.106
17.5266 10.971
17.5418 10.669
17.5570 10.598
17.5722 10.706
17.5873 10.641
17.6025 10.746
17.6177 10.734
17.6329 10.701
17.6480 11.130
17.6632 11.245
17.6784 11.028
17.6936 11.327
17.7087 11.479
17.7239 11.245
17.7391 11.227
17.7543 11.158
17.7694 10.945
17.7846 11.107
17.7998 11.121
17.8150 11.043
17.8301 10.620
17.8453 10.450
17.8605 10.693
17.8757 10.486
17.8908 10.365
17.9060 10.572
17.9212 10.600
17.9364 10.453
17.9515 10.452
17.9667 10.511
17.9819 10.625
17.9971 10.432
18.0122 10.182
18.0274 10.261
18.0426 10.338
18.0578 10.153
18.0729 10.042
18.0881 10.119
18.1033 10.076
18.1185 10.019
18.1336 10.054
18.1488 10.149
18.1640 10.055
18.1792 9.846
18.1943 9.981
18.2095 9.915
18.2247 9.929
18.2399 9.825
18.2550 9.825
18.2702 9.721
18.2854 9.914
18.3006 10.053
18.3157 9.939
18.3309 9.862
18.3461 9.807
18.3613 9.983
18.3764 10.001
18.3916 9.625
18.4068 9.675
18.4220 9.856
18.4371 9.732
18.4523 9.563
18.4675 9.831
18.4827 9.885
18.4978 9.737
18.5130 9.811
18.5282 9.613
18.5434 9.576
18.5585 9.850
18.5737 9.853
18.5889 9.658
18.6041 9.753
18.6192 9.695
18.6344 9.385
18.6496 9.605
18.6648 9.941
18.6799 10.076
18.6951 9.916
18.7103 9.698
18.7255 9.874
18.7406 9.975
18.7558 9.752
18.7710 9.843
18.7862 9.957
18.8013 9.829
18.8165 9.943
18.8317 10.173
18.8469 9.985
18.8620 9.972
18.8772 9.953
18.8924 9.928
18.9076 9.987
18.9227 9.930
18.9379 9.839
18.9531 9.830
18.9683 10.024
18.9834 10.046
18.9986 9.939
19.0138 10.043
19.0290 10.104
19.0441 10.087
19.0593 10.289
19.0745 10.216
19.0897 10.026
19.1048 10.380
19.1200 10.486
19.1352 10.487
19.1504 10.642
19.1655 10.754
19.1807 10.800
19.1959 10.766
19.2111 10.770
19.2262 10.747
19.2414 10.898
19.2566 10.881
19.2718 10.914
19.2869 11.070
19.3021 11.101
19.3173 11.019
19.3325 11.123
19.3476 11.026
19.3628 10.809
19.3780 10.915
19.3932 11.119
19.4083 11.212
19.4235 11.141
19.4387 11.045
19.4539 11.103
19.4690 11.142
19.4842 11.416
19.4994 11.494
19.5146 11.619
19.5297 11.537
19.5449 11.456
19.5601 11.757
19.5753 11.476
19.5904 11.548
19.6056 11.846
19.6208 11.644
19.6360 11.536
19.6511 11.575
19.6663 11.801
19.6815 11.724
19.6967 11.676
19.7118 11.822
19.7270 11.606
19.7422 11.889
19.7574 12.036
19.7725 11.765
19.7877 11.675
19.8029 11.918
19.8180 12.278
19.8332 12.337
19.8484 12.230
19.8636 12.207
19.8787 12.557
19.8939 12.999
19.9091 13.346
19.9243 13.805
19.9394 14.037
19.9546 13.934
19.9698 14.111
19.9850 14.291
20.0001 14.275
20.0153 14.401
20.0305 13.868
20.0457 13.687
20.0608 13.821
20.0760 13.682
20.0912 13.720
20.1064 13.701
20.1215 13.607
20.1367 13.347
20.1519 13.170
20.1671 12.876
20.1822 12.756
20.1974 12.803
20.2126 12.674
20.2278 12.647
20.2429 12.328
20.2581 12.137
20.2733 12.124
20.2885 12.019
20.3036 11.896
20.3188 11.940
20.3340 11.876
20.3492 11.738
20.3643 11.736
20.3795 11.544
20.3947 11.566
20.4099 11.383
20.4250 11.276
20.4402 11.452
20.4554 11.332
20.4706 11.269
20.4857 11.515
20.5009 11.455
20.5161 11.577
20.5313 11.315
20.5464 11.244
20.5616 11.533
20.5768 11.275
20.5920 10.971
20.6071 10.970
20.6223 10.940
20.6375 10.593
20.6527 10.557
20.6678 10.429
20.6830 10.529
20.6982 10.658
20.7134 10.663
20.7285 10.384
20.7437 10.123
20.7589 10.424
20.7741 10.655
20.7892 10.474
20.8044 10.668
20.8196 10.332
20.8348 10.236
20.8499 10.367
20.8651 9.984
20.8803 9.969
20.8955 10.050
20.9106 10.354
20.9258 10.275
20.9410 10.186
20.9562 10.435
20.9713 10.213
20.9865 9.934
21.0017 10.209
21.0169 10.081
21.0320 10.340
21.0472 10.137
21.0624 10.190
21.0776 10.129
21.0927 10.049
21.1079 10.282
21.1231 9.688
21.1383 9.849
21.1534 9.619
21.1686 10.069
21.1838 9.506
21.1990 9.923
21.2141 9.974
21.2293 9.505
21.2445 9.904
21.2597 9.679
21.2748 9.955
21.2900 9.511
21.3052 9.676
21.3204 9.370
21.3355 9.580
21.3507 9.825
21.3659 9.570
21.3811 9.768
21.3962 9.756
21.4114 9.581
21.4266 9.565
21.4418 9.487
21.4569 9.300
21.4721 9.548
21.4873 9.384
21.5025 9.257
21.5176 9.375
21.5328 9.573
21.5480 9.298
21.5632 9.044
21.5783 9.148
21.5935 9.230
21.6087 9.371
21.6239 9.262
21.6390 9.314
21.6542 9.277
21.6694 9.266
21.6846 9.292
21.6997 9.235
21.7149 9.235
21.7301 9.145
21.7453 9.097
21.7604 9.246
21.7756 9.267
21.7908 9.244
21.8060 8.898
21.8211 8.924
21.8363 8.950
21.8515 8.830
21.8667 8.957
21.8818 9.103
21.8970 9.074
21.9122 9.020
21.9274 8.987
21.9425 8.978
21.9577 9.012
21.9729 8.930
21.9881 8.949
22.0032 9.180
22.0184 9.159
22.0336 9.057
22.0488 8.906
22.0639 8.744
22.0791 8.717
22.0943 8.601
22.1095 8.648
22.1246 8.745
22.1398 8.860
22.1550 8.623
22.1702 8.528
22.1853 8.587
22.2005 8.529
22.2157 8.690
22.2309 8.650
22.2460 8.510
22.2612 8.495
22.2764 8.530
22.2916 8.718
22.3067 8.618
22.3219 8.601
22.3371 8.420
22.3523 8.367
22.3674 8.572
22.3826 8.517
22.3978 8.576
22.4130 8.553
22.4281 8.593
22.4433 8.440
22.4585 8.306
22.4737 8.713
22.4888 8.529
22.5040 8.515
22.5192 8.542
22.5344 8.539
22.5495 8.326
22.5647 8.443
22.5799 8.352
22.5951 8.029
22.6102 8.248
22.6254 8.659
22.6406 8.663
22.6558 8.276
22.6709 8.481
22.6861 8.359
22.7013 8.286
22.7165 7.892
22.7316 6.532
