'Id: "" Comment: "" Operator: "Lab Manager" Anode: "Mo" Scantype: "Still (Eiger2R_500K (1D mode))" TimePerStep: "300" X: "11.8" Y: "9.4" Z: "11.284" 
7.2532 18.896
7.2684 19.055
7.2836 19.022
7.2987 18.885
7.3139 19.094
7.3291 19.238
7.3443 19.422
7.3594 19.119
7.3746 19.141
7.3898 19.222
7.4050 19.592
7.4201 19.424
7.4353 19.462
7.4505 19.569
7.4657 19.230
7.4808 19.440
7.4960 19.674
7.5112 19.627
7.5264 19.837
7.5415 19.549
7.5567 19.613
7.5719 19.798
7.5871 20.088
7.6022 19.998
7.6174 19.965
7.6326 20.187
7.6478 20.077
7.6629 20.443
7.6781 20.548
7.6933 20.453
7.7085 20.427
7.7236 20.381
7.7388 20.480
7.7540 20.530
7.7692 20.651
7.7843 20.635
7.7995 20.345
7.8147 20.608
7.8299 20.430
7.8450 20.428
7.8602 20.665
7.8754 20.772
7.8905 20.787
7.9057 20.828
7.9209 21.017
7.9361 20.975
7.9512 20.732
7.9664 20.705
7.9816 20.867
7.9968 21.126
8.0119 21.329
8.0271 21.040
8.0423 21.153
8.0575 21.267
8.0726 21.757
8.0878 21.360
8.1030 21.483
8.1182 21.377
8.1333 21.655
8.1485 21.570
8.1637 21.346
8.1789 21.519
8.1940 21.340
8.2092 21.548
8.2244 21.297
8.2396 21.201
8.2547 21.402
8.2699 21.963
8.2851 21.586
8.3003 21.693
8.3154 21.538
8.3306 21.962
8.3458 21.584
8.3610 21.786
8.3761 22.174
8.3913 22.017
8.4065 21.889
8.4217 21.977
8.4368 21.817
8.4520 22.256
8.4672 21.951
8.4824 22.444
8.4975 22.585
8.5127 21.548
8.5279 22.166
8.5431 21.948
8.5582 21.935
8.5734 22.074
8.5886 22.178
8.6038 22.357
8.6189 22.424
8.6341 22.378
8.6493 22.586
8.6645 22.130
8.6796 22.531
8.6948 22.791
8.7100 22.365
8.7252 22.725
8.7403 22.156
8.7555 22.406
8.7707 22.263
8.7859 21.853
8.8010 22.577
8.8162 22.315
8.8314 22.551
8.8466 22.502
8.8617 23.169
8.8769 22.745
8.8921 22.626
8.9073 22.500
8.9224 22.563
8.9376 22.334
8.9528 22.796
8.9680 22.619
8.9831 22.789
8.9983 22.481
9.0135 22.612
9.0287 22.631
9.0438 22.820
9.0590 22.722
9.0742 22.430
9.0894 22.832
9.1045 22.875
9.1197 22.700
9.1349 23.131
9.1501 23.442
9.1652 23.170
9.1804 22.907
9.1956 22.700
9.2108 22.761
9.2259 22.663
9.2411 22.521
9.2563 23.255
9.2715 23.199
9.2866 22.967
9.3018 23.063
9.3170 22.799
9.3322 23.143
9.3473 23.147
9.3625 23.345
9.3777 23.323
9.3929 23.346
9.4080 23.115
9.4232 23.045
9.4384 23.140
9.4536 23.066
9.4687 23.279
9.4839 23.290
9.4991 23.138
9.5143 23.081
9.5294 23.279
9.5446 23.532
9.5598 23.380
9.5750 23.351
9.5901 23.494
9.6053 23.599
9.6205 23.495
9.6357 23.735
9.6508 23.806
9.6660 23.596
9.6812 23.685
9.6964 23.995
9.7115 24.108
9.7267 24.175
9.7419 24.018
9.7571 24.065
9.7722 24.056
9.7874 23.696
9.8026 23.665
9.8178 23.592
9.8329 23.526
9.8481 23.508
9.8633 23.505
9.8785 23.486
9.8936 23.585
9.9088 23.491
9.9240 23.368
9.9392 23.480
9.9543 23.301
9.9695 23.127
9.9847 23.178
9.9999 23.323
10.0150 23.444
10.0302 23.464
10.0454 23.274
10.0606 23.279
10.0757 23.587
10.0909 23.894
10.1061 23.580
10.1213 22.968
10.1364 23.137
10.1516 23.222
10.1668 23.213
10.1820 23.033
10.1971 23.048
10.2123 23.380
10.2275 23.342
10.2427 23.229
10.2578 23.082
10.2730 22.795
10.2882 22.819
10.3034 23.061
10.3185 22.703
10.3337 22.423
10.3489 22.284
10.3641 22.747
10.3792 22.760
10.3944 22.653
10.4096 22.915
10.4248 22.779
10.4399 22.705
10.4551 22.676
10.4703 22.464
10.4855 22.458
10.5006 22.505
10.5158 22.417
10.5310 22.259
10.5462 22.428
10.5613 22.528
10.5765 22.696
10.5917 22.661
10.6069 22.465
10.6220 22.484
10.6372 22.854
10.6524 22.858
10.6676 22.827
10.6827 22.914
10.6979 22.755
10.7131 22.538
10.7283 22.642
10.7434 22.490
10.7586 22.527
10.7738 22.659
10.7890 22.820
10.8041 22.481
10.8193 22.244
10.8345 22.386
10.8497 22.406
10.8648 22.383
10.8800 22.273
10.8952 22.148
10.9104 22.102
10.9255 22.179
10.9407 22.446
10.9559 22.330
10.9711 21.827
10.9862 22.042
11.0014 22.128
11.0166 22.015
11.0318 21.847
11.0469 21.779
11.0621 21.594
11.0773 22.074
11.0925 22.017
11.1076 21.791
11.1228 21.937
11.1380 22.206
11.1532 22.172
11.1683 21.967
11.1835 21.581
11.1987 21.640
11.2139 21.818
11.2290 21.709
11.2442 21.657
11.2594 21.825
11.2746 21.795
11.2897 21.875
11.3049 21.824
11.3201 21.600
11.3353 21.738
11.3504 21.437
11.3656 21.515
11.3808 21.741
11.3960 21.735
11.4111 21.512
11.4263 21.387
11.4415 21.245
11.4567 20.917
11.4718 21.297
11.4870 21.366
11.5022 21.371
11.5174 21.194
11.5325 21.320
11.5477 20.987
11.5629 21.285
11.5781 20.951
11.5932 20.944
11.6084 20.740
11.6236 20.942
11.6388 20.806
11.6539 20.645
11.6691 20.458
11.6843 20.669
11.6995 20.363
11.7146 20.559
11.7298 20.522
11.7450 20.620
11.7602 20.622
11.7753 20.327
11.7905 20.098
11.8057 20.181
11.8209 19.985
11.8360 19.745
11.8512 19.654
11.8664 19.501
11.8816 19.783
11.8967 19.772
11.9119 20.191
11.9271 19.855
11.9423 19.750
11.9574 19.660
11.9726 19.628
11.9878 19.182
12.0030 19.305
12.0181 19.310
12.0333 19.219
12.0485 19.150
12.0637 19.448
12.0788 19.129
12.0940 18.765
12.1092 18.915
12.1244 18.900
12.1395 18.674
12.1547 18.446
12.1699 18.326
12.1851 18.436
12.2002 18.194
12.2154 18.017
12.2306 18.066
12.2458 18.031
12.2609 18.084
12.2761 18.141
12.2913 18.034
12.3065 17.697
12.3216 17.568
12.3368 17.567
12.3520 17.472
12.3672 17.348
12.3823 17.182
12.3975 17.227
12.4127 17.412
12.4279 17.262
12.4430 17.193
12.4582 16.907
12.4734 16.993
12.4886 16.850
12.5037 16.633
12.5189 16.574
12.5341 16.581
12.5493 16.392
12.5644 16.323
12.5796 16.309
12.5948 16.402
12.6100 16.320
12.6251 16.319
12.6403 16.139
12.6555 15.950
12.6707 15.890
12.6858 15.722
12.7010 15.554
12.7162 15.412
12.7314 15.484
12.7465 15.610
12.7617 15.607
12.7769 15.254
12.7921 15.132
12.8072 15.197
12.8224 15.114
12.8376 15.243
12.8528 15.340
12.8679 15.046
12.8831 14.912
12.8983 14.728
12.9135 14.536
12.9286 14.512
12.9438 14.527
12.9590 14.634
12.9742 14.598
12.9893 14.603
13.0045 14.574
13.0197 14.183
13.0349 14.067
13.0500 14.122
13.0652 13.896
13.0804 13.940
13.0956 13.848
13.1107 13.582
13.1259 13.814
13.1411 14.063
13.1563 13.867
13.1714 13.878
13.1866 13.842
13.2018 13.678
13.2170 13.750
13.2321 13.628
13.2473 13.378
13.2625 13.258
13.2777 13.242
13.2928 13.258
13.3080 13.307
13.3232 13.106
13.3384 13.158
13.3535 13.321
13.3687 13.038
13.3839 13.010
13.3991 13.004
13.4142 12.859
13.4294 13.029
13.4446 12.829
13.4598 12.814
13.4749 12.854
13.4901 12.610
13.5053 12.493
13.5205 12.476
13.5356 12.266
13.5508 12.408
13.5660 12.563
13.5812 12.553
13.5963 12.432
13.6115 12.289
13.6267 12.505
13.6419 12.232
13.6570 12.111
13.6722 11.896
13.6874 12.015
13.7026 12.192
13.7177 12.143
13.7329 12.223
13.7481 12.233
13.7633 12.122
13.7784 12.070
13.7936 12.073
13.8088 12.404
13.8239 12.134
13.8391 12.354
13.8543 12.352
13.8695 12.168
13.8846 12.378
13.8998 12.236
13.9150 12.165
13.9302 12.068
13.9453 11.926
13.9605 12.066
13.9757 11.899
13.9909 11.514
14.0060 11.494
14.0212 11.415
14.0364 11.440
14.0516 11.449
14.0667 11.591
14.0819 11.574
14.0971 11.776
14.1123 11.694
14.1274 11.488
14.1426 11.289
14.1578 11.460
14.1730 11.449
14.1881 11.238
14.2033 11.328
14.2185 11.305
14.2337 11.657
14.2488 11.987
14.2640 11.845
14.2792 11.908
14.2944 12.268
14.3095 12.051
14.3247 12.571
14.3399 12.781
14.3551 12.925
14.3702 13.239
14.3854 13.754
14.4006 14.034
14.4158 13.831
14.4309 13.687
14.4461 13.550
14.4613 13.120
14.4765 12.674
14.4916 12.735
14.5068 12.575
14.5220 12.009
14.5372 11.486
14.5523 11.336
14.5675 11.294
14.5827 11.131
14.5979 10.866
14.6130 10.787
14.6282 10.804
14.6434 10.859
14.6586 10.550
14.6737 10.786
14.6889 10.689
14.7041 10.852
14.7193 10.572
14.7344 10.781
14.7496 10.626
14.7648 10.165
14.7800 10.619
14.7951 10.610
14.8103 10.816
14.8255 10.559
14.8407 10.742
14.8558 10.366
14.8710 10.653
14.8862 10.798
14.9014 10.798
14.9165 10.942
14.9317 10.671
14.9469 10.830
14.9621 10.611
14.9772 10.041
14.9924 10.333
15.0076 10.173
15.0228 10.541
15.0379 10.338
15.0531 10.327
15.0683 10.072
15.0835 10.217
15.0986 10.284
15.1138 10.480
15.1290 10.310
15.1442 10.007
15.1593 10.430
15.1745 10.797
15.1897 10.406
15.2049 10.189
15.2200 10.224
15.2352 10.312
15.2504 10.432
15.2656 10.248
15.2807 10.172
15.2959 10.168
15.3111 10.641
15.3263 10.553
15.3414 10.106
15.3566 9.994
15.3718 10.339
15.3870 10.189
15.4021 10.226
15.4173 10.314
15.4325 10.339
15.4477 10.148
15.4628 10.394
15.4780 10.224
15.4932 10.466
15.5084 10.206
15.5235 10.264
15.5387 10.526
15.5539 10.196
15.5691 10.206
15.5842 10.104
15.5994 9.871
15.6146 9.989
15.6298 9.918
15.6449 9.753
15.6601 9.876
15.6753 10.050
15.6905 9.895
15.7056 9.936
15.7208 10.011
15.7360 9.886
15.7512 9.997
15.7663 9.752
15.7815 9.948
15.7967 9.890
15.8119 9.911
15.8270 10.069
15.8422 9.881
15.8574 9.574
15.8726 9.826
15.8877 9.624
15.9029 9.704
15.9181 10.012
15.9333 9.915
15.9484 9.809
15.9636 9.433
15.9788 9.794
15.9940 9.932
16.0091 9.747
16.0243 9.635
16.0395 9.649
16.0547 9.821
16.0698 9.850
16.0850 9.771
16.1002 9.532
16.1154 9.409
16.1305 9.444
16.1457 9.741
16.1609 9.727
16.1761 9.538
16.1912 9.696
16.2064 9.636
16.2216 9.612
16.2368 9.914
16.2519 9.804
16.2671 10.005
16.2823 10.263
16.2975 9.943
16.3126 9.763
16.3278 10.007
16.3430 9.982
16.3582 9.802
16.3733 9.853
16.3885 10.091
16.4037 10.162
16.4189 9.883
16.4340 9.958
16.4492 9.817
16.4644 9.729
16.4796 9.934
16.4947 9.852
16.5099 9.857
16.5251 9.730
16.5403 9.523
16.5554 9.685
16.5706 9.447
16.5858 9.403
16.6010 9.851
16.6161 9.905
16.6313 9.598
16.6465 9.765
16.6617 9.797
16.6768 9.844
16.6920 10.024
16.7072 10.233
16.7224 10.119
16.7375 10.045
16.7527 9.930
16.7679 10.116
16.7831 10.065
16.7982 9.912
16.8134 10.071
16.8286 9.972
16.8438 9.929
16.8589 9.856
16.8741 9.741
16.8893 9.778
16.9045 9.898
16.9196 9.977
16.9348 10.028
16.9500 9.998
16.9652 10.106
16.9803 10.035
16.9955 9.916
17.0107 9.889
17.0259 9.832
17.0410 9.960
17.0562 10.171
17.0714 10.202
17.0866 10.272
17.1017 10.484
17.1169 10.768
17.1321 11.136
17.1473 11.542
17.1624 11.896
17.1776 12.348
17.1928 13.116
17.2080 14.427
17.2231 15.464
17.2383 16.342
17.2535 17.478
17.2687 18.601
17.2838 18.877
17.2990 17.983
17.3142 16.792
17.3294 16.148
17.3445 16.115
17.3597 16.053
17.3749 15.730
17.3901 14.973
17.4052 14.004
17.4204 13.236
17.4356 12.432
17.4508 11.891
17.4659 11.676
17.4811 11.237
17.4963 11.114
17.5115 11.195
17.5266 11.050
17.5418 10.881
17.5570 10.680
17.5722 10.699
17.5873 10.903
17.6025 11.121
17.6177 11.341
17.6329 11.404
17.6480 11.355
17.6632 11.517
17.6784 11.644
17.6936 11.741
17.7087 11.779
17.7239 11.471
17.7391 11.257
17.7543 11.116
17.7694 11.063
17.7846 11.069
17.7998 11.166
17.8150 11.158
17.8301 10.878
17.8453 10.501
17.8605 10.459
17.8757 10.379
17.8908 10.151
17.9060 10.066
17.9212 10.078
17.9364 10.093
17.9515 10.275
17.9667 10.433
17.9819 10.066
17.9971 10.196
18.0122 10.278
18.0274 10.261
18.0426 10.200
18.0578 10.188
18.0729 10.303
18.0881 10.184
18.1033 10.007
18.1185 9.768
18.1336 9.873
18.1488 10.038
18.1640 9.987
18.1792 9.995
18.1943 9.841
18.2095 9.765
18.2247 9.858
18.2399 9.851
18.2550 9.853
18.2702 10.065
18.2854 10.157
18.3006 9.900
18.3157 9.922
18.3309 10.067
18.3461 9.912
18.3613 9.837
18.3764 9.905
18.3916 9.966
18.4068 9.840
18.4220 9.962
18.4371 9.914
18.4523 9.822
18.4675 9.801
18.4827 9.856
18.4978 9.974
18.5130 9.831
18.5282 9.698
18.5434 9.624
18.5585 9.607
18.5737 9.822
18.5889 9.776
18.6041 9.837
18.6192 9.903
18.6344 9.829
18.6496 9.584
18.6648 9.489
18.6799 9.607
18.6951 9.977
18.7103 10.015
18.7255 10.118
18.7406 9.904
18.7558 9.736
18.7710 9.924
18.7862 9.972
18.8013 9.837
18.8165 9.802
18.8317 9.851
18.8469 9.904
18.8620 9.829
18.8772 9.891
18.8924 9.959
18.9076 9.946
18.9227 9.911
18.9379 9.753
18.9531 10.066
18.9683 10.082
18.9834 9.843
18.9986 9.929
19.0138 10.032
19.0290 10.204
19.0441 9.964
19.0593 10.060
19.0745 10.247
19.0897 10.202
19.1048 10.372
19.1200 10.288
19.1352 10.256
19.1504 10.361
19.1655 10.385
19.1807 10.354
19.1959 10.579
19.2111 10.606
19.2262 10.754
19.2414 10.833
19.2566 10.532
19.2718 10.683
19.2869 10.987
19.3021 10.997
19.3173 10.826
19.3325 10.879
19.3476 10.980
19.3628 10.937
19.3780 11.064
19.3932 11.120
19.4083 11.190
19.4235 11.423
19.4387 11.359
19.4539 11.024
19.4690 10.974
19.4842 11.213
19.4994 11.457
19.5146 11.430
19.5297 11.545
19.5449 11.741
19.5601 11.648
19.5753 11.563
19.5904 11.627
19.6056 11.708
19.6208 11.779
19.6360 11.705
19.6511 11.733
19.6663 11.704
19.6815 11.652
19.6967 11.793
19.7118 11.810
19.7270 11.863
19.7422 11.718
19.7574 11.772
19.7725 12.101
19.7877 11.994
19.8029 11.894
19.8180 12.028
19.8332 12.080
19.8484 12.164
19.8636 12.518
19.8787 12.539
19.8939 12.484
19.9091 13.211
19.9243 13.640
19.9394 13.599
19.9546 13.978
19.9698 14.389
19.9850 14.440
20.0001 14.307
20.0153 14.186
20.0305 14.140
20.0457 13.996
20.0608 13.824
20.0760 13.498
20.0912 13.432
20.1064 13.594
20.1215 13.394
20.1367 13.195
20.1519 13.107
20.1671 12.990
20.1822 13.083
20.1974 12.945
20.2126 12.887
20.2278 12.623
20.2429 12.472
20.2581 12.391
20.2733 12.114
20.2885 11.958
20.3036 11.771
20.3188 11.862
20.3340 11.856
20.3492 12.047
20.3643 12.236
20.3795 12.178
20.3947 11.901
20.4099 11.755
20.4250 11.624
20.4402 11.731
20.4554 11.952
20.4706 12.194
20.4857 11.681
20.5009 11.549
20.5161 11.605
20.5313 11.487
20.5464 11.494
20.5616 11.474
20.5768 11.425
20.5920 11.241
20.6071 11.346
20.6223 11.248
20.6375 10.904
20.6527 10.552
20.6678 10.556
20.6830 10.724
20.6982 10.636
20.7134 10.494
20.7285 10.321
20.7437 10.475
20.7589 10.502
20.7741 10.428
20.7892 10.352
20.8044 10.206
20.8196 10.182
20.8348 10.371
20.8499 10.530
20.8651 10.551
20.8803 10.274
20.8955 10.243
20.9106 10.436
20.9258 10.022
20.9410 9.997
20.9562 10.189
20.9713 10.076
20.9865 10.046
21.0017 10.024
21.0169 10.132
21.0320 10.043
21.0472 10.013
21.0624 9.902
21.0776 10.218
21.0927 9.897
21.1079 9.705
21.1231 9.892
21.1383 9.938
21.1534 9.871
21.1686 9.875
21.1838 9.421
21.1990 9.691
21.2141 9.756
21.2293 9.794
21.2445 9.849
21.2597 9.890
21.2748 9.720
21.2900 9.678
21.3052 9.593
21.3204 9.908
21.3355 9.442
21.3507 9.538
21.3659 9.513
21.3811 9.575
21.3962 9.614
21.4114 9.163
21.4266 9.579
21.4418 9.626
21.4569 9.640
21.4721 9.426
21.4873 9.295
21.5025 9.181
21.5176 9.035
21.5328 9.448
21.5480 9.281
21.5632 9.569
21.5783 9.331
21.5935 9.137
21.6087 9.255
21.6239 9.010
21.6390 9.165
21.6542 9.018
21.6694 9.223
21.6846 9.213
21.6997 9.315
21.7149 9.192
21.7301 9.290
21.7453 9.085
21.7604 9.228
21.7756 9.234
21.7908 9.127
21.8060 9.111
21.8211 9.084
21.8363 9.131
21.8515 9.094
21.8667 9.336
21.8818 9.211
21.8970 9.059
21.9122 9.016
21.9274 8.921
21.9425 8.832
21.9577 8.921
21.9729 8.871
21.9881 8.670
22.0032 8.779
22.0184 8.866
22.0336 8.669
22.0488 8.712
22.0639 8.949
22.0791 8.803
22.0943 8.803
22.1095 8.766
22.1246 8.664
22.1398 8.810
22.1550 8.608
22.1702 8.463
22.1853 8.659
22.2005 8.619
22.2157 8.533
22.2309 8.616
22.2460 8.656
22.2612 8.576
22.2764 8.585
22.2916 8.614
22.3067 8.533
22.3219 8.402
22.3371 8.559
22.3523 8.674
22.3674 8.522
22.3826 8.700
22.3978 8.774
22.4130 8.403
22.4281 8.542
22.4433 8.555
22.4585 8.527
22.4737 8.479
22.4888 8.538
22.5040 8.740
22.5192 8.658
22.5344 8.477
22.5495 8.529
22.5647 8.518
22.5799 8.495
22.5951 8.611
22.6102 8.337
22.6254 8.273
22.6406 8.389
22.6558 8.299
22.6709 8.617
22.6861 8.280
22.7013 8.148
22.7165 8.068
22.7316 6.611
