'Id: "" Comment: "" Operator: "Lab Manager" Anode: "Mo" Scantype: "Still (Eiger2R_500K (1D mode))" TimePerStep: "300" X: "11.8" Y: "9.4" Z: "11.284" 
7.2532 18.839
7.2684 18.778
7.2836 18.884
7.2987 18.884
7.3139 19.175
7.3291 19.300
7.3443 19.142
7.3594 19.273
7.3746 19.246
7.3898 19.209
7.4050 19.169
7.4201 19.134
7.4353 19.663
7.4505 19.660
7.4657 19.520
7.4808 19.637
7.4960 19.922
7.5112 19.707
7.5264 19.837
7.5415 20.092
7.5567 19.918
7.5719 19.583
7.5871 20.024
7.6022 19.801
7.6174 20.284
7.6326 20.359
7.6478 20.109
7.6629 20.375
7.6781 20.618
7.6933 20.172
7.7085 20.446
7.7236 20.609
7.7388 20.301
7.7540 20.368
7.7692 20.274
7.7843 20.363
7.7995 20.301
7.8147 20.326
7.8299 20.157
7.8450 20.219
7.8602 20.497
7.8754 20.704
7.8905 20.737
7.9057 20.646
7.9209 20.753
7.9361 21.095
7.9512 21.158
7.9664 20.932
7.9816 21.005
7.9968 21.168
8.0119 21.332
8.0271 21.032
8.0423 21.186
8.0575 21.415
8.0726 21.136
8.0878 21.145
8.1030 21.541
8.1182 21.173
8.1333 21.259
8.1485 21.315
8.1637 21.666
8.1789 21.602
8.1940 21.607
8.2092 21.687
8.2244 21.131
8.2396 21.668
8.2547 21.592
8.2699 21.359
8.2851 21.806
8.3003 21.595
8.3154 21.958
8.3306 21.773
8.3458 21.689
8.3610 21.704
8.3761 21.355
8.3913 22.149
8.4065 21.881
8.4217 21.369
8.4368 22.213
8.4520 21.809
8.4672 22.000
8.4824 22.054
8.4975 22.441
8.5127 21.747
8.5279 22.088
8.5431 22.426
8.5582 22.019
8.5734 21.844
8.5886 22.491
8.6038 22.204
8.6189 21.618
8.6341 21.900
8.6493 22.425
8.6645 22.366
8.6796 22.167
8.6948 22.580
8.7100 22.188
8.7252 22.325
8.7403 22.270
8.7555 22.175
8.7707 22.246
8.7859 22.803
8.8010 22.322
8.8162 22.593
8.8314 22.739
8.8466 22.139
8.8617 22.671
8.8769 22.790
8.8921 22.541
8.9073 22.807
8.9224 22.480
8.9376 22.505
8.9528 22.447
8.9680 22.700
8.9831 22.526
8.9983 22.771
9.0135 22.940
9.0287 23.216
9.0438 22.627
9.0590 22.964
9.0742 22.915
9.0894 22.953
9.1045 23.176
9.1197 22.759
9.1349 22.735
9.1501 22.840
9.1652 22.809
9.1804 22.736
9.1956 22.284
9.2108 22.684
9.2259 22.730
9.2411 22.589
9.2563 22.789
9.2715 22.988
9.2866 22.655
9.3018 22.822
9.3170 23.204
9.3322 23.064
9.3473 23.056
9.3625 22.787
9.3777 23.007
9.3929 23.054
9.4080 23.288
9.4232 23.371
9.4384 23.189
9.4536 23.163
9.4687 23.659
9.4839 23.107
9.4991 23.365
9.5143 23.798
9.5294 23.105
9.5446 22.837
9.5598 23.309
9.5750 23.751
9.5901 23.517
9.6053 23.217
9.6205 23.419
9.6357 23.413
9.6508 23.328
9.6660 23.394
9.6812 23.447
9.6964 23.899
9.7115 24.204
9.7267 24.219
9.7419 24.062
9.7571 23.946
9.7722 23.943
9.7874 23.710
9.8026 23.508
9.8178 23.098
9.8329 23.077
9.8481 23.453
9.8633 23.500
9.8785 23.789
9.8936 23.741
9.9088 23.411
9.9240 23.207
9.9392 23.089
9.9543 23.209
9.9695 23.092
9.9847 22.940
9.9999 22.958
10.0150 23.172
10.0302 23.514
10.0454 23.723
10.0606 23.673
10.0757 23.615
10.0909 23.165
10.1061 23.052
10.1213 23.345
10.1364 23.530
10.1516 23.475
10.1668 23.230
10.1820 23.042
10.1971 23.175
10.2123 23.209
10.2275 23.276
10.2427 23.099
10.2578 22.690
10.2730 22.371
10.2882 22.611
10.3034 22.602
10.3185 22.890
10.3337 23.104
10.3489 23.028
10.3641 22.680
10.3792 22.818
10.3944 22.891
10.4096 22.799
10.4248 22.842
10.4399 22.692
10.4551 22.794
10.4703 22.806
10.4855 22.700
10.5006 22.903
10.5158 22.444
10.5310 22.230
10.5462 22.274
10.5613 22.314
10.5765 22.351
10.5917 22.310
10.6069 22.597
10.6220 22.527
10.6372 22.311
10.6524 22.428
10.6676 22.426
10.6827 22.116
10.6979 22.395
10.7131 22.683
10.7283 22.522
10.7434 22.616
10.7586 22.652
10.7738 22.371
10.7890 22.243
10.8041 22.214
10.8193 22.554
10.8345 22.397
10.8497 22.310
10.8648 22.477
10.8800 22.468
10.8952 22.134
10.9104 21.956
10.9255 21.940
10.9407 21.908
10.9559 22.010
10.9711 22.108
10.9862 22.522
11.0014 22.765
11.0166 22.186
11.0318 22.046
11.0469 21.511
11.0621 22.085
11.0773 22.149
11.0925 21.949
11.1076 21.634
11.1228 21.421
11.1380 21.778
11.1532 21.974
11.1683 22.013
11.1835 21.761
11.1987 21.967
11.2139 22.000
11.2290 21.753
11.2442 21.820
11.2594 21.647
11.2746 21.596
11.2897 21.564
11.3049 21.687
11.3201 21.319
11.3353 21.246
11.3504 21.318
11.3656 21.608
11.3808 21.426
11.3960 21.077
11.4111 21.172
11.4263 20.985
11.4415 20.883
11.4567 21.215
11.4718 21.464
11.4870 21.172
11.5022 20.904
11.5174 21.263
11.5325 21.199
11.5477 21.171
11.5629 21.009
11.5781 21.325
11.5932 20.757
11.6084 20.814
11.6236 20.879
11.6388 20.615
11.6539 20.892
11.6691 20.899
11.6843 20.901
11.6995 20.608
11.7146 20.652
11.7298 20.394
11.7450 20.480
11.7602 20.367
11.7753 20.286
11.7905 20.178
11.8057 20.034
11.8209 19.878
11.8360 20.044
11.8512 20.040
11.8664 20.020
11.8816 19.950
11.8967 19.909
11.9119 19.853
11.9271 19.944
11.9423 19.477
11.9574 19.321
11.9726 19.344
11.9878 19.081
12.0030 19.538
12.0181 19.468
12.0333 19.185
12.0485 19.334
12.0637 19.290
12.0788 18.776
12.0940 18.530
12.1092 18.408
12.1244 18.569
12.1395 18.681
12.1547 18.571
12.1699 18.204
12.1851 18.126
12.2002 18.245
12.2154 18.339
12.2306 18.292
12.2458 17.979
12.2609 17.950
12.2761 17.757
12.2913 17.968
12.3065 17.816
12.3216 17.760
12.3368 17.460
12.3520 17.171
12.3672 17.223
12.3823 17.525
12.3975 17.380
12.4127 17.407
12.4279 17.219
12.4430 16.874
12.4582 17.050
12.4734 17.131
12.4886 16.747
12.5037 16.548
12.5189 16.863
12.5341 16.594
12.5493 16.320
12.5644 16.297
12.5796 16.228
12.5948 16.212
12.6100 16.052
12.6251 15.980
12.6403 15.688
12.6555 15.533
12.6707 15.508
12.6858 15.384
12.7010 15.339
12.7162 15.624
12.7314 15.388
12.7465 15.088
12.7617 15.417
12.7769 15.534
12.7921 15.204
12.8072 15.228
12.8224 15.126
12.8376 15.097
12.8528 15.093
12.8679 14.835
12.8831 14.983
12.8983 14.735
12.9135 14.591
12.9286 14.601
12.9438 14.447
12.9590 14.455
12.9742 14.608
12.9893 14.510
13.0045 14.186
13.0197 14.208
13.0349 14.300
13.0500 14.144
13.0652 14.099
13.0804 14.008
13.0956 13.885
13.1107 13.845
13.1259 13.964
13.1411 14.045
13.1563 13.891
13.1714 13.801
13.1866 13.657
13.2018 13.556
13.2170 13.564
13.2321 13.455
13.2473 13.394
13.2625 13.420
13.2777 13.472
13.2928 13.468
13.3080 13.225
13.3232 13.218
13.3384 13.271
13.3535 13.247
13.3687 13.410
13.3839 13.312
13.3991 13.120
13.4142 13.101
13.4294 12.974
13.4446 12.881
13.4598 12.911
13.4749 12.878
13.4901 12.809
13.5053 12.518
13.5205 12.225
13.5356 12.269
13.5508 12.265
13.5660 12.374
13.5812 12.508
13.5963 12.357
13.6115 12.022
13.6267 12.109
13.6419 12.144
13.6570 12.117
13.6722 12.424
13.6874 12.565
13.7026 12.193
13.7177 12.077
13.7329 12.295
13.7481 12.156
13.7633 12.134
13.7784 12.252
13.7936 12.239
13.8088 12.274
13.8239 12.448
13.8391 12.407
13.8543 12.393
13.8695 12.289
13.8846 12.325
13.8998 12.339
13.9150 12.234
13.9302 12.369
13.9453 12.033
13.9605 11.978
13.9757 11.932
13.9909 11.610
14.0060 11.400
14.0212 11.626
14.0364 11.817
14.0516 11.653
14.0667 11.580
14.0819 11.666
14.0971 11.468
14.1123 11.157
14.1274 11.436
14.1426 11.617
14.1578 11.544
14.1730 11.780
14.1881 11.790
14.2033 11.592
14.2185 11.715
14.2337 11.762
14.2488 11.843
14.2640 12.192
14.2792 12.404
14.2944 12.166
14.3095 12.161
14.3247 12.279
14.3399 12.534
14.3551 12.911
14.3702 13.186
14.3854 13.270
14.4006 13.433
14.4158 13.589
14.4309 13.218
14.4461 12.950
14.4613 12.682
14.4765 12.650
14.4916 12.469
14.5068 11.920
14.5220 11.739
14.5372 11.536
14.5523 11.419
14.5675 11.374
14.5827 11.284
14.5979 10.983
14.6130 10.875
14.6282 11.039
14.6434 10.999
14.6586 11.000
14.6737 11.127
14.6889 10.763
14.7041 10.651
14.7193 10.753
14.7344 10.722
14.7496 10.603
14.7648 10.710
14.7800 10.521
14.7951 10.616
14.8103 10.429
14.8255 10.363
14.8407 10.677
14.8558 10.474
14.8710 10.437
14.8862 10.321
14.9014 10.187
14.9165 10.843
14.9317 10.760
14.9469 10.282
14.9621 10.391
14.9772 10.321
14.9924 10.512
15.0076 10.326
15.0228 10.637
15.0379 10.486
15.0531 10.551
15.0683 10.570
15.0835 10.655
15.0986 10.045
15.1138 10.114
15.1290 10.403
15.1442 10.618
15.1593 10.299
15.1745 10.228
15.1897 10.223
15.2049 10.072
15.2200 10.036
15.2352 10.040
15.2504 10.580
15.2656 10.115
15.2807 9.777
15.2959 10.076
15.3111 9.978
15.3263 10.229
15.3414 9.998
15.3566 9.856
15.3718 10.208
15.3870 10.434
15.4021 10.198
15.4173 10.335
15.4325 10.441
15.4477 10.100
15.4628 10.169
15.4780 10.456
15.4932 10.426
15.5084 10.177
15.5235 10.167
15.5387 10.173
15.5539 9.897
15.5691 10.003
15.5842 9.767
15.5994 10.050
15.6146 10.088
15.6298 9.968
15.6449 9.856
15.6601 9.905
15.6753 9.880
15.6905 9.966
15.7056 9.951
15.7208 9.946
15.7360 9.910
15.7512 10.068
15.7663 9.893
15.7815 9.960
15.7967 10.042
15.8119 10.106
15.8270 9.887
15.8422 9.711
15.8574 9.655
15.8726 9.698
15.8877 9.729
15.9029 9.426
15.9181 9.573
15.9333 9.634
15.9484 9.960
15.9636 9.801
15.9788 9.654
15.9940 9.824
16.0091 9.756
16.0243 9.776
16.0395 9.958
16.0547 9.745
16.0698 9.739
16.0850 9.713
16.1002 9.379
16.1154 9.613
16.1305 9.662
16.1457 9.916
16.1609 9.586
16.1761 9.567
16.1912 9.861
16.2064 10.103
16.2216 9.991
16.2368 9.994
16.2519 9.865
16.2671 10.014
16.2823 9.806
16.2975 9.756
16.3126 9.693
16.3278 9.836
16.3430 9.853
16.3582 9.679
16.3733 9.811
16.3885 9.751
16.4037 10.075
16.4189 10.019
16.4340 9.905
16.4492 9.822
16.4644 9.653
16.4796 9.484
16.4947 9.765
16.5099 9.704
16.5251 9.667
16.5403 9.818
16.5554 9.789
16.5706 9.696
16.5858 9.781
16.6010 9.879
16.6161 9.889
16.6313 9.883
16.6465 10.044
16.6617 9.937
16.6768 9.763
16.6920 9.855
16.7072 10.075
16.7224 9.974
16.7375 9.799
16.7527 9.950
16.7679 9.945
16.7831 9.714
16.7982 9.671
16.8134 10.051
16.8286 10.063
16.8438 9.940
16.8589 9.830
16.8741 9.840
16.8893 9.733
16.9045 9.603
16.9196 9.560
16.9348 9.628
16.9500 9.707
16.9652 9.952
16.9803 10.047
16.9955 9.837
17.0107 9.795
17.0259 9.847
17.0410 10.087
17.0562 10.155
17.0714 10.203
17.0866 10.459
17.1017 10.561
17.1169 10.772
17.1321 10.791
17.1473 10.849
17.1624 11.575
17.1776 12.350
17.1928 13.212
17.2080 14.074
17.2231 14.789
17.2383 16.263
17.2535 17.730
17.2687 18.442
17.2838 18.476
17.2990 17.780
17.3142 16.759
17.3294 16.187
17.3445 16.054
17.3597 15.851
17.3749 15.857
17.3901 15.252
17.4052 14.105
17.4204 13.360
17.4356 12.654
17.4508 12.108
17.4659 12.021
17.4811 11.722
17.4963 11.467
17.5115 11.536
17.5266 11.304
17.5418 10.914
17.5570 10.875
17.5722 11.022
17.5873 11.031
17.6025 11.360
17.6177 11.416
17.6329 11.420
17.6480 11.606
17.6632 11.738
17.6784 12.112
17.6936 11.949
17.7087 11.581
17.7239 11.580
17.7391 11.474
17.7543 11.036
17.7694 10.849
17.7846 10.918
17.7998 10.661
17.8150 10.749
17.8301 10.657
17.8453 10.294
17.8605 10.326
17.8757 10.321
17.8908 10.338
17.9060 10.225
17.9212 10.077
17.9364 10.234
17.9515 10.245
17.9667 10.140
17.9819 10.103
17.9971 10.097
18.0122 10.174
18.0274 10.431
18.0426 10.350
18.0578 10.157
18.0729 9.878
18.0881 9.867
18.1033 9.990
18.1185 10.116
18.1336 10.126
18.1488 9.980
18.1640 10.012
18.1792 10.078
18.1943 9.861
18.2095 9.927
18.2247 9.852
18.2399 9.927
18.2550 10.031
18.2702 9.949
18.2854 9.950
18.3006 9.947
18.3157 9.982
18.3309 9.955
18.3461 10.005
18.3613 9.947
18.3764 9.873
18.3916 9.780
18.4068 9.762
18.4220 9.938
18.4371 9.900
18.4523 9.701
18.4675 9.741
18.4827 9.919
18.4978 9.868
18.5130 9.823
18.5282 9.866
18.5434 9.783
18.5585 9.714
18.5737 9.894
18.5889 10.015
18.6041 9.716
18.6192 9.641
18.6344 9.728
18.6496 9.784
18.6648 9.791
18.6799 9.749
18.6951 9.632
18.7103 9.706
18.7255 9.777
18.7406 9.710
18.7558 9.701
18.7710 9.727
18.7862 9.807
18.8013 9.662
18.8165 9.698
18.8317 9.736
18.8469 9.723
18.8620 9.998
18.8772 10.263
18.8924 10.171
18.9076 10.051
18.9227 10.028
18.9379 9.962
18.9531 9.856
18.9683 10.061
18.9834 10.034
18.9986 9.925
19.0138 10.189
19.0290 10.345
19.0441 10.189
19.0593 9.925
19.0745 10.062
19.0897 10.528
19.1048 10.478
19.1200 10.301
19.1352 10.414
19.1504 10.304
19.1655 10.320
19.1807 10.399
19.1959 10.309
19.2111 10.580
19.2262 10.643
19.2414 10.615
19.2566 10.704
19.2718 10.725
19.2869 10.819
19.3021 10.868
19.3173 10.916
19.3325 10.945
19.3476 11.134
19.3628 10.954
19.3780 10.936
19.3932 10.996
19.4083 10.957
19.4235 11.227
19.4387 11.215
19.4539 11.253
19.4690 11.352
19.4842 11.347
19.4994 11.632
19.5146 11.513
19.5297 11.372
19.5449 11.516
19.5601 11.585
19.5753 11.606
19.5904 11.560
19.6056 11.496
19.6208 11.698
19.6360 11.690
19.6511 11.743
19.6663 11.559
19.6815 11.537
19.6967 11.902
19.7118 11.840
19.7270 11.757
19.7422 11.756
19.7574 11.810
19.7725 11.799
19.7877 11.728
19.8029 11.800
19.8180 11.958
19.8332 12.057
19.8484 12.198
19.8636 12.243
19.8787 12.387
19.8939 12.942
19.9091 13.238
19.9243 13.478
19.9394 13.906
19.9546 14.070
19.9698 14.161
19.9850 14.222
20.0001 14.221
20.0153 13.975
20.0305 13.752
20.0457 13.867
20.0608 13.918
20.0760 13.517
20.0912 13.451
20.1064 13.645
20.1215 13.662
20.1367 13.315
20.1519 13.210
20.1671 12.960
20.1822 13.080
20.1974 12.782
20.2126 12.712
20.2278 12.819
20.2429 12.769
20.2581 12.467
20.2733 12.021
20.2885 12.277
20.3036 12.338
20.3188 12.148
20.3340 12.216
20.3492 12.257
20.3643 12.185
20.3795 11.890
20.3947 11.827
20.4099 11.992
20.4250 12.160
20.4402 12.365
20.4554 12.474
20.4706 12.118
20.4857 11.774
20.5009 12.047
20.5161 11.623
20.5313 11.450
20.5464 11.332
20.5616 11.393
20.5768 11.358
20.5920 11.194
20.6071 10.996
20.6223 10.921
20.6375 10.825
20.6527 10.774
20.6678 10.701
20.6830 10.432
20.6982 10.772
20.7134 10.659
20.7285 10.347
20.7437 10.285
20.7589 10.347
20.7741 10.348
20.7892 10.244
20.8044 10.384
20.8196 10.184
20.8348 10.349
20.8499 10.269
20.8651 10.410
20.8803 10.384
20.8955 10.279
20.9106 10.198
20.9258 10.350
20.9410 10.422
20.9562 10.147
20.9713 10.262
20.9865 10.060
21.0017 9.781
21.0169 10.046
21.0320 9.865
21.0472 9.997
21.0624 9.717
21.0776 10.090
21.0927 10.222
21.1079 9.840
21.1231 9.972
21.1383 9.718
21.1534 9.886
21.1686 9.547
21.1838 9.732
21.1990 9.993
21.2141 9.687
21.2293 9.578
21.2445 9.838
21.2597 9.634
21.2748 10.143
21.2900 9.917
21.3052 9.755
21.3204 9.578
21.3355 9.589
21.3507 9.614
21.3659 9.418
21.3811 9.499
21.3962 9.622
21.4114 9.920
21.4266 9.383
21.4418 9.354
21.4569 9.121
21.4721 9.442
21.4873 9.185
21.5025 9.179
21.5176 9.206
21.5328 9.411
21.5480 9.150
21.5632 9.287
21.5783 9.558
21.5935 9.401
21.6087 9.220
21.6239 8.968
21.6390 9.094
21.6542 9.037
21.6694 8.987
21.6846 9.335
21.6997 9.246
21.7149 9.320
21.7301 9.058
21.7453 9.038
21.7604 9.138
21.7756 8.951
21.7908 8.774
21.8060 8.835
21.8211 9.052
21.8363 8.931
21.8515 9.126
21.8667 8.967
21.8818 8.849
21.8970 8.972
21.9122 9.134
21.9274 9.140
21.9425 9.099
21.9577 8.986
21.9729 8.929
21.9881 8.815
22.0032 8.754
22.0184 8.725
22.0336 8.838
22.0488 8.886
22.0639 8.816
22.0791 8.617
22.0943 8.560
22.1095 8.704
22.1246 8.671
22.1398 8.667
22.1550 8.700
22.1702 8.705
22.1853 8.864
22.2005 8.881
22.2157 8.628
22.2309 8.600
22.2460 8.497
22.2612 8.435
22.2764 8.463
22.2916 8.666
22.3067 8.682
22.3219 8.597
22.3371 8.691
22.3523 8.601
22.3674 8.847
22.3826 8.717
22.3978 8.261
22.4130 8.353
22.4281 8.466
22.4433 8.320
22.4585 8.303
22.4737 8.697
22.4888 8.451
22.5040 8.435
22.5192 8.491
22.5344 8.513
22.5495 8.554
22.5647 8.332
22.5799 8.503
22.5951 8.470
22.6102 8.552
22.6254 8.320
22.6406 8.476
22.6558 8.359
22.6709 8.610
22.6861 8.054
22.7013 8.471
22.7165 8.037
22.7316 6.569
