'Id: "" Comment: "" Operator: "Lab Manager" Anode: "Mo" Scantype: "Still (Eiger2R_500K (1D mode))" TimePerStep: "300" X: "11.8" Y: "9.4" Z: "11.284" 
7.2532 18.830
7.2684 18.947
7.2836 18.477
7.2987 19.039
7.3139 18.874
7.3291 19.053
7.3443 18.901
7.3594 19.276
7.3746 19.354
7.3898 19.221
7.4050 19.405
7.4201 19.242
7.4353 19.098
7.4505 19.631
7.4657 19.498
7.4808 19.601
7.4960 19.382
7.5112 19.771
7.5264 19.408
7.5415 19.693
7.5567 19.675
7.5719 19.590
7.5871 19.640
7.6022 19.883
7.6174 19.945
7.6326 20.016
7.6478 20.068
7.6629 19.957
7.6781 20.038
7.6933 20.001
7.7085 20.277
7.7236 20.545
7.7388 20.274
7.7540 20.242
7.7692 20.604
7.7843 20.474
7.7995 20.578
7.8147 20.602
7.8299 20.567
7.8450 20.752
7.8602 20.937
7.8754 21.060
7.8905 20.929
7.9057 20.923
7.9209 20.995
7.9361 20.839
7.9512 21.190
7.9664 21.300
7.9816 21.211
7.9968 21.222
8.0119 21.324
8.0271 20.996
8.0423 21.073
8.0575 21.320
8.0726 21.414
8.0878 21.281
8.1030 21.158
8.1182 21.423
8.1333 21.175
8.1485 21.196
8.1637 21.364
8.1789 21.137
8.1940 21.334
8.2092 21.585
8.2244 21.280
8.2396 21.242
8.2547 21.504
8.2699 21.553
8.2851 21.675
8.3003 21.241
8.3154 21.723
8.3306 22.019
8.3458 21.726
8.3610 21.912
8.3761 21.750
8.3913 21.652
8.4065 21.983
8.4217 21.902
8.4368 22.373
8.4520 22.261
8.4672 21.674
8.4824 21.849
8.4975 21.983
8.5127 22.239
8.5279 22.085
8.5431 22.269
8.5582 22.655
8.5734 22.367
8.5886 22.399
8.6038 22.048
8.6189 21.942
8.6341 22.779
8.6493 22.341
8.6645 22.929
8.6796 22.662
8.6948 22.454
8.7100 22.893
8.7252 22.337
8.7403 22.711
8.7555 23.230
8.7707 22.655
8.7859 22.509
8.8010 22.512
8.8162 22.836
8.8314 22.806
8.8466 22.462
8.8617 22.611
8.8769 22.413
8.8921 22.437
8.9073 22.598
8.9224 22.328
8.9376 22.550
8.9528 22.882
8.9680 22.286
8.9831 22.285
8.9983 22.540
9.0135 22.376
9.0287 22.856
9.0438 22.813
9.0590 22.600
9.0742 22.415
9.0894 22.822
9.1045 22.704
9.1197 23.095
9.1349 23.093
9.1501 22.703
9.1652 22.599
9.1804 22.968
9.1956 23.242
9.2108 22.968
9.2259 22.757
9.2411 22.810
9.2563 23.045
9.2715 23.081
9.2866 23.099
9.3018 23.283
9.3170 23.101
9.3322 23.050
9.3473 22.946
9.3625 22.934
9.3777 23.270
9.3929 23.167
9.4080 22.738
9.4232 22.972
9.4384 23.253
9.4536 23.082
9.4687 23.137
9.4839 23.504
9.4991 23.493
9.5143 23.080
9.5294 23.056
9.5446 23.218
9.5598 23.192
9.5750 22.975
9.5901 23.095
9.6053 23.505
9.6205 23.307
9.6357 23.307
9.6508 23.225
9.6660 23.376
9.6812 23.668
9.6964 23.751
9.7115 23.940
9.7267 23.868
9.7419 23.966
9.7571 24.124
9.7722 24.205
9.7874 23.959
9.8026 23.786
9.8178 23.810
9.8329 23.531
9.8481 23.295
9.8633 23.320
9.8785 23.367
9.8936 23.142
9.9088 23.391
9.9240 23.389
9.9392 23.150
9.9543 23.484
9.9695 23.682
9.9847 23.564
9.9999 23.391
10.0150 23.592
10.0302 23.630
10.0454 23.171
10.0606 22.938
10.0757 22.896
10.0909 22.914
10.1061 23.243
10.1213 23.161
10.1364 23.054
10.1516 23.328
10.1668 23.022
10.1820 22.994
10.1971 22.935
10.2123 23.113
10.2275 23.513
10.2427 23.474
10.2578 23.360
10.2730 23.160
10.2882 23.069
10.3034 23.037
10.3185 23.299
10.3337 23.370
10.3489 23.089
10.3641 22.784
10.3792 22.775
10.3944 23.013
10.4096 22.814
10.4248 22.573
10.4399 22.814
10.4551 22.944
10.4703 22.998
10.4855 23.146
10.5006 23.030
10.5158 22.902
10.5310 22.508
10.5462 22.254
10.5613 22.699
10.5765 23.254
10.5917 23.019
10.6069 22.439
10.6220 22.658
10.6372 22.819
10.6524 22.548
10.6676 22.772
10.6827 22.835
10.6979 22.867
10.7131 22.594
10.7283 22.451
10.7434 22.502
10.7586 22.219
10.7738 22.395
10.7890 22.742
10.8041 22.290
10.8193 22.049
10.8345 22.060
10.8497 22.122
10.8648 22.551
10.8800 22.615
10.8952 22.187
10.9104 22.076
10.9255 22.144
10.9407 22.173
10.9559 21.732
10.9711 21.950
10.9862 22.160
11.0014 22.095
11.0166 22.351
11.0318 22.544
11.0469 22.368
11.0621 22.278
11.0773 22.161
11.0925 21.888
11.1076 22.164
11.1228 21.859
11.1380 22.346
11.1532 22.106
11.1683 21.995
11.1835 21.807
11.1987 21.660
11.2139 21.722
11.2290 21.597
11.2442 21.864
11.2594 21.888
11.2746 22.141
11.2897 22.051
11.3049 21.747
11.3201 21.898
11.3353 21.459
11.3504 21.552
11.3656 21.580
11.3808 21.378
11.3960 21.829
11.4111 21.906
11.4263 21.524
11.4415 21.226
11.4567 21.473
11.4718 21.743
11.4870 21.628
11.5022 21.342
11.5174 21.183
11.5325 21.016
11.5477 21.450
11.5629 21.091
11.5781 20.873
11.5932 20.774
11.6084 21.177
11.6236 20.741
11.6388 20.853
11.6539 20.940
11.6691 20.711
11.6843 20.745
11.6995 20.830
11.7146 20.816
11.7298 20.596
11.7450 20.441
11.7602 20.435
11.7753 20.737
11.7905 20.563
11.8057 20.433
11.8209 19.908
11.8360 19.951
11.8512 19.960
11.8664 19.754
11.8816 19.762
11.8967 19.827
11.9119 19.978
11.9271 19.887
11.9423 19.733
11.9574 19.558
11.9726 19.582
11.9878 19.622
12.0030 19.342
12.0181 19.350
12.0333 19.687
12.0485 19.369
12.0637 19.123
12.0788 19.147
12.0940 19.321
12.1092 18.852
12.1244 18.543
12.1395 18.500
12.1547 18.500
12.1699 18.147
12.1851 18.235
12.2002 18.150
12.2154 18.041
12.2306 17.971
12.2458 18.152
12.2609 17.989
12.2761 17.703
12.2913 17.703
12.3065 17.833
12.3216 17.667
12.3368 17.541
12.3520 17.745
12.3672 17.573
12.3823 17.573
12.3975 17.215
12.4127 17.056
12.4279 17.100
12.4430 17.348
12.4582 17.423
12.4734 17.146
12.4886 16.862
12.5037 16.925
12.5189 16.776
12.5341 16.407
12.5493 16.434
12.5644 16.349
12.5796 16.254
12.5948 16.161
12.6100 16.147
12.6251 16.295
12.6403 16.307
12.6555 15.957
12.6707 15.742
12.6858 15.904
12.7010 15.969
12.7162 15.768
12.7314 15.715
12.7465 15.397
12.7617 15.096
12.7769 15.013
12.7921 15.079
12.8072 15.089
12.8224 14.999
12.8376 15.141
12.8528 15.355
12.8679 15.022
12.8831 14.767
12.8983 14.790
12.9135 14.823
12.9286 14.722
12.9438 14.557
12.9590 14.575
12.9742 14.573
12.9893 14.423
13.0045 14.304
13.0197 14.117
13.0349 14.139
13.0500 14.149
13.0652 14.272
13.0804 14.276
13.0956 14.122
13.1107 14.127
13.1259 13.757
13.1411 13.846
13.1563 14.189
13.1714 14.048
13.1866 13.759
13.2018 13.493
13.2170 13.402
13.2321 13.546
13.2473 13.435
13.2625 13.271
13.2777 13.281
13.2928 13.016
13.3080 12.953
13.3232 13.011
13.3384 12.994
13.3535 13.077
13.3687 13.221
13.3839 13.165
13.3991 12.995
13.4142 12.993
13.4294 13.102
13.4446 13.027
13.4598 12.888
13.4749 12.813
13.4901 12.656
13.5053 12.458
13.5205 12.398
13.5356 12.403
13.5508 12.544
13.5660 12.400
13.5812 12.369
13.5963 12.509
13.6115 12.325
13.6267 12.242
13.6419 12.305
13.6570 11.922
13.6722 12.009
13.6874 12.203
13.7026 12.157
13.7177 11.945
13.7329 11.905
13.7481 12.125
13.7633 12.080
13.7784 12.397
13.7936 12.380
13.8088 12.179
13.8239 12.342
13.8391 12.307
13.8543 12.396
13.8695 12.366
13.8846 12.415
13.8998 12.129
13.9150 12.093
13.9302 11.896
13.9453 11.801
13.9605 11.809
13.9757 11.912
13.9909 11.759
14.0060 11.601
14.0212 11.744
14.0364 11.693
14.0516 11.679
14.0667 11.826
14.0819 11.562
14.0971 11.670
14.1123 11.554
14.1274 11.373
14.1426 11.321
14.1578 11.647
14.1730 11.621
14.1881 11.655
14.2033 11.819
14.2185 11.694
14.2337 11.370
14.2488 11.552
14.2640 11.855
14.2792 11.887
14.2944 11.817
14.3095 11.751
14.3247 11.883
14.3399 12.249
14.3551 12.247
14.3702 12.322
14.3854 12.106
14.4006 12.433
14.4158 12.294
14.4309 12.315
14.4461 12.230
14.4613 11.949
14.4765 12.206
14.4916 11.898
14.5068 11.804
14.5220 11.582
14.5372 11.644
14.5523 11.296
14.5675 10.882
14.5827 11.181
14.5979 11.193
14.6130 11.003
14.6282 10.941
14.6434 11.073
14.6586 10.779
14.6737 10.824
14.6889 10.855
14.7041 11.136
14.7193 10.664
14.7344 10.723
14.7496 10.971
14.7648 11.184
14.7800 11.038
14.7951 10.753
14.8103 10.867
14.8255 10.899
14.8407 10.583
14.8558 10.685
14.8710 10.672
14.8862 10.770
14.9014 10.807
14.9165 10.831
14.9317 10.929
14.9469 10.555
14.9621 10.708
14.9772 10.430
14.9924 10.346
15.0076 10.478
15.0228 10.577
15.0379 10.632
15.0531 10.277
15.0683 10.564
15.0835 10.382
15.0986 10.344
15.1138 10.420
15.1290 10.865
15.1442 10.427
15.1593 10.575
15.1745 10.482
15.1897 10.483
15.2049 10.401
15.2200 10.644
15.2352 10.278
15.2504 10.348
15.2656 10.656
15.2807 10.218
15.2959 10.300
15.3111 10.337
15.3263 10.533
15.3414 10.564
15.3566 10.561
15.3718 9.973
15.3870 10.281
15.4021 10.542
15.4173 10.307
15.4325 10.214
15.4477 10.183
15.4628 10.297
15.4780 10.629
15.4932 10.687
15.5084 10.616
15.5235 10.443
15.5387 10.410
15.5539 10.157
15.5691 10.403
15.5842 10.176
15.5994 10.221
15.6146 10.390
15.6298 9.921
15.6449 9.948
15.6601 10.063
15.6753 10.057
15.6905 10.042
15.7056 9.699
15.7208 9.543
15.7360 10.065
15.7512 9.978
15.7663 9.749
15.7815 9.882
15.7967 10.202
15.8119 10.111
15.8270 9.702
15.8422 9.923
15.8574 10.238
15.8726 9.788
15.8877 9.563
15.9029 9.895
15.9181 9.679
15.9333 9.901
15.9484 9.987
15.9636 9.889
15.9788 9.925
15.9940 10.008
16.0091 10.058
16.0243 9.743
16.0395 9.709
16.0547 9.867
16.0698 9.847
16.0850 9.890
16.1002 10.011
16.1154 9.678
16.1305 9.845
16.1457 10.003
16.1609 9.843
16.1761 9.769
16.1912 9.859
16.2064 9.959
16.2216 9.835
16.2368 9.679
16.2519 9.889
16.2671 10.153
16.2823 10.311
16.2975 10.149
16.3126 10.119
16.3278 9.975
16.3430 9.973
16.3582 9.876
16.3733 10.032
16.3885 10.062
16.4037 9.977
16.4189 9.881
16.4340 9.902
16.4492 9.942
16.4644 9.810
16.4796 9.668
16.4947 9.756
16.5099 10.037
16.5251 9.822
16.5403 9.767
16.5554 9.688
16.5706 9.562
16.5858 9.719
16.6010 9.787
16.6161 9.606
16.6313 9.874
16.6465 9.884
16.6617 9.773
16.6768 9.874
16.6920 9.787
16.7072 9.972
16.7224 10.167
16.7375 10.182
16.7527 10.001
16.7679 10.107
16.7831 10.035
16.7982 9.888
16.8134 9.979
16.8286 10.002
16.8438 9.955
16.8589 10.095
16.8741 9.959
16.8893 9.881
16.9045 9.923
16.9196 9.726
16.9348 9.524
16.9500 9.838
16.9652 9.937
16.9803 9.929
16.9955 9.982
17.0107 9.942
17.0259 10.138
17.0410 9.996
17.0562 10.065
17.0714 10.454
17.0866 10.649
17.1017 10.692
17.1169 10.645
17.1321 11.028
17.1473 11.810
17.1624 12.081
17.1776 12.562
17.1928 13.231
17.2080 14.082
17.2231 15.227
17.2383 16.429
17.2535 17.780
17.2687 18.783
17.2838 18.921
17.2990 18.078
17.3142 17.135
17.3294 16.540
17.3445 16.103
17.3597 15.959
17.3749 15.897
17.3901 15.285
17.4052 14.059
17.4204 13.214
17.4356 12.534
17.4508 11.935
17.4659 11.770
17.4811 11.529
17.4963 11.325
17.5115 11.182
17.5266 11.076
17.5418 10.866
17.5570 10.718
17.5722 10.679
17.5873 10.873
17.6025 11.094
17.6177 10.799
17.6329 10.625
17.6480 10.530
17.6632 10.471
17.6784 10.707
17.6936 10.640
17.7087 10.384
17.7239 10.376
17.7391 10.264
17.7543 10.236
17.7694 10.281
17.7846 10.057
17.7998 10.077
17.8150 10.193
17.8301 10.169
17.8453 10.161
17.8605 10.057
17.8757 10.164
17.8908 10.475
17.9060 10.490
17.9212 10.366
17.9364 10.482
17.9515 10.427
17.9667 10.342
17.9819 10.468
17.9971 10.320
18.0122 10.184
18.0274 10.186
18.0426 10.236
18.0578 10.278
18.0729 10.240
18.0881 10.189
18.1033 10.085
18.1185 10.117
18.1336 10.207
18.1488 10.093
18.1640 10.006
18.1792 9.985
18.1943 10.151
18.2095 10.048
18.2247 9.893
18.2399 9.932
18.2550 9.846
18.2702 9.731
18.2854 9.836
18.3006 9.944
18.3157 10.074
18.3309 9.830
18.3461 9.783
18.3613 9.925
18.3764 9.830
18.3916 9.831
18.4068 9.938
18.4220 9.739
18.4371 9.686
18.4523 9.948
18.4675 9.958
18.4827 9.941
18.4978 9.952
18.5130 9.888
18.5282 9.741
18.5434 9.713
18.5585 9.512
18.5737 9.726
18.5889 9.944
18.6041 9.680
18.6192 9.627
18.6344 9.655
18.6496 9.813
18.6648 9.664
18.6799 9.763
18.6951 9.767
18.7103 9.589
18.7255 9.604
18.7406 9.851
18.7558 9.785
18.7710 9.845
18.7862 9.964
18.8013 9.784
18.8165 9.636
18.8317 9.883
18.8469 10.126
18.8620 10.102
18.8772 10.012
18.8924 10.099
18.9076 10.203
18.9227 10.080
18.9379 9.997
18.9531 9.975
18.9683 9.876
18.9834 10.090
18.9986 10.293
19.0138 10.253
19.0290 10.063
19.0441 10.068
19.0593 10.131
19.0745 10.319
19.0897 10.466
19.1048 10.385
19.1200 10.583
19.1352 10.665
19.1504 10.445
19.1655 10.431
19.1807 10.574
19.1959 10.665
19.2111 10.636
19.2262 10.638
19.2414 10.785
19.2566 10.956
19.2718 10.814
19.2869 10.813
19.3021 11.007
19.3173 11.010
19.3325 11.001
19.3476 11.123
19.3628 11.021
19.3780 10.975
19.3932 11.188
19.4083 11.137
19.4235 11.228
19.4387 11.296
19.4539 11.080
19.4690 11.069
19.4842 11.309
19.4994 11.472
19.5146 11.291
19.5297 11.415
19.5449 11.441
19.5601 11.532
19.5753 11.719
19.5904 11.692
19.6056 11.629
19.6208 11.518
19.6360 11.550
19.6511 11.546
19.6663 11.436
19.6815 11.648
19.6967 11.753
19.7118 11.689
19.7270 11.491
19.7422 11.353
19.7574 11.698
19.7725 11.863
19.7877 11.851
19.8029 11.941
19.8180 12.180
19.8332 12.139
19.8484 12.126
19.8636 12.393
19.8787 12.463
19.8939 12.811
19.9091 13.106
19.9243 13.431
19.9394 13.923
19.9546 14.236
19.9698 14.388
19.9850 14.264
20.0001 14.399
20.0153 14.208
20.0305 13.883
20.0457 13.960
20.0608 13.954
20.0760 14.041
20.0912 14.010
20.1064 13.648
20.1215 13.546
20.1367 13.379
20.1519 13.185
20.1671 12.986
20.1822 12.908
20.1974 12.869
20.2126 12.843
20.2278 12.683
20.2429 12.506
20.2581 12.339
20.2733 12.057
20.2885 11.849
20.3036 11.705
20.3188 11.852
20.3340 11.863
20.3492 11.716
20.3643 11.488
20.3795 11.306
20.3947 10.824
20.4099 10.858
20.4250 10.929
20.4402 10.934
20.4554 10.875
20.4706 10.819
20.4857 10.961
20.5009 10.694
20.5161 10.645
20.5313 10.578
20.5464 10.545
20.5616 10.510
20.5768 10.453
20.5920 10.652
20.6071 10.770
20.6223 10.630
20.6375 10.416
20.6527 10.451
20.6678 10.371
20.6830 10.549
20.6982 10.431
20.7134 10.478
20.7285 10.338
20.7437 10.235
20.7589 10.476
20.7741 10.559
20.7892 10.279
20.8044 10.274
20.8196 10.428
20.8348 10.242
20.8499 10.096
20.8651 10.223
20.8803 10.284
20.8955 10.438
20.9106 10.181
20.9258 10.066
20.9410 10.140
20.9562 10.177
20.9713 9.995
20.9865 10.065
21.0017 10.199
21.0169 10.187
21.0320 9.869
21.0472 10.061
21.0624 9.686
21.0776 9.948
21.0927 9.947
21.1079 9.941
21.1231 9.725
21.1383 9.519
21.1534 9.628
21.1686 9.589
21.1838 9.745
21.1990 9.843
21.2141 9.526
21.2293 9.715
21.2445 9.598
21.2597 9.698
21.2748 9.514
21.2900 9.791
21.3052 9.517
21.3204 9.392
21.3355 9.570
21.3507 9.570
21.3659 9.461
21.3811 9.842
21.3962 9.112
21.4114 9.323
21.4266 9.229
21.4418 9.566
21.4569 9.508
21.4721 9.287
21.4873 9.366
21.5025 9.569
21.5176 9.537
21.5328 9.259
21.5480 9.234
21.5632 9.254
21.5783 9.304
21.5935 9.236
21.6087 9.095
21.6239 9.085
21.6390 9.248
21.6542 9.318
21.6694 9.251
21.6846 9.382
21.6997 9.253
21.7149 9.125
21.7301 9.121
21.7453 9.167
21.7604 9.015
21.7756 9.066
21.7908 8.889
21.8060 9.005
21.8211 9.072
21.8363 9.130
21.8515 9.024
21.8667 9.124
21.8818 9.229
21.8970 9.041
21.9122 8.929
21.9274 8.988
21.9425 8.971
21.9577 9.106
21.9729 9.128
21.9881 9.075
22.0032 8.962
22.0184 8.776
22.0336 8.811
22.0488 8.838
22.0639 8.730
22.0791 8.848
22.0943 8.801
22.1095 8.647
22.1246 8.777
22.1398 8.687
22.1550 8.764
22.1702 8.778
22.1853 8.908
22.2005 8.855
22.2157 8.417
22.2309 8.629
22.2460 8.889
22.2612 8.635
22.2764 8.624
22.2916 8.619
22.3067 8.608
22.3219 8.562
22.3371 8.557
22.3523 8.517
22.3674 8.640
22.3826 8.735
22.3978 8.368
22.4130 8.534
22.4281 8.540
22.4433 8.564
22.4585 8.835
22.4737 8.478
22.4888 8.471
22.5040 8.660
22.5192 8.484
22.5344 8.566
22.5495 8.498
22.5647 8.609
22.5799 8.395
22.5951 8.386
22.6102 8.519
22.6254 8.452
22.6406 8.646
22.6558 8.446
22.6709 8.483
22.6861 8.544
22.7013 8.300
22.7165 8.090
22.7316 6.646
