'Id: "" Comment: "" Operator: "Lab Manager" Anode: "Mo" Scantype: "Still (Eiger2R_500K (1D mode))" TimePerStep: "300" X: "11.8" Y: "9.4" Z: "11.284" 
7.2532 18.883
7.2684 19.763
7.2836 18.839
7.2987 19.040
7.3139 18.770
7.3291 19.264
7.3443 19.043
7.3594 18.805
7.3746 19.450
7.3898 19.231
7.4050 19.287
7.4201 19.060
7.4353 19.177
7.4505 19.256
7.4657 19.426
7.4808 19.538
7.4960 19.408
7.5112 19.367
7.5264 19.572
7.5415 19.835
7.5567 19.986
7.5719 19.845
7.5871 19.956
7.6022 19.807
7.6174 19.690
7.6326 20.080
7.6478 19.941
7.6629 20.054
7.6781 20.300
7.6933 20.185
7.7085 20.353
7.7236 20.280
7.7388 20.414
7.7540 20.429
7.7692 20.497
7.7843 20.865
7.7995 20.630
7.8147 20.509
7.8299 20.654
7.8450 20.679
7.8602 20.656
7.8754 21.006
7.8905 21.027
7.9057 20.554
7.9209 20.426
7.9361 20.586
7.9512 20.955
7.9664 20.924
7.9816 20.527
7.9968 20.473
8.0119 20.676
8.0271 20.689
8.0423 20.850
8.0575 20.865
8.0726 20.771
8.0878 21.118
8.1030 21.530
8.1182 21.244
8.1333 21.353
8.1485 21.023
8.1637 21.159
8.1789 21.249
8.1940 21.360
8.2092 21.707
8.2244 21.615
8.2396 21.857
8.2547 21.691
8.2699 21.470
8.2851 21.725
8.3003 21.541
8.3154 21.559
8.3306 21.479
8.3458 21.339
8.3610 21.975
8.3761 22.284
8.3913 21.648
8.4065 21.881
8.4217 21.897
8.4368 21.690
8.4520 21.720
8.4672 21.910
8.4824 21.925
8.4975 21.419
8.5127 21.804
8.5279 22.030
8.5431 21.565
8.5582 22.412
8.5734 22.073
8.5886 22.084
8.6038 21.980
8.6189 22.026
8.6341 22.163
8.6493 22.390
8.6645 22.333
8.6796 22.426
8.6948 22.202
8.7100 22.207
8.7252 22.557
8.7403 22.247
8.7555 22.206
8.7707 22.529
8.7859 22.704
8.8010 22.636
8.8162 21.967
8.8314 22.495
8.8466 22.562
8.8617 22.550
8.8769 22.577
8.8921 22.788
8.9073 22.492
8.9224 22.515
8.9376 22.581
8.9528 22.274
8.9680 22.552
8.9831 22.733
8.9983 22.318
9.0135 22.812
9.0287 22.907
9.0438 22.552
9.0590 22.592
9.0742 22.822
9.0894 22.521
9.1045 22.812
9.1197 22.799
9.1349 22.979
9.1501 23.409
9.1652 23.218
9.1804 22.641
9.1956 22.424
9.2108 22.673
9.2259 22.649
9.2411 22.716
9.2563 23.223
9.2715 23.010
9.2866 22.680
9.3018 23.035
9.3170 23.025
9.3322 23.106
9.3473 23.266
9.3625 23.385
9.3777 23.011
9.3929 22.828
9.4080 22.950
9.4232 22.845
9.4384 22.593
9.4536 22.852
9.4687 22.722
9.4839 23.039
9.4991 23.484
9.5143 23.648
9.5294 23.011
9.5446 22.793
9.5598 23.330
9.5750 23.519
9.5901 23.695
9.6053 23.286
9.6205 23.219
9.6357 23.519
9.6508 23.653
9.6660 24.022
9.6812 23.931
9.6964 23.581
9.7115 23.578
9.7267 23.948
9.7419 24.017
9.7571 23.788
9.7722 23.763
9.7874 23.735
9.8026 23.427
9.8178 23.031
9.8329 23.401
9.8481 23.409
9.8633 22.909
9.8785 23.238
9.8936 23.310
9.9088 23.436
9.9240 23.571
9.9392 23.373
9.9543 23.263
9.9695 23.333
9.9847 23.437
9.9999 23.241
10.0150 23.264
10.0302 23.522
10.0454 23.390
10.0606 23.181
10.0757 23.239
10.0909 23.178
10.1061 23.539
10.1213 23.665
10.1364 23.498
10.1516 23.617
10.1668 23.565
10.1820 23.126
10.1971 23.111
10.2123 22.986
10.2275 23.149
10.2427 22.965
10.2578 22.652
10.2730 22.539
10.2882 22.847
10.3034 22.878
10.3185 22.732
10.3337 22.916
10.3489 22.666
10.3641 22.418
10.3792 22.643
10.3944 22.734
10.4096 22.977
10.4248 22.840
10.4399 22.588
10.4551 22.648
10.4703 22.584
10.4855 22.633
10.5006 22.595
10.5158 22.885
10.5310 22.548
10.5462 22.187
10.5613 22.476
10.5765 22.948
10.5917 22.584
10.6069 22.329
10.6220 22.065
10.6372 22.460
10.6524 22.223
10.6676 22.381
10.6827 22.748
10.6979 22.230
10.7131 22.085
10.7283 22.418
10.7434 22.536
10.7586 22.219
10.7738 22.036
10.7890 22.261
10.8041 22.265
10.8193 22.147
10.8345 22.154
10.8497 22.118
10.8648 22.105
10.8800 22.174
10.8952 22.194
10.9104 22.417
10.9255 22.282
10.9407 22.242
10.9559 22.010
10.9711 22.212
10.9862 22.346
11.0014 22.357
11.0166 22.365
11.0318 22.436
11.0469 22.270
11.0621 22.029
11.0773 22.125
11.0925 22.155
11.1076 22.026
11.1228 21.780
11.1380 21.984
11.1532 21.993
11.1683 21.583
11.1835 21.863
11.1987 21.816
11.2139 21.988
11.2290 21.854
11.2442 21.710
11.2594 21.604
11.2746 21.824
11.2897 21.782
11.3049 21.823
11.3201 21.926
11.3353 21.812
11.3504 21.734
11.3656 21.957
11.3808 21.488
11.3960 20.989
11.4111 21.658
11.4263 21.334
11.4415 21.155
11.4567 21.213
11.4718 21.403
11.4870 21.529
11.5022 21.169
11.5174 21.012
11.5325 20.974
11.5477 20.971
11.5629 20.933
11.5781 20.861
11.5932 20.701
11.6084 20.465
11.6236 20.931
11.6388 20.806
11.6539 20.547
11.6691 20.443
11.6843 20.390
11.6995 20.558
11.7146 20.268
11.7298 20.332
11.7450 20.451
11.7602 20.449
11.7753 20.088
11.7905 20.218
11.8057 20.056
11.8209 19.899
11.8360 20.025
11.8512 19.883
11.8664 19.794
11.8816 20.163
11.8967 19.833
11.9119 19.520
11.9271 19.753
11.9423 19.622
11.9574 19.530
11.9726 19.393
11.9878 19.421
12.0030 19.417
12.0181 19.193
12.0333 19.339
12.0485 18.805
12.0637 19.127
12.0788 19.112
12.0940 18.878
12.1092 18.797
12.1244 18.904
12.1395 18.735
12.1547 18.307
12.1699 18.377
12.1851 18.301
12.2002 18.076
12.2154 17.686
12.2306 17.836
12.2458 17.980
12.2609 18.176
12.2761 17.887
12.2913 17.606
12.3065 17.423
12.3216 17.374
12.3368 17.261
12.3520 16.989
12.3672 17.244
12.3823 17.125
12.3975 17.137
12.4127 17.186
12.4279 17.169
12.4430 17.098
12.4582 17.111
12.4734 17.138
12.4886 17.050
12.5037 17.024
12.5189 17.033
12.5341 17.048
12.5493 16.473
12.5644 16.163
12.5796 16.109
12.5948 16.030
12.6100 15.917
12.6251 16.043
12.6403 16.052
12.6555 16.053
12.6707 15.861
12.6858 15.771
12.7010 15.625
12.7162 15.649
12.7314 15.660
12.7465 15.410
12.7617 15.251
12.7769 15.283
12.7921 15.252
12.8072 15.122
12.8224 15.194
12.8376 15.010
12.8528 14.772
12.8679 14.827
12.8831 14.999
12.8983 14.972
12.9135 14.712
12.9286 14.740
12.9438 14.521
12.9590 14.313
12.9742 14.314
12.9893 14.177
13.0045 14.209
13.0197 14.312
13.0349 14.394
13.0500 14.149
13.0652 13.862
13.0804 13.776
13.0956 14.028
13.1107 14.111
13.1259 13.769
13.1411 13.633
13.1563 13.627
13.1714 13.397
13.1866 13.250
13.2018 13.592
13.2170 13.574
13.2321 13.398
13.2473 13.403
13.2625 13.338
13.2777 13.264
13.2928 13.057
13.3080 13.075
13.3232 13.148
13.3384 13.110
13.3535 13.119
13.3687 13.125
13.3839 13.159
13.3991 13.145
13.4142 12.999
13.4294 12.809
13.4446 12.679
13.4598 12.876
13.4749 13.099
13.4901 12.931
13.5053 12.599
13.5205 12.489
13.5356 12.564
13.5508 12.381
13.5660 12.213
13.5812 12.342
13.5963 12.424
13.6115 12.314
13.6267 12.080
13.6419 11.994
13.6570 12.078
13.6722 12.248
13.6874 12.461
13.7026 12.395
13.7177 12.147
13.7329 12.156
13.7481 12.270
13.7633 12.219
13.7784 12.370
13.7936 12.469
13.8088 12.354
13.8239 12.059
13.8391 12.224
13.8543 12.134
13.8695 12.012
13.8846 12.222
13.8998 12.453
13.9150 12.449
13.9302 11.983
13.9453 11.876
13.9605 11.977
13.9757 12.099
13.9909 11.811
14.0060 11.602
14.0212 11.512
14.0364 11.776
14.0516 11.702
14.0667 11.811
14.0819 11.647
14.0971 11.820
14.1123 11.840
14.1274 11.701
14.1426 11.452
14.1578 11.674
14.1730 11.884
14.1881 11.813
14.2033 11.651
14.2185 11.726
14.2337 11.834
14.2488 11.790
14.2640 11.953
14.2792 11.876
14.2944 11.914
14.3095 12.026
14.3247 12.107
14.3399 12.301
14.3551 12.338
14.3702 12.718
14.3854 12.973
14.4006 12.968
14.4158 13.085
14.4309 12.819
14.4461 13.073
14.4613 13.002
14.4765 12.642
14.4916 12.165
14.5068 11.901
14.5220 11.660
14.5372 11.568
14.5523 11.280
14.5675 11.317
14.5827 10.632
14.5979 10.957
14.6130 10.851
14.6282 10.995
14.6434 10.788
14.6586 10.707
14.6737 10.880
14.6889 11.105
14.7041 10.782
14.7193 10.848
14.7344 10.462
14.7496 10.682
14.7648 10.726
14.7800 10.871
14.7951 10.676
14.8103 10.812
14.8255 10.712
14.8407 10.571
14.8558 10.708
14.8710 10.498
14.8862 10.480
14.9014 10.324
14.9165 10.745
14.9317 10.763
14.9469 10.592
14.9621 10.492
14.9772 10.295
14.9924 10.313
15.0076 10.437
15.0228 10.800
15.0379 10.382
15.0531 10.450
15.0683 10.062
15.0835 10.712
15.0986 10.224
15.1138 9.946
15.1290 10.129
15.1442 10.679
15.1593 9.969
15.1745 10.058
15.1897 9.773
15.2049 10.318
15.2200 10.044
15.2352 10.262
15.2504 9.968
15.2656 10.094
15.2807 10.011
15.2959 10.467
15.3111 10.045
15.3263 9.948
15.3414 10.039
15.3566 10.224
15.3718 10.263
15.3870 10.002
15.4021 10.237
15.4173 10.216
15.4325 10.287
15.4477 10.237
15.4628 10.177
15.4780 10.131
15.4932 10.068
15.5084 10.077
15.5235 10.180
15.5387 10.108
15.5539 10.054
15.5691 10.470
15.5842 10.194
15.5994 9.989
15.6146 10.017
15.6298 9.885
15.6449 9.737
15.6601 9.677
15.6753 9.746
15.6905 9.690
15.7056 9.892
15.7208 9.894
15.7360 9.656
15.7512 9.623
15.7663 9.654
15.7815 9.455
15.7967 9.674
15.8119 9.936
15.8270 9.440
15.8422 9.556
15.8574 9.502
15.8726 9.590
15.8877 9.475
15.9029 9.536
15.9181 9.618
15.9333 9.812
15.9484 9.571
15.9636 9.736
15.9788 9.899
15.9940 9.829
16.0091 9.558
16.0243 9.562
16.0395 9.502
16.0547 9.462
16.0698 9.682
16.0850 9.741
16.1002 9.660
16.1154 9.602
16.1305 9.606
16.1457 9.627
16.1609 9.597
16.1761 9.647
16.1912 9.602
16.2064 9.486
16.2216 9.858
16.2368 9.629
16.2519 9.400
16.2671 9.625
16.2823 10.101
16.2975 9.972
16.3126 9.882
16.3278 9.984
16.3430 9.939
16.3582 9.742
16.3733 9.787
16.3885 9.782
16.4037 9.774
16.4189 9.694
16.4340 9.790
16.4492 9.761
16.4644 9.761
16.4796 9.707
16.4947 9.643
16.5099 9.511
16.5251 9.541
16.5403 9.502
16.5554 9.596
16.5706 9.848
16.5858 9.920
16.6010 9.746
16.6161 9.903
16.6313 9.833
16.6465 9.861
16.6617 9.644
16.6768 9.637
16.6920 9.716
16.7072 9.869
16.7224 9.707
16.7375 9.835
16.7527 9.899
16.7679 9.746
16.7831 9.941
16.7982 9.962
16.8134 10.026
16.8286 10.081
16.8438 10.005
16.8589 9.948
16.8741 10.027
16.8893 9.870
16.9045 9.706
16.9196 9.715
16.9348 9.768
16.9500 9.666
16.9652 9.805
16.9803 9.924
16.9955 9.707
17.0107 9.846
17.0259 9.970
17.0410 10.171
17.0562 10.251
17.0714 10.089
17.0866 10.299
17.1017 10.559
17.1169 10.778
17.1321 11.048
17.1473 11.237
17.1624 11.641
17.1776 12.414
17.1928 13.401
17.2080 13.968
17.2231 14.798
17.2383 16.222
17.2535 17.431
17.2687 18.245
17.2838 18.519
17.2990 17.882
17.3142 16.976
17.3294 16.344
17.3445 16.064
17.3597 16.063
17.3749 15.839
17.3901 15.056
17.4052 14.073
17.4204 13.324
17.4356 12.671
17.4508 12.093
17.4659 11.772
17.4811 11.696
17.4963 11.489
17.5115 11.373
17.5266 11.226
17.5418 11.188
17.5570 11.004
17.5722 10.862
17.5873 11.059
17.6025 11.076
17.6177 11.212
17.6329 11.269
17.6480 11.268
17.6632 11.258
17.6784 11.264
17.6936 11.252
17.7087 11.300
17.7239 11.116
17.7391 11.112
17.7543 11.105
17.7694 11.020
17.7846 11.011
17.7998 10.952
17.8150 10.896
17.8301 10.805
17.8453 10.555
17.8605 10.432
17.8757 10.337
17.8908 10.207
17.9060 10.218
17.9212 10.233
17.9364 10.072
17.9515 10.130
17.9667 10.212
17.9819 10.199
17.9971 10.211
18.0122 10.047
18.0274 9.970
18.0426 10.109
18.0578 10.152
18.0729 10.040
18.0881 9.889
18.1033 9.887
18.1185 10.062
18.1336 10.248
18.1488 10.053
18.1640 9.934
18.1792 9.912
18.1943 9.832
18.2095 9.791
18.2247 9.756
18.2399 9.794
18.2550 9.883
18.2702 9.781
18.2854 9.752
18.3006 9.946
18.3157 9.858
18.3309 9.849
18.3461 9.755
18.3613 9.688
18.3764 9.873
18.3916 10.044
18.4068 9.804
18.4220 9.754
18.4371 10.009
18.4523 9.800
18.4675 9.718
18.4827 9.566
18.4978 9.551
18.5130 9.639
18.5282 9.679
18.5434 9.764
18.5585 9.924
18.5737 9.934
18.5889 9.849
18.6041 9.766
18.6192 9.719
18.6344 9.648
18.6496 9.716
18.6648 9.864
18.6799 9.735
18.6951 9.702
18.7103 9.746
18.7255 9.836
18.7406 9.999
18.7558 9.839
18.7710 9.812
18.7862 9.939
18.8013 9.945
18.8165 9.534
18.8317 9.676
18.8469 9.987
18.8620 9.951
18.8772 9.730
18.8924 9.657
18.9076 9.791
18.9227 9.932
18.9379 9.900
18.9531 9.900
18.9683 9.960
18.9834 10.052
18.9986 10.065
19.0138 10.135
19.0290 10.066
19.0441 9.850
19.0593 9.967
19.0745 10.254
19.0897 10.355
19.1048 10.250
19.1200 10.390
19.1352 10.511
19.1504 10.472
19.1655 10.476
19.1807 10.628
19.1959 10.686
19.2111 10.584
19.2262 10.873
19.2414 10.829
19.2566 10.647
19.2718 10.749
19.2869 10.888
19.3021 10.786
19.3173 10.789
19.3325 11.008
19.3476 11.043
19.3628 10.952
19.3780 11.046
19.3932 11.132
19.4083 11.203
19.4235 11.038
19.4387 11.015
19.4539 11.288
19.4690 11.477
19.4842 11.498
19.4994 11.563
19.5146 11.771
19.5297 11.681
19.5449 11.536
19.5601 11.573
19.5753 11.581
19.5904 11.708
19.6056 11.733
19.6208 11.752
19.6360 11.748
19.6511 11.524
19.6663 11.585
19.6815 11.812
19.6967 11.857
19.7118 11.757
19.7270 11.738
19.7422 11.790
19.7574 11.747
19.7725 11.662
19.7877 11.670
19.8029 11.968
19.8180 12.212
19.8332 12.219
19.8484 12.430
19.8636 12.750
19.8787 12.781
19.8939 12.917
19.9091 12.967
19.9243 13.286
19.9394 13.891
19.9546 14.313
19.9698 14.358
19.9850 14.542
20.0001 14.467
20.0153 14.282
20.0305 14.169
20.0457 13.896
20.0608 13.659
20.0760 13.698
20.0912 13.695
20.1064 13.627
20.1215 13.569
20.1367 13.281
20.1519 13.139
20.1671 13.231
20.1822 12.944
20.1974 12.543
20.2126 12.688
20.2278 12.803
20.2429 12.599
20.2581 12.541
20.2733 12.101
20.2885 11.810
20.3036 12.043
20.3188 12.023
20.3340 12.152
20.3492 12.161
20.3643 11.854
20.3795 11.613
20.3947 11.906
20.4099 11.834
20.4250 11.877
20.4402 12.046
20.4554 11.864
20.4706 11.876
20.4857 11.928
20.5009 11.880
20.5161 11.566
20.5313 11.369
20.5464 11.355
20.5616 11.431
20.5768 11.327
20.5920 11.496
20.6071 11.569
20.6223 11.038
20.6375 10.777
20.6527 10.934
20.6678 10.601
20.6830 10.718
20.6982 10.638
20.7134 10.615
20.7285 10.450
20.7437 10.576
20.7589 10.151
20.7741 10.330
20.7892 10.152
20.8044 10.332
20.8196 10.606
20.8348 10.710
20.8499 10.102
20.8651 10.119
20.8803 10.093
20.8955 10.008
20.9106 10.162
20.9258 10.253
20.9410 10.472
20.9562 10.295
20.9713 9.981
20.9865 10.128
21.0017 10.127
21.0169 9.976
21.0320 10.123
21.0472 9.937
21.0624 9.922
21.0776 9.700
21.0927 9.953
21.1079 9.711
21.1231 9.988
21.1383 9.798
21.1534 9.500
21.1686 9.886
21.1838 10.275
21.1990 9.674
21.2141 9.390
21.2293 9.714
21.2445 9.564
21.2597 9.826
21.2748 9.432
21.2900 9.927
21.3052 9.603
21.3204 9.421
21.3355 9.333
21.3507 9.594
21.3659 9.602
21.3811 9.695
21.3962 9.510
21.4114 9.047
21.4266 9.559
21.4418 9.558
21.4569 9.326
21.4721 9.257
21.4873 9.244
21.5025 9.594
21.5176 9.642
21.5328 9.500
21.5480 9.188
21.5632 9.387
21.5783 9.362
21.5935 9.005
21.6087 9.260
21.6239 9.430
21.6390 9.246
21.6542 9.226
21.6694 9.247
21.6846 9.263
21.6997 9.187
21.7149 8.962
21.7301 8.774
21.7453 8.914
21.7604 9.043
21.7756 8.843
21.7908 8.720
21.8060 9.020
21.8211 9.175
21.8363 9.202
21.8515 8.903
21.8667 8.934
21.8818 9.231
21.8970 9.300
21.9122 8.999
21.9274 9.006
21.9425 8.976
21.9577 8.879
21.9729 8.915
21.9881 9.182
22.0032 9.114
22.0184 8.700
22.0336 8.707
22.0488 8.783
22.0639 8.798
22.0791 9.002
22.0943 8.873
22.1095 8.655
22.1246 8.801
22.1398 8.796
22.1550 8.664
22.1702 8.640
22.1853 8.657
22.2005 8.473
22.2157 8.649
22.2309 8.515
22.2460 8.382
22.2612 8.531
22.2764 8.581
22.2916 8.544
22.3067 8.624
22.3219 8.795
22.3371 8.450
22.3523 8.460
22.3674 8.641
22.3826 8.637
22.3978 8.450
22.4130 8.668
22.4281 8.571
22.4433 8.272
22.4585 8.537
22.4737 8.350
22.4888 8.331
22.5040 8.253
22.5192 8.303
22.5344 8.479
22.5495 8.296
22.5647 8.321
22.5799 8.611
22.5951 8.376
22.6102 8.195
22.6254 8.331
22.6406 8.211
22.6558 8.027
22.6709 8.217
22.6861 8.483
22.7013 8.159
22.7165 7.982
22.7316 6.443
