'Id: "" Comment: "" Operator: "Lab Manager" Anode: "Mo" Scantype: "Still (Eiger2R_500K (1D mode))" TimePerStep: "300" X: "11.8" Y: "9.4" Z: "11.284" 
7.2532 19.006
7.2684 18.467
7.2836 19.372
7.2987 18.783
7.3139 19.168
7.3291 19.193
7.3443 18.813
7.3594 18.918
7.3746 18.886
7.3898 19.274
7.4050 19.302
7.4201 19.728
7.4353 18.960
7.4505 19.154
7.4657 19.499
7.4808 19.372
7.4960 19.517
7.5112 19.812
7.5264 19.494
7.5415 19.573
7.5567 19.511
7.5719 19.467
7.5871 19.823
7.6022 19.952
7.6174 19.962
7.6326 19.975
7.6478 19.835
7.6629 19.759
7.6781 19.882
7.6933 20.015
7.7085 20.144
7.7236 20.252
7.7388 20.374
7.7540 20.319
7.7692 20.125
7.7843 20.126
7.7995 20.249
7.8147 20.239
7.8299 20.139
7.8450 20.632
7.8602 20.844
7.8754 20.686
7.8905 20.456
7.9057 20.345
7.9209 20.815
7.9361 20.710
7.9512 20.866
7.9664 20.883
7.9816 20.952
7.9968 21.007
8.0119 21.057
8.0271 20.839
8.0423 20.711
8.0575 20.698
8.0726 20.919
8.0878 21.121
8.1030 21.260
8.1182 21.015
8.1333 20.974
8.1485 20.941
8.1637 21.210
8.1789 21.432
8.1940 21.283
8.2092 21.794
8.2244 21.505
8.2396 21.382
8.2547 21.981
8.2699 21.367
8.2851 21.204
8.3003 21.367
8.3154 21.428
8.3306 21.371
8.3458 21.697
8.3610 21.534
8.3761 21.602
8.3913 21.375
8.4065 21.842
8.4217 21.240
8.4368 21.634
8.4520 22.212
8.4672 21.944
8.4824 22.011
8.4975 21.775
8.5127 22.088
8.5279 21.830
8.5431 22.007
8.5582 21.793
8.5734 21.484
8.5886 22.066
8.6038 21.920
8.6189 21.844
8.6341 21.443
8.6493 22.425
8.6645 21.949
8.6796 21.764
8.6948 23.013
8.7100 22.323
8.7252 22.057
8.7403 22.202
8.7555 22.235
8.7707 21.607
8.7859 22.182
8.8010 22.146
8.8162 21.721
8.8314 22.551
8.8466 22.269
8.8617 22.192
8.8769 22.161
8.8921 21.855
8.9073 22.536
8.9224 22.270
8.9376 22.627
8.9528 21.990
8.9680 22.109
8.9831 22.572
8.9983 22.392
9.0135 22.609
9.0287 22.476
9.0438 22.659
9.0590 22.910
9.0742 22.596
9.0894 22.864
9.1045 22.740
9.1197 22.760
9.1349 22.869
9.1501 22.628
9.1652 22.587
9.1804 22.587
9.1956 22.373
9.2108 22.376
9.2259 22.683
9.2411 22.949
9.2563 22.844
9.2715 22.284
9.2866 22.882
9.3018 22.860
9.3170 22.797
9.3322 22.750
9.3473 22.658
9.3625 22.711
9.3777 22.968
9.3929 22.982
9.4080 22.784
9.4232 22.766
9.4384 22.725
9.4536 22.914
9.4687 22.898
9.4839 22.632
9.4991 22.871
9.5143 22.766
9.5294 22.699
9.5446 23.009
9.5598 22.770
9.5750 22.657
9.5901 23.124
9.6053 23.077
9.6205 23.314
9.6357 23.484
9.6508 23.319
9.6660 23.717
9.6812 23.505
9.6964 23.037
9.7115 23.719
9.7267 24.054
9.7419 24.041
9.7571 23.931
9.7722 23.678
9.7874 23.424
9.8026 23.462
9.8178 23.582
9.8329 23.703
9.8481 23.326
9.8633 23.226
9.8785 23.294
9.8936 23.024
9.9088 23.070
9.9240 23.148
9.9392 23.051
9.9543 23.013
9.9695 23.071
9.9847 22.972
9.9999 23.237
10.0150 23.431
10.0302 23.021
10.0454 23.094
10.0606 23.077
10.0757 22.843
10.0909 22.947
10.1061 22.920
10.1213 23.154
10.1364 23.156
10.1516 23.129
10.1668 23.032
10.1820 23.286
10.1971 23.360
10.2123 23.051
10.2275 22.894
10.2427 22.619
10.2578 22.665
10.2730 22.757
10.2882 22.744
10.3034 22.917
10.3185 22.937
10.3337 22.618
10.3489 22.670
10.3641 22.530
10.3792 22.561
10.3944 22.473
10.4096 22.535
10.4248 22.613
10.4399 22.414
10.4551 22.570
10.4703 22.691
10.4855 22.291
10.5006 22.111
10.5158 22.591
10.5310 22.886
10.5462 22.921
10.5613 22.662
10.5765 22.495
10.5917 22.591
10.6069 22.597
10.6220 22.565
10.6372 22.396
10.6524 22.368
10.6676 22.747
10.6827 22.121
10.6979 21.870
10.7131 22.243
10.7283 22.198
10.7434 22.212
10.7586 22.136
10.7738 22.003
10.7890 21.965
10.8041 22.309
10.8193 22.349
10.8345 22.077
10.8497 21.983
10.8648 21.865
10.8800 22.313
10.8952 22.101
10.9104 21.844
10.9255 22.121
10.9407 22.081
10.9559 22.001
10.9711 21.943
10.9862 21.951
11.0014 21.847
11.0166 21.996
11.0318 22.095
11.0469 21.694
11.0621 21.771
11.0773 21.907
11.0925 21.320
11.1076 21.320
11.1228 21.717
11.1380 21.612
11.1532 21.817
11.1683 21.816
11.1835 21.662
11.1987 21.461
11.2139 21.572
11.2290 21.898
11.2442 21.899
11.2594 21.418
11.2746 21.350
11.2897 21.599
11.3049 21.692
11.3201 21.872
11.3353 21.281
11.3504 21.308
11.3656 21.518
11.3808 21.410
11.3960 21.149
11.4111 21.136
11.4263 21.282
11.4415 21.474
11.4567 21.036
11.4718 20.728
11.4870 20.557
11.5022 20.570
11.5174 21.192
11.5325 20.836
11.5477 21.370
11.5629 21.321
11.5781 20.866
11.5932 20.646
11.6084 20.658
11.6236 20.431
11.6388 20.559
11.6539 20.724
11.6691 20.224
11.6843 20.527
11.6995 20.604
11.7146 20.391
11.7298 20.486
11.7450 20.399
11.7602 20.291
11.7753 20.573
11.7905 20.344
11.8057 20.247
11.8209 19.975
11.8360 19.729
11.8512 19.924
11.8664 19.871
11.8816 19.732
11.8967 19.567
11.9119 19.838
11.9271 19.859
11.9423 19.825
11.9574 19.662
11.9726 19.434
11.9878 19.284
12.0030 19.471
12.0181 19.306
12.0333 19.521
12.0485 19.071
12.0637 18.764
12.0788 19.015
12.0940 19.390
12.1092 19.237
12.1244 18.590
12.1395 18.460
12.1547 18.610
12.1699 18.523
12.1851 18.361
12.2002 18.531
12.2154 18.259
12.2306 18.047
12.2458 17.948
12.2609 17.960
12.2761 17.814
12.2913 17.578
12.3065 17.738
12.3216 17.676
12.3368 17.589
12.3520 17.433
12.3672 17.248
12.3823 16.963
12.3975 17.178
12.4127 17.172
12.4279 17.267
12.4430 16.896
12.4582 16.917
12.4734 16.969
12.4886 16.549
12.5037 16.601
12.5189 16.606
12.5341 16.358
12.5493 16.392
12.5644 16.416
12.5796 16.178
12.5948 16.232
12.6100 16.192
12.6251 16.032
12.6403 15.745
12.6555 15.572
12.6707 15.596
12.6858 15.575
12.7010 15.644
12.7162 15.669
12.7314 15.564
12.7465 15.342
12.7617 15.305
12.7769 15.009
12.7921 14.851
12.8072 15.175
12.8224 15.183
12.8376 14.937
12.8528 14.931
12.8679 14.722
12.8831 14.348
12.8983 14.680
12.9135 15.114
12.9286 14.873
12.9438 14.634
12.9590 14.596
12.9742 14.424
12.9893 14.134
13.0045 14.186
13.0197 14.241
13.0349 14.323
13.0500 14.161
13.0652 13.789
13.0804 13.851
13.0956 13.895
13.1107 13.672
13.1259 13.577
13.1411 13.654
13.1563 13.564
13.1714 13.498
13.1866 13.489
13.2018 13.267
13.2170 13.306
13.2321 13.400
13.2473 13.355
13.2625 13.315
13.2777 13.251
13.2928 13.281
13.3080 13.158
13.3232 13.164
13.3384 13.005
13.3535 12.810
13.3687 12.897
13.3839 12.716
13.3991 12.567
13.4142 12.793
13.4294 12.900
13.4446 12.851
13.4598 12.681
13.4749 12.774
13.4901 12.630
13.5053 12.326
13.5205 12.463
13.5356 12.496
13.5508 12.325
13.5660 12.235
13.5812 12.373
13.5963 12.546
13.6115 12.270
13.6267 12.093
13.6419 12.262
13.6570 12.130
13.6722 12.042
13.6874 12.104
13.7026 12.141
13.7177 12.128
13.7329 12.179
13.7481 11.967
13.7633 12.041
13.7784 12.472
13.7936 12.373
13.8088 12.111
13.8239 12.221
13.8391 12.355
13.8543 12.389
13.8695 12.367
13.8846 12.362
13.8998 12.324
13.9150 12.027
13.9302 12.243
13.9453 11.925
13.9605 11.680
13.9757 11.881
13.9909 11.914
14.0060 11.800
14.0212 11.735
14.0364 11.648
14.0516 11.542
14.0667 11.601
14.0819 11.802
14.0971 11.768
14.1123 11.533
14.1274 11.694
14.1426 11.878
14.1578 11.905
14.1730 12.044
14.1881 11.721
14.2033 11.832
14.2185 11.661
14.2337 11.512
14.2488 11.648
14.2640 11.747
14.2792 11.723
14.2944 11.783
14.3095 11.924
14.3247 12.176
14.3399 12.075
14.3551 12.457
14.3702 12.643
14.3854 13.053
14.4006 13.123
14.4158 13.138
14.4309 12.872
14.4461 12.928
14.4613 12.680
14.4765 12.374
14.4916 11.982
14.5068 12.198
14.5220 11.868
14.5372 11.429
14.5523 11.021
14.5675 11.105
14.5827 10.977
14.5979 10.879
14.6130 10.484
14.6282 10.629
14.6434 10.489
14.6586 10.798
14.6737 10.569
14.6889 11.061
14.7041 10.863
14.7193 10.550
14.7344 10.542
14.7496 10.775
14.7648 10.682
14.7800 10.722
14.7951 10.447
14.8103 10.504
14.8255 10.542
14.8407 10.639
14.8558 10.591
14.8710 10.418
14.8862 10.134
14.9014 10.578
14.9165 10.815
14.9317 10.453
14.9469 10.176
14.9621 10.153
14.9772 10.282
14.9924 10.134
15.0076 9.923
15.0228 10.237
15.0379 10.609
15.0531 10.086
15.0683 10.070
15.0835 10.348
15.0986 10.087
15.1138 10.486
15.1290 10.046
15.1442 10.152
15.1593 10.098
15.1745 9.958
15.1897 10.216
15.2049 9.979
15.2200 10.299
15.2352 10.147
15.2504 9.666
15.2656 10.166
15.2807 10.336
15.2959 9.870
15.3111 9.904
15.3263 10.064
15.3414 10.144
15.3566 10.181
15.3718 10.017
15.3870 10.051
15.4021 10.061
15.4173 10.324
15.4325 9.983
15.4477 10.365
15.4628 10.348
15.4780 9.945
15.4932 10.071
15.5084 9.936
15.5235 9.928
15.5387 10.048
15.5539 10.253
15.5691 9.890
15.5842 9.886
15.5994 9.744
15.6146 9.833
15.6298 9.746
15.6449 9.633
15.6601 9.470
15.6753 10.013
15.6905 9.749
15.7056 9.407
15.7208 9.303
15.7360 9.697
15.7512 10.041
15.7663 9.433
15.7815 9.600
15.7967 9.747
15.8119 9.673
15.8270 9.605
15.8422 9.645
15.8574 9.584
15.8726 9.672
15.8877 9.593
15.9029 9.356
15.9181 9.596
15.9333 9.947
15.9484 9.458
15.9636 9.477
15.9788 9.858
15.9940 9.583
16.0091 9.681
16.0243 9.736
16.0395 9.496
16.0547 9.449
16.0698 9.453
16.0850 9.504
16.1002 9.485
16.1154 9.654
16.1305 9.662
16.1457 9.423
16.1609 9.738
16.1761 9.484
16.1912 9.447
16.2064 9.446
16.2216 9.430
16.2368 9.674
16.2519 9.641
16.2671 9.576
16.2823 9.637
16.2975 9.669
16.3126 10.098
16.3278 9.978
16.3430 9.843
16.3582 9.640
16.3733 9.488
16.3885 9.497
16.4037 9.836
16.4189 9.830
16.4340 9.557
16.4492 9.739
16.4644 9.710
16.4796 9.590
16.4947 9.613
16.5099 9.546
16.5251 9.400
16.5403 9.310
16.5554 9.386
16.5706 9.474
16.5858 9.512
16.6010 9.567
16.6161 9.462
16.6313 9.431
16.6465 9.528
16.6617 9.738
16.6768 9.868
16.6920 9.728
16.7072 9.617
16.7224 9.753
16.7375 9.838
16.7527 9.815
16.7679 10.039
16.7831 9.787
16.7982 9.686
16.8134 9.735
16.8286 9.751
16.8438 9.762
16.8589 9.799
16.8741 9.830
16.8893 9.829
16.9045 9.978
16.9196 9.728
16.9348 9.574
16.9500 9.746
16.9652 9.715
16.9803 9.818
16.9955 9.886
17.0107 9.974
17.0259 9.887
17.0410 9.773
17.0562 10.020
17.0714 10.100
17.0866 10.265
17.1017 10.347
17.1169 10.606
17.1321 11.001
17.1473 11.184
17.1624 11.605
17.1776 12.320
17.1928 13.148
17.2080 14.099
17.2231 15.142
17.2383 16.366
17.2535 17.493
17.2687 18.121
17.2838 18.254
17.2990 17.725
17.3142 16.731
17.3294 16.075
17.3445 15.953
17.3597 16.089
17.3749 16.082
17.3901 15.369
17.4052 14.420
17.4204 13.372
17.4356 12.501
17.4508 12.411
17.4659 11.997
17.4811 11.358
17.4963 11.199
17.5115 11.252
17.5266 11.217
17.5418 11.107
17.5570 10.934
17.5722 10.911
17.5873 11.146
17.6025 11.226
17.6177 11.198
17.6329 11.209
17.6480 11.486
17.6632 11.599
17.6784 11.453
17.6936 11.277
17.7087 11.306
17.7239 11.121
17.7391 10.983
17.7543 11.186
17.7694 10.989
17.7846 10.832
17.7998 10.917
17.8150 10.519
17.8301 10.313
17.8453 10.240
17.8605 10.241
17.8757 10.209
17.8908 10.139
17.9060 10.290
17.9212 10.002
17.9364 10.062
17.9515 9.955
17.9667 10.059
17.9819 10.260
17.9971 10.229
18.0122 10.016
18.0274 9.990
18.0426 10.133
18.0578 10.067
18.0729 9.839
18.0881 9.779
18.1033 9.924
18.1185 10.000
18.1336 9.860
18.1488 9.761
18.1640 9.809
18.1792 10.060
18.1943 10.124
18.2095 9.908
18.2247 9.893
18.2399 9.834
18.2550 9.876
18.2702 10.023
18.2854 10.035
18.3006 9.914
18.3157 9.831
18.3309 9.796
18.3461 9.795
18.3613 9.686
18.3764 9.599
18.3916 9.668
18.4068 9.644
18.4220 9.682
18.4371 9.593
18.4523 9.565
18.4675 9.742
18.4827 9.793
18.4978 9.717
18.5130 9.854
18.5282 10.010
18.5434 9.732
18.5585 9.614
18.5737 9.768
18.5889 9.907
18.6041 10.000
18.6192 9.817
18.6344 9.701
18.6496 9.771
18.6648 10.026
18.6799 9.962
18.6951 10.063
18.7103 9.898
18.7255 9.832
18.7406 9.678
18.7558 9.780
18.7710 9.946
18.7862 9.632
18.8013 9.728
18.8165 9.857
18.8317 9.543
18.8469 9.606
18.8620 10.011
18.8772 10.207
18.8924 9.983
18.9076 9.961
18.9227 9.917
18.9379 10.051
18.9531 10.128
18.9683 10.009
18.9834 9.927
18.9986 9.831
19.0138 9.943
19.0290 10.183
19.0441 10.051
19.0593 10.122
19.0745 10.283
19.0897 10.197
19.1048 10.456
19.1200 10.235
19.1352 10.187
19.1504 10.423
19.1655 10.519
19.1807 10.458
19.1959 10.563
19.2111 10.665
19.2262 10.812
19.2414 10.737
19.2566 10.805
19.2718 10.899
19.2869 10.736
19.3021 10.753
19.3173 10.753
19.3325 10.982
19.3476 11.035
19.3628 11.090
19.3780 11.206
19.3932 11.114
19.4083 11.205
19.4235 11.278
19.4387 11.330
19.4539 11.331
19.4690 11.430
19.4842 11.380
19.4994 11.291
19.5146 11.450
19.5297 11.353
19.5449 11.480
19.5601 11.435
19.5753 11.313
19.5904 11.573
19.6056 11.914
19.6208 11.886
19.6360 11.796
19.6511 11.771
19.6663 11.732
19.6815 11.794
19.6967 11.781
19.7118 11.864
19.7270 11.966
19.7422 11.901
19.7574 11.679
19.7725 11.701
19.7877 11.722
19.8029 11.793
19.8180 11.895
19.8332 12.016
19.8484 12.085
19.8636 12.203
19.8787 12.624
19.8939 12.820
19.9091 13.198
19.9243 13.435
19.9394 13.520
19.9546 14.021
19.9698 14.611
19.9850 14.657
20.0001 14.443
20.0153 14.336
20.0305 14.027
20.0457 13.962
20.0608 14.091
20.0760 13.976
20.0912 13.823
20.1064 13.831
20.1215 13.640
20.1367 13.244
20.1519 13.161
20.1671 13.212
20.1822 13.027
20.1974 12.944
20.2126 12.957
20.2278 12.871
20.2429 12.713
20.2581 12.258
20.2733 12.213
20.2885 12.035
20.3036 12.028
20.3188 12.117
20.3340 12.047
20.3492 12.042
20.3643 12.095
20.3795 12.021
20.3947 11.828
20.4099 11.894
20.4250 12.087
20.4402 11.926
20.4554 11.625
20.4706 11.741
20.4857 11.931
20.5009 11.829
20.5161 11.533
20.5313 11.406
20.5464 11.163
20.5616 11.388
20.5768 11.493
20.5920 11.189
20.6071 11.152
20.6223 11.159
20.6375 10.913
20.6527 10.667
20.6678 10.817
20.6830 10.578
20.6982 10.440
20.7134 10.557
20.7285 10.307
20.7437 10.527
20.7589 10.301
20.7741 10.199
20.7892 10.371
20.8044 10.504
20.8196 10.566
20.8348 10.570
20.8499 10.339
20.8651 10.082
20.8803 10.446
20.8955 9.844
20.9106 10.350
20.9258 10.094
20.9410 9.983
20.9562 10.285
20.9713 10.258
20.9865 9.845
21.0017 10.069
21.0169 10.097
21.0320 10.124
21.0472 10.120
21.0624 9.987
21.0776 9.749
21.0927 9.777
21.1079 9.604
21.1231 9.947
21.1383 9.717
21.1534 9.900
21.1686 9.859
21.1838 9.561
21.1990 9.934
21.2141 9.854
21.2293 9.614
21.2445 9.942
21.2597 9.716
21.2748 9.648
21.2900 9.453
21.3052 9.730
21.3204 9.436
21.3355 9.666
21.3507 9.347
21.3659 9.793
21.3811 9.691
21.3962 9.379
21.4114 9.448
21.4266 9.386
21.4418 9.603
21.4569 9.579
21.4721 9.477
21.4873 9.355
21.5025 9.272
21.5176 9.482
21.5328 9.365
21.5480 9.297
21.5632 9.085
21.5783 9.151
21.5935 9.076
21.6087 9.191
21.6239 9.107
21.6390 8.977
21.6542 8.998
21.6694 9.146
21.6846 9.311
21.6997 9.108
21.7149 9.126
21.7301 9.165
21.7453 8.860
21.7604 9.103
21.7756 9.439
21.7908 9.297
21.8060 8.814
21.8211 8.895
21.8363 8.971
21.8515 9.034
21.8667 9.060
21.8818 9.072
21.8970 8.979
21.9122 9.066
21.9274 8.898
21.9425 8.804
21.9577 8.853
21.9729 8.964
21.9881 8.890
22.0032 8.825
22.0184 8.778
22.0336 8.808
22.0488 8.915
22.0639 8.964
22.0791 8.809
22.0943 8.639
22.1095 8.590
22.1246 8.651
22.1398 8.619
22.1550 8.598
22.1702 8.773
22.1853 8.685
22.2005 8.480
22.2157 8.482
22.2309 8.688
22.2460 8.543
22.2612 8.481
22.2764 8.710
22.2916 8.708
22.3067 8.529
22.3219 8.495
22.3371 8.759
22.3523 8.668
22.3674 8.390
22.3826 8.308
22.3978 8.250
22.4130 8.384
22.4281 8.263
22.4433 8.555
22.4585 8.451
22.4737 8.484
22.4888 8.260
22.5040 8.194
22.5192 8.410
22.5344 8.166
22.5495 8.209
22.5647 8.388
22.5799 8.559
22.5951 8.446
22.6102 8.824
22.6254 8.177
22.6406 8.223
22.6558 8.286
22.6709 8.257
22.6861 8.379
22.7013 8.139
22.7165 7.885
22.7316 6.451
