'Id: "" Comment: "" Operator: "Lab Manager" Anode: "Mo" Scantype: "Still (Eiger2R_500K (1D mode))" TimePerStep: "300" X: "11.8" Y: "9.4" Z: "11.284" 
7.2532 18.665
7.2684 18.901
7.2836 18.990
7.2987 18.975
7.3139 18.919
7.3291 19.153
7.3443 18.986
7.3594 18.663
7.3746 19.208
7.3898 19.304
7.4050 19.246
7.4201 19.498
7.4353 19.640
7.4505 19.447
7.4657 19.517
7.4808 19.510
7.4960 19.173
7.5112 19.765
7.5264 20.047
7.5415 19.871
7.5567 19.858
7.5719 19.843
7.5871 19.980
7.6022 20.464
7.6174 20.214
7.6326 20.134
7.6478 20.258
7.6629 20.046
7.6781 19.914
7.6933 20.156
7.7085 20.126
7.7236 19.860
7.7388 20.155
7.7540 20.488
7.7692 20.206
7.7843 20.080
7.7995 20.358
7.8147 20.510
7.8299 20.403
7.8450 20.568
7.8602 20.856
7.8754 20.859
7.8905 20.491
7.9057 20.669
7.9209 20.736
7.9361 20.913
7.9512 20.892
7.9664 20.703
7.9816 20.806
7.9968 20.740
8.0119 20.796
8.0271 21.087
8.0423 20.956
8.0575 20.695
8.0726 20.925
8.0878 21.301
8.1030 21.420
8.1182 21.352
8.1333 21.251
8.1485 21.538
8.1637 21.662
8.1789 21.464
8.1940 21.561
8.2092 20.898
8.2244 20.850
8.2396 21.588
8.2547 21.657
8.2699 21.584
8.2851 22.050
8.3003 21.969
8.3154 21.401
8.3306 21.640
8.3458 22.039
8.3610 21.364
8.3761 21.704
8.3913 21.595
8.4065 21.440
8.4217 21.725
8.4368 21.526
8.4520 21.629
8.4672 21.938
8.4824 21.954
8.4975 21.904
8.5127 21.950
8.5279 21.688
8.5431 21.789
8.5582 22.248
8.5734 22.279
8.5886 21.981
8.6038 22.007
8.6189 22.094
8.6341 22.279
8.6493 22.510
8.6645 22.012
8.6796 22.421
8.6948 22.304
8.7100 22.397
8.7252 21.760
8.7403 21.936
8.7555 22.124
8.7707 22.179
8.7859 21.829
8.8010 22.573
8.8162 22.481
8.8314 22.193
8.8466 22.375
8.8617 22.748
8.8769 22.765
8.8921 22.251
8.9073 22.013
8.9224 22.299
8.9376 22.745
8.9528 22.477
8.9680 22.656
8.9831 22.588
8.9983 22.200
9.0135 22.687
9.0287 22.479
9.0438 22.569
9.0590 22.802
9.0742 22.729
9.0894 22.369
9.1045 22.673
9.1197 22.669
9.1349 22.998
9.1501 23.019
9.1652 23.072
9.1804 22.880
9.1956 22.391
9.2108 22.701
9.2259 22.984
9.2411 22.802
9.2563 23.091
9.2715 23.122
9.2866 22.367
9.3018 22.812
9.3170 23.092
9.3322 23.305
9.3473 22.940
9.3625 23.082
9.3777 23.050
9.3929 22.973
9.4080 23.292
9.4232 23.308
9.4384 23.150
9.4536 23.376
9.4687 22.992
9.4839 22.819
9.4991 22.539
9.5143 22.979
9.5294 23.042
9.5446 22.902
9.5598 22.625
9.5750 22.693
9.5901 22.873
9.6053 23.180
9.6205 23.103
9.6357 23.028
9.6508 23.364
9.6660 23.477
9.6812 23.532
9.6964 23.910
9.7115 23.824
9.7267 23.635
9.7419 24.065
9.7571 24.066
9.7722 23.660
9.7874 23.385
9.8026 23.166
9.8178 23.318
9.8329 23.431
9.8481 23.272
9.8633 23.214
9.8785 23.166
9.8936 23.252
9.9088 23.426
9.9240 23.368
9.9392 23.093
9.9543 23.055
9.9695 23.063
9.9847 23.044
9.9999 23.412
10.0150 23.564
10.0302 23.233
10.0454 23.259
10.0606 23.156
10.0757 23.239
10.0909 23.305
10.1061 23.379
10.1213 23.435
10.1364 23.420
10.1516 23.471
10.1668 23.324
10.1820 23.604
10.1971 23.687
10.2123 23.323
10.2275 23.078
10.2427 22.742
10.2578 23.028
10.2730 23.040
10.2882 22.667
10.3034 22.841
10.3185 22.753
10.3337 22.681
10.3489 22.721
10.3641 23.000
10.3792 23.187
10.3944 22.961
10.4096 22.660
10.4248 22.825
10.4399 22.476
10.4551 22.179
10.4703 22.338
10.4855 22.473
10.5006 22.583
10.5158 23.025
10.5310 22.678
10.5462 22.697
10.5613 22.644
10.5765 22.443
10.5917 22.303
10.6069 22.226
10.6220 22.441
10.6372 22.573
10.6524 22.618
10.6676 22.435
10.6827 22.421
10.6979 21.868
10.7131 22.323
10.7283 22.629
10.7434 22.236
10.7586 22.133
10.7738 22.145
10.7890 22.304
10.8041 22.410
10.8193 22.347
10.8345 22.222
10.8497 21.981
10.8648 22.259
10.8800 21.832
10.8952 21.849
10.9104 22.025
10.9255 21.903
10.9407 21.698
10.9559 21.779
10.9711 21.947
10.9862 22.103
11.0014 22.054
11.0166 22.014
11.0318 22.459
11.0469 22.008
11.0621 21.744
11.0773 21.609
11.0925 21.831
11.1076 21.925
11.1228 21.833
11.1380 21.493
11.1532 21.608
11.1683 21.697
11.1835 21.595
11.1987 21.896
11.2139 21.859
11.2290 21.592
11.2442 21.971
11.2594 21.897
11.2746 21.391
11.2897 21.474
11.3049 21.398
11.3201 21.304
11.3353 21.050
11.3504 20.966
11.3656 21.052
11.3808 21.117
11.3960 21.538
11.4111 21.419
11.4263 21.363
11.4415 21.454
11.4567 21.265
11.4718 21.235
11.4870 21.342
11.5022 21.469
11.5174 21.373
11.5325 20.967
11.5477 20.825
11.5629 20.793
11.5781 21.021
11.5932 20.842
11.6084 20.680
11.6236 20.795
11.6388 20.538
11.6539 20.747
11.6691 20.735
11.6843 20.672
11.6995 20.544
11.7146 20.399
11.7298 20.156
11.7450 20.055
11.7602 20.051
11.7753 20.049
11.7905 19.993
11.8057 20.181
11.8209 20.276
11.8360 19.863
11.8512 19.602
11.8664 19.614
11.8816 20.034
11.8967 19.782
11.9119 19.372
11.9271 19.418
11.9423 19.192
11.9574 18.769
11.9726 19.174
11.9878 19.328
12.0030 19.321
12.0181 19.130
12.0333 19.171
12.0485 19.275
12.0637 19.242
12.0788 19.033
12.0940 18.860
12.1092 18.536
12.1244 18.575
12.1395 18.580
12.1547 18.649
12.1699 18.624
12.1851 18.619
12.2002 18.414
12.2154 17.957
12.2306 18.084
12.2458 17.853
12.2609 17.611
12.2761 17.646
12.2913 17.593
12.3065 17.669
12.3216 17.767
12.3368 17.657
12.3520 17.617
12.3672 17.423
12.3823 17.305
12.3975 17.247
12.4127 17.214
12.4279 17.039
12.4430 17.030
12.4582 17.179
12.4734 16.663
12.4886 16.543
12.5037 16.603
12.5189 16.423
12.5341 16.640
12.5493 16.538
12.5644 16.373
12.5796 16.337
12.5948 16.156
12.6100 15.944
12.6251 16.191
12.6403 16.008
12.6555 15.810
12.6707 15.672
12.6858 15.611
12.7010 15.719
12.7162 15.692
12.7314 15.668
12.7465 15.591
12.7617 15.218
12.7769 15.156
12.7921 15.225
12.8072 15.090
12.8224 15.113
12.8376 15.106
12.8528 14.866
12.8679 14.814
12.8831 14.843
12.8983 14.990
12.9135 14.913
12.9286 14.618
12.9438 14.631
12.9590 14.580
12.9742 14.281
12.9893 14.225
13.0045 14.280
13.0197 14.047
13.0349 14.023
13.0500 14.037
13.0652 13.928
13.0804 13.817
13.0956 13.844
13.1107 13.773
13.1259 13.759
13.1411 13.905
13.1563 13.590
13.1714 13.491
13.1866 13.680
13.2018 13.650
13.2170 13.429
13.2321 13.557
13.2473 13.628
13.2625 13.370
13.2777 13.337
13.2928 13.091
13.3080 13.078
13.3232 13.019
13.3384 12.849
13.3535 12.837
13.3687 12.766
13.3839 12.906
13.3991 12.908
13.4142 12.834
13.4294 12.741
13.4446 12.787
13.4598 12.772
13.4749 12.775
13.4901 12.780
13.5053 12.463
13.5205 12.404
13.5356 12.590
13.5508 12.422
13.5660 12.282
13.5812 12.328
13.5963 12.349
13.6115 12.426
13.6267 12.380
13.6419 12.035
13.6570 12.014
13.6722 12.187
13.6874 11.958
13.7026 12.007
13.7177 12.089
13.7329 11.882
13.7481 12.017
13.7633 12.139
13.7784 12.177
13.7936 12.100
13.8088 12.407
13.8239 12.460
13.8391 12.469
13.8543 12.556
13.8695 12.489
13.8846 12.485
13.8998 12.334
13.9150 12.075
13.9302 12.314
13.9453 12.161
13.9605 11.830
13.9757 11.786
13.9909 11.709
14.0060 11.656
14.0212 11.730
14.0364 11.564
14.0516 11.578
14.0667 11.530
14.0819 11.661
14.0971 11.520
14.1123 11.399
14.1274 11.660
14.1426 11.490
14.1578 11.707
14.1730 11.686
14.1881 11.510
14.2033 11.748
14.2185 11.961
14.2337 11.770
14.2488 12.028
14.2640 11.936
14.2792 11.965
14.2944 11.664
14.3095 12.035
14.3247 12.009
14.3399 12.151
14.3551 12.935
14.3702 12.828
14.3854 13.093
14.4006 12.949
14.4158 12.836
14.4309 13.010
14.4461 13.026
14.4613 12.298
14.4765 11.897
14.4916 12.368
14.5068 11.696
14.5220 11.658
14.5372 11.188
14.5523 11.327
14.5675 10.967
14.5827 11.006
14.5979 11.061
14.6130 10.977
14.6282 10.879
14.6434 10.977
14.6586 10.999
14.6737 11.079
14.6889 10.808
14.7041 10.767
14.7193 11.150
14.7344 10.569
14.7496 10.694
14.7648 10.365
14.7800 10.389
14.7951 10.446
14.8103 10.472
14.8255 10.622
14.8407 10.488
14.8558 10.503
14.8710 10.364
14.8862 10.256
14.9014 10.660
14.9165 10.762
14.9317 10.956
14.9469 10.283
14.9621 10.442
14.9772 10.494
14.9924 10.607
15.0076 10.461
15.0228 10.153
15.0379 10.481
15.0531 10.298
15.0683 10.655
15.0835 10.307
15.0986 10.160
15.1138 10.037
15.1290 10.026
15.1442 9.934
15.1593 10.201
15.1745 10.284
15.1897 10.278
15.2049 9.989
15.2200 10.229
15.2352 9.921
15.2504 9.934
15.2656 10.165
15.2807 10.376
15.2959 10.000
15.3111 10.344
15.3263 10.084
15.3414 10.194
15.3566 10.121
15.3718 10.611
15.3870 10.182
15.4021 10.293
15.4173 9.973
15.4325 10.161
15.4477 10.282
15.4628 10.336
15.4780 10.452
15.4932 10.004
15.5084 9.937
15.5235 10.091
15.5387 10.118
15.5539 9.902
15.5691 10.156
15.5842 10.015
15.5994 10.067
15.6146 9.884
15.6298 10.002
15.6449 9.714
15.6601 9.723
15.6753 9.981
15.6905 9.622
15.7056 10.008
15.7208 9.837
15.7360 9.780
15.7512 9.851
15.7663 9.590
15.7815 9.759
15.7967 9.904
15.8119 10.035
15.8270 10.009
15.8422 9.664
15.8574 9.738
15.8726 9.687
15.8877 9.798
15.9029 9.597
15.9181 9.838
15.9333 9.534
15.9484 9.306
15.9636 9.632
15.9788 9.650
15.9940 9.763
16.0091 9.643
16.0243 9.559
16.0395 9.479
16.0547 9.515
16.0698 9.454
16.0850 9.362
16.1002 9.491
16.1154 9.681
16.1305 9.779
16.1457 9.827
16.1609 9.552
16.1761 9.710
16.1912 9.686
16.2064 9.798
16.2216 9.770
16.2368 9.718
16.2519 9.732
16.2671 9.803
16.2823 9.790
16.2975 9.882
16.3126 9.888
16.3278 9.717
16.3430 9.567
16.3582 9.676
16.3733 9.732
16.3885 9.857
16.4037 10.065
16.4189 9.853
16.4340 9.668
16.4492 9.622
16.4644 9.645
16.4796 9.825
16.4947 9.987
16.5099 9.892
16.5251 9.774
16.5403 9.735
16.5554 9.767
16.5706 9.475
16.5858 9.655
16.6010 9.632
16.6161 9.496
16.6313 9.723
16.6465 10.013
16.6617 10.048
16.6768 9.912
16.6920 9.905
16.7072 10.100
16.7224 10.082
16.7375 9.720
16.7527 9.597
16.7679 9.860
16.7831 10.006
16.7982 9.872
16.8134 9.987
16.8286 9.882
16.8438 9.674
16.8589 9.749
16.8741 9.902
16.8893 9.934
16.9045 9.790
16.9196 9.729
16.9348 9.843
16.9500 10.048
16.9652 9.996
16.9803 9.651
16.9955 9.606
17.0107 9.628
17.0259 9.925
17.0410 10.159
17.0562 10.114
17.0714 10.030
17.0866 10.102
17.1017 10.493
17.1169 10.856
17.1321 11.127
17.1473 11.431
17.1624 11.685
17.1776 12.239
17.1928 13.166
17.2080 14.246
17.2231 15.162
17.2383 16.304
17.2535 17.770
17.2687 18.688
17.2838 18.739
17.2990 17.934
17.3142 17.068
17.3294 16.654
17.3445 16.499
17.3597 16.177
17.3749 15.751
17.3901 15.239
17.4052 14.448
17.4204 13.457
17.4356 12.539
17.4508 12.056
17.4659 11.923
17.4811 11.858
17.4963 11.500
17.5115 11.265
17.5266 11.193
17.5418 11.060
17.5570 10.864
17.5722 10.757
17.5873 10.985
17.6025 11.124
17.6177 11.375
17.6329 11.479
17.6480 11.312
17.6632 11.440
17.6784 11.435
17.6936 11.560
17.7087 11.621
17.7239 11.258
17.7391 11.082
17.7543 11.104
17.7694 10.924
17.7846 10.878
17.7998 10.955
17.8150 10.740
17.8301 10.477
17.8453 10.411
17.8605 10.485
17.8757 10.481
17.8908 10.234
17.9060 10.302
17.9212 10.228
17.9364 9.981
17.9515 9.938
17.9667 9.967
17.9819 10.243
17.9971 10.420
18.0122 10.160
18.0274 10.429
18.0426 10.473
18.0578 10.003
18.0729 9.855
18.0881 10.018
18.1033 10.063
18.1185 10.060
18.1336 9.983
18.1488 10.091
18.1640 10.056
18.1792 9.763
18.1943 9.602
18.2095 9.723
18.2247 9.987
18.2399 10.056
18.2550 9.765
18.2702 9.579
18.2854 9.639
18.3006 9.754
18.3157 9.959
18.3309 9.863
18.3461 9.812
18.3613 9.946
18.3764 9.939
18.3916 9.934
18.4068 10.071
18.4220 9.824
18.4371 9.628
18.4523 9.729
18.4675 9.857
18.4827 9.833
18.4978 9.688
18.5130 9.547
18.5282 9.802
18.5434 9.866
18.5585 9.780
18.5737 9.875
18.5889 9.990
18.6041 9.695
18.6192 9.721
18.6344 9.920
18.6496 9.816
18.6648 9.867
18.6799 10.090
18.6951 9.877
18.7103 9.728
18.7255 9.716
18.7406 9.713
18.7558 9.782
18.7710 10.010
18.7862 9.966
18.8013 9.748
18.8165 9.859
18.8317 9.788
18.8469 9.731
18.8620 9.946
18.8772 9.747
18.8924 9.822
18.9076 10.049
18.9227 10.125
18.9379 10.117
18.9531 10.166
18.9683 10.045
18.9834 9.988
18.9986 10.104
19.0138 10.075
19.0290 10.013
19.0441 10.203
19.0593 10.311
19.0745 10.188
19.0897 10.391
19.1048 10.631
19.1200 10.553
19.1352 10.363
19.1504 10.444
19.1655 10.235
19.1807 10.092
19.1959 10.640
19.2111 10.796
19.2262 10.672
19.2414 10.679
19.2566 10.384
19.2718 10.629
19.2869 10.799
19.3021 10.932
19.3173 10.965
19.3325 10.773
19.3476 10.904
19.3628 11.039
19.3780 10.995
19.3932 11.110
19.4083 11.425
19.4235 11.286
19.4387 11.027
19.4539 10.921
19.4690 11.262
19.4842 11.265
19.4994 11.246
19.5146 11.641
19.5297 11.637
19.5449 11.524
19.5601 11.729
19.5753 11.846
19.5904 11.550
19.6056 11.505
19.6208 11.800
19.6360 11.721
19.6511 11.630
19.6663 11.691
19.6815 11.604
19.6967 11.432
19.7118 11.612
19.7270 11.699
19.7422 11.904
19.7574 11.939
19.7725 11.677
19.7877 11.728
19.8029 12.053
19.8180 12.328
19.8332 12.258
19.8484 12.112
19.8636 12.278
19.8787 12.756
19.8939 12.950
19.9091 13.245
19.9243 13.567
19.9394 13.730
19.9546 14.089
19.9698 14.473
19.9850 14.694
20.0001 14.512
20.0153 14.410
20.0305 14.118
20.0457 13.781
20.0608 13.936
20.0760 13.984
20.0912 13.865
20.1064 13.518
20.1215 13.295
20.1367 13.257
20.1519 13.194
20.1671 13.248
20.1822 13.222
20.1974 13.006
20.2126 12.626
20.2278 12.484
20.2429 12.472
20.2581 12.446
20.2733 12.037
20.2885 11.934
20.3036 12.026
20.3188 11.674
20.3340 11.845
20.3492 12.176
20.3643 11.911
20.3795 11.879
20.3947 11.804
20.4099 11.807
20.4250 12.042
20.4402 11.874
20.4554 11.841
20.4706 11.953
20.4857 11.754
20.5009 11.837
20.5161 11.630
20.5313 11.171
20.5464 11.436
20.5616 11.498
20.5768 11.314
20.5920 11.300
20.6071 11.059
20.6223 11.183
20.6375 11.007
20.6527 10.796
20.6678 10.686
20.6830 10.484
20.6982 10.397
20.7134 10.659
20.7285 10.854
20.7437 10.576
20.7589 10.301
20.7741 10.397
20.7892 10.312
20.8044 10.409
20.8196 10.719
20.8348 10.329
20.8499 10.019
20.8651 10.270
20.8803 10.345
20.8955 10.144
20.9106 9.997
20.9258 9.997
20.9410 10.211
20.9562 10.141
20.9713 9.988
20.9865 10.168
21.0017 10.104
21.0169 10.142
21.0320 10.288
21.0472 10.232
21.0624 10.122
21.0776 9.935
21.0927 9.852
21.1079 10.015
21.1231 9.805
21.1383 9.602
21.1534 9.884
21.1686 10.128
21.1838 9.644
21.1990 9.980
21.2141 10.084
21.2293 9.735
21.2445 9.815
21.2597 9.529
21.2748 9.471
21.2900 9.413
21.3052 9.346
21.3204 9.628
21.3355 9.595
21.3507 9.469
21.3659 9.350
21.3811 9.782
21.3962 9.661
21.4114 9.381
21.4266 9.400
21.4418 9.150
21.4569 9.346
21.4721 9.531
21.4873 9.244
21.5025 9.013
21.5176 9.374
21.5328 9.369
21.5480 9.024
21.5632 9.072
21.5783 9.235
21.5935 9.627
21.6087 9.418
21.6239 9.196
21.6390 8.935
21.6542 8.994
21.6694 9.292
21.6846 9.146
21.6997 9.223
21.7149 9.305
21.7301 9.077
21.7453 9.155
21.7604 9.033
21.7756 8.887
21.7908 9.024
21.8060 9.005
21.8211 9.048
21.8363 9.048
21.8515 9.007
21.8667 9.168
21.8818 8.978
21.8970 9.079
21.9122 8.984
21.9274 8.841
21.9425 8.972
21.9577 9.060
21.9729 8.888
21.9881 8.777
22.0032 8.922
22.0184 8.831
22.0336 8.798
22.0488 8.810
22.0639 8.750
22.0791 8.698
22.0943 8.938
22.1095 8.809
22.1246 8.447
22.1398 8.652
22.1550 8.697
22.1702 8.414
22.1853 8.665
22.2005 8.604
22.2157 8.368
22.2309 8.357
22.2460 8.430
22.2612 8.415
22.2764 8.436
22.2916 8.301
22.3067 8.471
22.3219 8.544
22.3371 8.822
22.3523 8.651
22.3674 8.319
22.3826 8.720
22.3978 8.494
22.4130 8.428
22.4281 8.398
22.4433 8.470
22.4585 8.317
22.4737 8.177
22.4888 8.452
22.5040 8.553
22.5192 8.617
22.5344 8.508
22.5495 8.361
22.5647 8.546
22.5799 8.576
22.5951 8.625
22.6102 8.444
22.6254 8.180
22.6406 8.601
22.6558 8.159
22.6709 8.581
22.6861 8.814
22.7013 8.137
22.7165 7.978
22.7316 6.475
