'Id: "" Comment: "" Operator: "Lab Manager" Anode: "Mo" Scantype: "Still (Eiger2R_500K (1D mode))" TimePerStep: "300" X: "11.8" Y: "9.4" Z: "11.284" 
7.2532 18.517
7.2684 18.717
7.2836 18.300
7.2987 18.401
7.3139 18.814
7.3291 19.062
7.3443 18.877
7.3594 19.437
7.3746 19.035
7.3898 18.635
7.4050 19.082
7.4201 19.162
7.4353 19.486
7.4505 19.141
7.4657 19.043
7.4808 19.724
7.4960 19.450
7.5112 19.818
7.5264 19.761
7.5415 19.701
7.5567 19.756
7.5719 19.457
7.5871 19.739
7.6022 19.801
7.6174 19.827
7.6326 19.625
7.6478 19.937
7.6629 20.104
7.6781 20.210
7.6933 20.278
7.7085 20.596
7.7236 20.817
7.7388 20.463
7.7540 20.052
7.7692 20.031
7.7843 20.554
7.7995 20.653
7.8147 20.388
7.8299 20.428
7.8450 20.365
7.8602 20.513
7.8754 20.765
7.8905 20.888
7.9057 20.988
7.9209 21.227
7.9361 21.185
7.9512 21.161
7.9664 20.770
7.9816 20.561
7.9968 20.793
8.0119 21.109
8.0271 21.007
8.0423 20.686
8.0575 21.044
8.0726 21.133
8.0878 21.180
8.1030 21.233
8.1182 21.071
8.1333 21.193
8.1485 21.554
8.1637 21.267
8.1789 20.916
8.1940 21.279
8.2092 21.170
8.2244 21.482
8.2396 21.368
8.2547 20.989
8.2699 21.304
8.2851 21.514
8.3003 20.974
8.3154 21.126
8.3306 21.285
8.3458 21.549
8.3610 21.697
8.3761 21.396
8.3913 21.500
8.4065 21.243
8.4217 21.648
8.4368 21.521
8.4520 21.808
8.4672 21.834
8.4824 21.883
8.4975 21.586
8.5127 22.311
8.5279 21.985
8.5431 22.172
8.5582 21.794
8.5734 22.662
8.5886 22.107
8.6038 21.784
8.6189 22.109
8.6341 22.120
8.6493 21.865
8.6645 21.499
8.6796 21.625
8.6948 22.162
8.7100 22.626
8.7252 22.395
8.7403 22.056
8.7555 22.100
8.7707 22.103
8.7859 22.397
8.8010 21.823
8.8162 22.090
8.8314 22.678
8.8466 22.379
8.8617 22.432
8.8769 22.852
8.8921 22.498
8.9073 22.154
8.9224 21.890
8.9376 22.180
8.9528 22.643
8.9680 21.959
8.9831 22.539
8.9983 22.586
9.0135 22.423
9.0287 22.446
9.0438 22.059
9.0590 22.880
9.0742 22.138
9.0894 22.293
9.1045 22.689
9.1197 22.927
9.1349 22.738
9.1501 22.838
9.1652 22.918
9.1804 22.913
9.1956 22.593
9.2108 22.625
9.2259 22.880
9.2411 22.964
9.2563 22.870
9.2715 22.778
9.2866 22.421
9.3018 22.419
9.3170 22.766
9.3322 22.932
9.3473 22.651
9.3625 22.758
9.3777 23.027
9.3929 22.906
9.4080 23.132
9.4232 23.045
9.4384 22.968
9.4536 23.037
9.4687 22.773
9.4839 22.939
9.4991 23.173
9.5143 23.019
9.5294 23.274
9.5446 23.161
9.5598 23.091
9.5750 23.250
9.5901 23.121
9.6053 23.130
9.6205 23.063
9.6357 22.944
9.6508 23.200
9.6660 23.492
9.6812 23.664
9.6964 23.829
9.7115 23.741
9.7267 23.781
9.7419 23.948
9.7571 23.645
9.7722 23.318
9.7874 23.340
9.8026 23.471
9.8178 23.531
9.8329 23.218
9.8481 23.121
9.8633 23.382
9.8785 23.241
9.8936 23.146
9.9088 23.132
9.9240 23.329
9.9392 23.197
9.9543 23.145
9.9695 23.520
9.9847 23.204
9.9999 23.028
10.0150 23.366
10.0302 23.347
10.0454 23.393
10.0606 23.061
10.0757 22.788
10.0909 23.053
10.1061 22.925
10.1213 22.898
10.1364 22.990
10.1516 23.013
10.1668 23.145
10.1820 23.277
10.1971 23.007
10.2123 23.020
10.2275 23.322
10.2427 23.457
10.2578 22.975
10.2730 23.192
10.2882 22.978
10.3034 22.405
10.3185 22.310
10.3337 22.595
10.3489 22.686
10.3641 22.592
10.3792 22.519
10.3944 22.699
10.4096 22.534
10.4248 22.223
10.4399 22.437
10.4551 22.382
10.4703 22.609
10.4855 22.594
10.5006 22.592
10.5158 22.373
10.5310 22.159
10.5462 22.477
10.5613 22.555
10.5765 22.388
10.5917 22.408
10.6069 22.482
10.6220 22.541
10.6372 22.306
10.6524 22.299
10.6676 22.482
10.6827 22.521
10.6979 22.503
10.7131 22.645
10.7283 22.419
10.7434 22.382
10.7586 22.332
10.7738 22.248
10.7890 22.726
10.8041 22.765
10.8193 22.110
10.8345 22.000
10.8497 22.266
10.8648 22.153
10.8800 21.736
10.8952 22.266
10.9104 21.740
10.9255 21.862
10.9407 21.762
10.9559 21.648
10.9711 21.801
10.9862 22.144
11.0014 22.007
11.0166 21.878
11.0318 22.496
11.0469 21.848
11.0621 21.583
11.0773 21.857
11.0925 21.693
11.1076 21.476
11.1228 21.467
11.1380 21.367
11.1532 21.467
11.1683 21.689
11.1835 21.558
11.1987 21.210
11.2139 21.319
11.2290 21.229
11.2442 21.370
11.2594 21.603
11.2746 21.567
11.2897 21.672
11.3049 21.530
11.3201 21.438
11.3353 21.605
11.3504 21.495
11.3656 21.338
11.3808 21.097
11.3960 21.056
11.4111 21.106
11.4263 20.949
11.4415 21.052
11.4567 21.177
11.4718 21.437
11.4870 21.126
11.5022 20.975
11.5174 20.832
11.5325 20.626
11.5477 20.748
11.5629 20.835
11.5781 20.813
11.5932 20.693
11.6084 20.566
11.6236 20.549
11.6388 20.600
11.6539 20.753
11.6691 20.428
11.6843 20.490
11.6995 20.300
11.7146 20.670
11.7298 20.730
11.7450 20.493
11.7602 20.327
11.7753 20.167
11.7905 20.105
11.8057 19.918
11.8209 20.111
11.8360 19.835
11.8512 19.628
11.8664 19.854
11.8816 19.783
11.8967 19.370
11.9119 19.874
11.9271 19.695
11.9423 19.339
11.9574 19.306
11.9726 19.353
11.9878 19.435
12.0030 19.388
12.0181 19.137
12.0333 18.834
12.0485 18.891
12.0637 18.889
12.0788 18.594
12.0940 18.430
12.1092 18.648
12.1244 19.002
12.1395 18.806
12.1547 18.467
12.1699 18.197
12.1851 18.576
12.2002 18.580
12.2154 18.027
12.2306 18.408
12.2458 18.136
12.2609 17.753
12.2761 17.877
12.2913 17.830
12.3065 17.657
12.3216 17.740
12.3368 17.490
12.3520 17.301
12.3672 17.195
12.3823 17.191
12.3975 17.233
12.4127 17.151
12.4279 17.127
12.4430 17.217
12.4582 16.893
12.4734 16.507
12.4886 16.641
12.5037 16.787
12.5189 16.826
12.5341 16.544
12.5493 16.167
12.5644 16.077
12.5796 16.064
12.5948 16.140
12.6100 16.142
12.6251 16.254
12.6403 16.326
12.6555 16.066
12.6707 15.829
12.6858 15.648
12.7010 15.750
12.7162 15.555
12.7314 15.613
12.7465 15.461
12.7617 15.361
12.7769 15.386
12.7921 15.204
12.8072 15.123
12.8224 14.956
12.8376 14.729
12.8528 14.804
12.8679 14.970
12.8831 14.788
12.8983 14.633
12.9135 14.829
12.9286 14.661
12.9438 14.539
12.9590 14.650
12.9742 14.326
12.9893 14.224
13.0045 14.329
13.0197 14.303
13.0349 14.339
13.0500 14.205
13.0652 14.169
13.0804 14.014
13.0956 13.859
13.1107 13.705
13.1259 13.540
13.1411 13.543
13.1563 13.435
13.1714 13.377
13.1866 13.451
13.2018 13.438
13.2170 13.372
13.2321 13.419
13.2473 13.118
13.2625 12.985
13.2777 13.080
13.2928 13.081
13.3080 13.279
13.3232 13.169
13.3384 12.924
13.3535 12.918
13.3687 12.918
13.3839 12.904
13.3991 12.823
13.4142 12.572
13.4294 12.615
13.4446 12.803
13.4598 12.948
13.4749 12.754
13.4901 12.472
13.5053 12.523
13.5205 12.308
13.5356 12.423
13.5508 12.667
13.5660 12.392
13.5812 12.156
13.5963 12.258
13.6115 12.256
13.6267 12.279
13.6419 12.202
13.6570 11.985
13.6722 11.968
13.6874 12.072
13.7026 12.077
13.7177 12.245
13.7329 12.274
13.7481 11.820
13.7633 12.182
13.7784 12.528
13.7936 12.192
13.8088 11.922
13.8239 12.080
13.8391 12.278
13.8543 12.482
13.8695 12.337
13.8846 12.373
13.8998 12.198
13.9150 12.046
13.9302 11.724
13.9453 11.726
13.9605 11.931
13.9757 12.078
13.9909 11.815
14.0060 11.917
14.0212 11.753
14.0364 11.581
14.0516 11.690
14.0667 11.791
14.0819 11.758
14.0971 11.768
14.1123 11.794
14.1274 11.765
14.1426 11.956
14.1578 11.908
14.1730 11.882
14.1881 11.761
14.2033 11.595
14.2185 11.756
14.2337 11.788
14.2488 11.701
14.2640 11.905
14.2792 12.147
14.2944 12.258
14.3095 12.182
14.3247 12.069
14.3399 12.206
14.3551 12.478
14.3702 12.530
14.3854 12.949
14.4006 13.162
14.4158 12.931
14.4309 12.886
14.4461 12.493
14.4613 12.609
14.4765 12.249
14.4916 12.074
14.5068 12.025
14.5220 11.305
14.5372 11.572
14.5523 11.298
14.5675 10.915
14.5827 11.259
14.5979 10.997
14.6130 10.662
14.6282 10.711
14.6434 10.817
14.6586 10.906
14.6737 10.858
14.6889 10.801
14.7041 10.645
14.7193 10.712
14.7344 10.818
14.7496 10.690
14.7648 10.790
14.7800 10.779
14.7951 10.449
14.8103 10.374
14.8255 10.290
14.8407 10.324
14.8558 10.388
14.8710 10.753
14.8862 10.557
14.9014 10.262
14.9165 10.785
14.9317 10.572
14.9469 10.261
14.9621 10.479
14.9772 10.382
14.9924 10.277
15.0076 10.373
15.0228 10.427
15.0379 10.416
15.0531 10.332
15.0683 9.874
15.0835 10.245
15.0986 10.284
15.1138 10.503
15.1290 10.105
15.1442 9.988
15.1593 10.256
15.1745 10.266
15.1897 10.171
15.2049 9.982
15.2200 10.211
15.2352 10.176
15.2504 10.019
15.2656 9.915
15.2807 9.805
15.2959 9.971
15.3111 9.936
15.3263 10.056
15.3414 10.416
15.3566 10.293
15.3718 9.746
15.3870 9.851
15.4021 10.153
15.4173 10.018
15.4325 10.121
15.4477 9.864
15.4628 10.231
15.4780 10.254
15.4932 10.164
15.5084 10.128
15.5235 9.832
15.5387 9.791
15.5539 10.084
15.5691 9.822
15.5842 9.767
15.5994 9.757
15.6146 9.928
15.6298 9.970
15.6449 9.672
15.6601 9.730
15.6753 9.497
15.6905 9.530
15.7056 9.532
15.7208 9.902
15.7360 9.620
15.7512 9.639
15.7663 9.636
15.7815 9.727
15.7967 9.720
15.8119 9.539
15.8270 9.606
15.8422 9.609
15.8574 9.598
15.8726 9.675
15.8877 9.634
15.9029 9.402
15.9181 9.503
15.9333 9.731
15.9484 9.448
15.9636 9.469
15.9788 9.681
15.9940 9.579
16.0091 9.735
16.0243 9.554
16.0395 9.515
16.0547 9.517
16.0698 9.715
16.0850 9.892
16.1002 9.564
16.1154 9.624
16.1305 9.573
16.1457 9.545
16.1609 9.750
16.1761 9.253
16.1912 9.725
16.2064 9.691
16.2216 9.754
16.2368 10.086
16.2519 9.776
16.2671 9.805
16.2823 9.616
16.2975 9.604
16.3126 9.799
16.3278 9.759
16.3430 9.923
16.3582 9.727
16.3733 9.969
16.3885 9.836
16.4037 9.835
16.4189 9.808
16.4340 9.772
16.4492 9.525
16.4644 9.459
16.4796 9.718
16.4947 9.889
16.5099 9.646
16.5251 9.467
16.5403 9.519
16.5554 9.558
16.5706 9.750
16.5858 9.608
16.6010 9.414
16.6161 9.410
16.6313 9.420
16.6465 9.613
16.6617 9.735
16.6768 9.838
16.6920 9.852
16.7072 9.970
16.7224 9.950
16.7375 9.980
16.7527 10.105
16.7679 10.075
16.7831 9.814
16.7982 9.825
16.8134 9.833
16.8286 9.591
16.8438 9.495
16.8589 9.587
16.8741 9.773
16.8893 9.805
16.9045 9.611
16.9196 9.564
16.9348 9.812
16.9500 9.723
16.9652 9.593
16.9803 9.872
16.9955 9.878
17.0107 9.864
17.0259 10.013
17.0410 10.030
17.0562 10.001
17.0714 10.097
17.0866 10.120
17.1017 10.384
17.1169 10.659
17.1321 11.027
17.1473 11.492
17.1624 11.881
17.1776 12.216
17.1928 12.856
17.2080 13.825
17.2231 14.874
17.2383 16.135
17.2535 17.365
17.2687 18.219
17.2838 18.415
17.2990 17.937
17.3142 17.028
17.3294 16.079
17.3445 15.826
17.3597 16.319
17.3749 16.260
17.3901 15.543
17.4052 14.471
17.4204 13.478
17.4356 12.962
17.4508 12.262
17.4659 11.785
17.4811 11.635
17.4963 11.385
17.5115 11.202
17.5266 11.164
17.5418 11.205
17.5570 11.231
17.5722 11.010
17.5873 10.929
17.6025 11.025
17.6177 10.993
17.6329 11.109
17.6480 11.386
17.6632 11.628
17.6784 11.730
17.6936 11.635
17.7087 11.392
17.7239 11.321
17.7391 11.255
17.7543 11.201
17.7694 11.140
17.7846 11.293
17.7998 11.260
17.8150 10.889
17.8301 10.474
17.8453 10.371
17.8605 10.525
17.8757 10.200
17.8908 9.991
17.9060 10.403
17.9212 10.198
17.9364 10.011
17.9515 10.214
17.9667 10.180
17.9819 10.202
17.9971 10.136
18.0122 10.123
18.0274 10.138
18.0426 10.242
18.0578 10.071
18.0729 9.825
18.0881 9.841
18.1033 9.916
18.1185 9.995
18.1336 10.035
18.1488 10.025
18.1640 10.130
18.1792 10.175
18.1943 10.037
18.2095 9.696
18.2247 9.852
18.2399 10.113
18.2550 9.983
18.2702 9.765
18.2854 9.749
18.3006 9.785
18.3157 9.935
18.3309 9.949
18.3461 9.728
18.3613 9.890
18.3764 9.873
18.3916 9.737
18.4068 9.891
18.4220 9.952
18.4371 9.763
18.4523 9.638
18.4675 9.649
18.4827 9.584
18.4978 9.689
18.5130 9.757
18.5282 9.658
18.5434 9.822
18.5585 9.896
18.5737 9.931
18.5889 9.934
18.6041 9.726
18.6192 9.391
18.6344 9.564
18.6496 9.707
18.6648 9.914
18.6799 10.190
18.6951 9.749
18.7103 9.649
18.7255 9.759
18.7406 9.859
18.7558 9.768
18.7710 9.630
18.7862 9.771
18.8013 9.661
18.8165 9.405
18.8317 9.742
18.8469 10.049
18.8620 9.963
18.8772 9.849
18.8924 9.892
18.9076 10.038
18.9227 10.093
18.9379 10.093
18.9531 10.035
18.9683 9.879
18.9834 10.043
18.9986 10.276
19.0138 10.003
19.0290 9.908
19.0441 10.079
19.0593 10.313
19.0745 10.281
19.0897 10.323
19.1048 10.344
19.1200 10.196
19.1352 10.228
19.1504 10.400
19.1655 10.509
19.1807 10.605
19.1959 10.794
19.2111 10.767
19.2262 10.687
19.2414 10.706
19.2566 10.861
19.2718 10.960
19.2869 11.068
19.3021 10.857
19.3173 10.723
19.3325 11.023
19.3476 11.181
19.3628 11.241
19.3780 11.256
19.3932 11.294
19.4083 11.353
19.4235 11.364
19.4387 11.343
19.4539 11.274
19.4690 11.440
19.4842 11.334
19.4994 11.450
19.5146 11.585
19.5297 11.639
19.5449 11.626
19.5601 11.553
19.5753 11.602
19.5904 11.757
19.6056 11.819
19.6208 11.699
19.6360 11.568
19.6511 11.543
19.6663 11.534
19.6815 11.538
19.6967 11.645
19.7118 11.809
19.7270 11.827
19.7422 11.701
19.7574 11.706
19.7725 11.867
19.7877 11.884
19.8029 11.980
19.8180 12.161
19.8332 12.206
19.8484 12.192
19.8636 12.370
19.8787 12.686
19.8939 12.880
19.9091 13.110
19.9243 13.462
19.9394 13.938
19.9546 14.339
19.9698 14.604
19.9850 14.720
20.0001 14.714
20.0153 14.491
20.0305 14.189
20.0457 13.862
20.0608 13.680
20.0760 13.751
20.0912 13.670
20.1064 13.532
20.1215 13.544
20.1367 13.616
20.1519 13.225
20.1671 13.041
20.1822 12.991
20.1974 12.824
20.2126 12.583
20.2278 12.663
20.2429 12.646
20.2581 12.752
20.2733 12.450
20.2885 12.082
20.3036 12.178
20.3188 12.184
20.3340 12.052
20.3492 12.143
20.3643 12.270
20.3795 12.088
20.3947 12.007
20.4099 11.997
20.4250 11.565
20.4402 11.631
20.4554 11.782
20.4706 11.750
20.4857 11.636
20.5009 11.563
20.5161 11.514
20.5313 11.246
20.5464 11.174
20.5616 11.275
20.5768 11.299
20.5920 11.329
20.6071 11.146
20.6223 10.995
20.6375 11.232
20.6527 10.994
20.6678 10.903
20.6830 10.779
20.6982 10.553
20.7134 10.380
20.7285 10.266
20.7437 10.341
20.7589 10.279
20.7741 10.243
20.7892 10.238
20.8044 10.152
20.8196 10.307
20.8348 10.390
20.8499 10.360
20.8651 10.235
20.8803 10.415
20.8955 9.873
20.9106 10.194
20.9258 10.255
20.9410 10.067
20.9562 9.921
20.9713 10.253
20.9865 9.957
21.0017 10.224
21.0169 10.189
21.0320 9.777
21.0472 9.854
21.0624 9.764
21.0776 9.827
21.0927 10.089
21.1079 9.977
21.1231 9.775
21.1383 10.209
21.1534 9.901
21.1686 9.828
21.1838 9.804
21.1990 9.584
21.2141 9.866
21.2293 9.605
21.2445 10.019
21.2597 9.709
21.2748 9.650
21.2900 9.606
21.3052 9.451
21.3204 9.310
21.3355 9.612
21.3507 9.541
21.3659 9.690
21.3811 9.554
21.3962 9.582
21.4114 9.511
21.4266 9.389
21.4418 9.346
21.4569 9.338
21.4721 9.624
21.4873 9.312
21.5025 9.349
21.5176 9.327
21.5328 9.235
21.5480 9.386
21.5632 9.276
21.5783 9.310
21.5935 9.495
21.6087 9.325
21.6239 9.273
21.6390 9.014
21.6542 9.023
21.6694 8.903
21.6846 8.904
21.6997 9.165
21.7149 9.210
21.7301 9.502
21.7453 8.965
21.7604 8.859
21.7756 8.958
21.7908 9.087
21.8060 9.015
21.8211 8.933
21.8363 8.898
21.8515 9.091
21.8667 9.227
21.8818 9.137
21.8970 9.080
21.9122 8.928
21.9274 8.610
21.9425 8.722
21.9577 8.864
21.9729 8.731
21.9881 8.715
22.0032 8.770
22.0184 8.772
22.0336 8.858
22.0488 8.938
22.0639 8.767
22.0791 8.619
22.0943 8.652
22.1095 8.656
22.1246 8.765
22.1398 8.759
22.1550 8.535
22.1702 8.366
22.1853 8.464
22.2005 8.761
22.2157 8.806
22.2309 8.818
22.2460 8.453
22.2612 8.368
22.2764 8.521
22.2916 8.418
22.3067 8.524
22.3219 8.512
22.3371 8.512
22.3523 8.666
22.3674 8.565
22.3826 8.311
22.3978 8.363
22.4130 8.400
22.4281 8.551
22.4433 8.401
22.4585 8.450
22.4737 8.441
22.4888 8.605
22.5040 8.402
22.5192 8.474
22.5344 8.451
22.5495 8.451
22.5647 8.357
22.5799 8.358
22.5951 8.330
22.6102 8.288
22.6254 8.198
22.6406 8.439
22.6558 8.288
22.6709 8.325
22.6861 8.451
22.7013 8.362
22.7165 7.838
22.7316 6.256
