'Id: "" Comment: "" Operator: "Lab Manager" Anode: "Mo" Scantype: "Still (Eiger2R_500K (1D mode))" TimePerStep: "300" X: "11.8" Y: "9.4" Z: "11.284" 
7.2532 18.784
7.2684 19.197
7.2836 19.040
7.2987 19.245
7.3139 19.647
7.3291 19.283
7.3443 19.714
7.3594 19.546
7.3746 19.376
7.3898 19.551
7.4050 19.973
7.4201 19.540
7.4353 19.376
7.4505 19.457
7.4657 19.431
7.4808 19.663
7.4960 19.510
7.5112 19.654
7.5264 19.991
7.5415 20.318
7.5567 20.213
7.5719 19.977
7.5871 20.043
7.6022 20.161
7.6174 20.292
7.6326 20.302
7.6478 19.948
7.6629 20.069
7.6781 20.307
7.6933 20.689
7.7085 20.358
7.7236 20.333
7.7388 20.463
7.7540 20.487
7.7692 20.284
7.7843 20.631
7.7995 20.838
7.8147 20.665
7.8299 20.699
7.8450 20.879
7.8602 20.848
7.8754 20.934
7.8905 21.083
7.9057 21.085
7.9209 21.352
7.9361 21.069
7.9512 20.846
7.9664 21.209
7.9816 21.067
7.9968 21.195
8.0119 21.075
8.0271 21.090
8.0423 21.096
8.0575 21.494
8.0726 21.337
8.0878 21.503
8.1030 21.574
8.1182 21.536
8.1333 21.781
8.1485 21.759
8.1637 21.972
8.1789 21.612
8.1940 21.331
8.2092 21.640
8.2244 21.689
8.2396 21.568
8.2547 21.930
8.2699 22.042
8.2851 21.967
8.3003 21.742
8.3154 21.892
8.3306 21.680
8.3458 21.733
8.3610 21.914
8.3761 21.770
8.3913 21.989
8.4065 22.063
8.4217 21.927
8.4368 21.871
8.4520 21.826
8.4672 21.879
8.4824 21.899
8.4975 21.869
8.5127 21.984
8.5279 22.063
8.5431 22.454
8.5582 22.394
8.5734 22.589
8.5886 22.384
8.6038 22.000
8.6189 22.245
8.6341 22.079
8.6493 22.318
8.6645 22.405
8.6796 22.344
8.6948 22.426
8.7100 21.938
8.7252 22.537
8.7403 22.518
8.7555 22.392
8.7707 22.384
8.7859 22.574
8.8010 22.362
8.8162 22.248
8.8314 22.407
8.8466 22.718
8.8617 22.771
8.8769 22.667
8.8921 23.210
8.9073 22.726
8.9224 22.877
8.9376 22.294
8.9528 22.358
8.9680 22.974
8.9831 22.799
8.9983 22.456
9.0135 22.928
9.0287 22.479
9.0438 22.594
9.0590 22.922
9.0742 22.977
9.0894 22.515
9.1045 22.732
9.1197 22.626
9.1349 23.018
9.1501 22.864
9.1652 22.969
9.1804 22.760
9.1956 22.899
9.2108 23.111
9.2259 23.034
9.2411 22.994
9.2563 23.053
9.2715 23.039
9.2866 23.127
9.3018 23.261
9.3170 23.276
9.3322 22.781
9.3473 23.236
9.3625 23.154
9.3777 23.260
9.3929 23.075
9.4080 23.142
9.4232 23.178
9.4384 23.120
9.4536 23.072
9.4687 23.149
9.4839 23.155
9.4991 23.399
9.5143 23.304
9.5294 23.146
9.5446 23.012
9.5598 22.943
9.5750 23.183
9.5901 23.477
9.6053 23.454
9.6205 23.565
9.6357 23.679
9.6508 23.727
9.6660 23.794
9.6812 23.952
9.6964 24.061
9.7115 24.002
9.7267 24.319
9.7419 24.471
9.7571 24.352
9.7722 23.894
9.7874 24.063
9.8026 23.956
9.8178 23.675
9.8329 23.606
9.8481 23.613
9.8633 23.842
9.8785 23.970
9.8936 24.035
9.9088 24.065
9.9240 24.172
9.9392 24.172
9.9543 23.996
9.9695 23.954
9.9847 23.869
9.9999 23.860
10.0150 23.856
10.0302 23.626
10.0454 23.571
10.0606 23.786
10.0757 23.775
10.0909 23.377
10.1061 23.114
10.1213 23.225
10.1364 23.482
10.1516 23.550
10.1668 23.506
10.1820 23.575
10.1971 23.512
10.2123 23.597
10.2275 23.750
10.2427 23.820
10.2578 23.597
10.2730 23.692
10.2882 23.657
10.3034 23.574
10.3185 23.591
10.3337 23.486
10.3489 23.170
10.3641 23.247
10.3792 23.409
10.3944 23.450
10.4096 23.487
10.4248 23.152
10.4399 23.072
10.4551 23.211
10.4703 23.295
10.4855 22.684
10.5006 22.701
10.5158 23.298
10.5310 23.030
10.5462 22.690
10.5613 22.689
10.5765 22.770
10.5917 22.579
10.6069 22.649
10.6220 22.987
10.6372 22.785
10.6524 22.960
10.6676 22.990
10.6827 22.554
10.6979 22.707
10.7131 22.634
10.7283 22.694
10.7434 22.129
10.7586 22.527
10.7738 22.451
10.7890 22.436
10.8041 22.316
10.8193 22.411
10.8345 22.380
10.8497 22.553
10.8648 22.144
10.8800 22.297
10.8952 22.257
10.9104 22.176
10.9255 21.976
10.9407 22.076
10.9559 22.211
10.9711 21.831
10.9862 21.995
11.0014 22.246
11.0166 22.343
11.0318 22.059
11.0469 21.344
11.0621 21.673
11.0773 21.651
11.0925 21.934
11.1076 21.765
11.1228 21.793
11.1380 21.887
11.1532 21.445
11.1683 21.883
11.1835 22.048
11.1987 21.450
11.2139 21.538
11.2290 21.466
11.2442 21.191
11.2594 21.386
11.2746 21.249
11.2897 21.571
11.3049 21.743
11.3201 21.758
11.3353 21.668
11.3504 21.653
11.3656 21.591
11.3808 21.447
11.3960 21.519
11.4111 21.461
11.4263 21.641
11.4415 20.967
11.4567 20.877
11.4718 21.141
11.4870 21.593
11.5022 21.434
11.5174 21.208
11.5325 21.150
11.5477 21.260
11.5629 21.249
11.5781 21.297
11.5932 21.144
11.6084 20.933
11.6236 20.754
11.6388 20.820
11.6539 20.708
11.6691 20.692
11.6843 20.586
11.6995 20.393
11.7146 20.715
11.7298 20.650
11.7450 20.460
11.7602 20.252
11.7753 19.987
11.7905 20.308
11.8057 19.921
11.8209 20.024
11.8360 20.002
11.8512 19.775
11.8664 19.776
11.8816 19.918
11.8967 20.162
11.9119 19.942
11.9271 19.661
11.9423 19.220
11.9574 19.176
11.9726 19.320
11.9878 19.068
12.0030 19.052
12.0181 19.052
12.0333 19.212
12.0485 19.195
12.0637 18.756
12.0788 18.939
12.0940 18.825
12.1092 18.493
12.1244 18.519
12.1395 18.559
12.1547 18.410
12.1699 18.106
12.1851 18.422
12.2002 18.432
12.2154 18.171
12.2306 18.121
12.2458 17.874
12.2609 17.981
12.2761 18.019
12.2913 18.072
12.3065 17.658
12.3216 17.628
12.3368 17.327
12.3520 17.350
12.3672 17.495
12.3823 17.330
12.3975 17.142
12.4127 17.162
12.4279 17.095
12.4430 16.847
12.4582 16.714
12.4734 16.814
12.4886 16.567
12.5037 16.420
12.5189 16.713
12.5341 16.498
12.5493 16.259
12.5644 16.232
12.5796 16.187
12.5948 15.935
12.6100 15.756
12.6251 15.700
12.6403 15.493
12.6555 15.580
12.6707 15.558
12.6858 15.694
12.7010 15.477
12.7162 15.341
12.7314 15.583
12.7465 15.405
12.7617 15.270
12.7769 15.110
12.7921 15.063
12.8072 14.969
12.8224 14.761
12.8376 14.981
12.8528 15.023
12.8679 14.785
12.8831 14.516
12.8983 14.481
12.9135 14.536
12.9286 14.644
12.9438 14.688
12.9590 14.620
12.9742 14.497
12.9893 14.052
13.0045 13.985
13.0197 14.382
13.0349 14.365
13.0500 13.826
13.0652 13.657
13.0804 13.588
13.0956 13.463
13.1107 13.615
13.1259 13.659
13.1411 13.598
13.1563 13.702
13.1714 13.813
13.1866 13.605
13.2018 13.400
13.2170 13.250
13.2321 13.462
13.2473 13.667
13.2625 13.491
13.2777 13.637
13.2928 13.486
13.3080 12.994
13.3232 12.914
13.3384 12.949
13.3535 12.912
13.3687 13.028
13.3839 12.971
13.3991 12.980
13.4142 13.202
13.4294 13.066
13.4446 12.748
13.4598 12.391
13.4749 12.397
13.4901 12.444
13.5053 12.568
13.5205 12.506
13.5356 12.218
13.5508 12.448
13.5660 12.404
13.5812 12.233
13.5963 12.148
13.6115 12.258
13.6267 12.262
13.6419 12.040
13.6570 11.983
13.6722 12.205
13.6874 12.326
13.7026 12.180
13.7177 12.128
13.7329 12.100
13.7481 12.020
13.7633 12.105
13.7784 12.183
13.7936 12.277
13.8088 12.463
13.8239 12.304
13.8391 12.099
13.8543 12.250
13.8695 12.335
13.8846 12.445
13.8998 12.152
13.9150 11.905
13.9302 12.130
13.9453 11.739
13.9605 11.753
13.9757 11.772
13.9909 11.690
14.0060 11.304
14.0212 11.280
14.0364 11.293
14.0516 11.409
14.0667 11.252
14.0819 11.285
14.0971 11.377
14.1123 11.424
14.1274 11.152
14.1426 11.385
14.1578 11.448
14.1730 11.223
14.1881 11.344
14.2033 11.254
14.2185 11.154
14.2337 11.714
14.2488 11.321
14.2640 11.178
14.2792 11.433
14.2944 11.699
14.3095 11.749
14.3247 11.779
14.3399 11.793
14.3551 11.995
14.3702 12.310
14.3854 12.552
14.4006 12.985
14.4158 13.133
14.4309 13.152
14.4461 13.185
14.4613 13.184
14.4765 13.449
14.4916 13.301
14.5068 13.441
14.5220 13.390
14.5372 13.055
14.5523 12.927
14.5675 12.898
14.5827 12.464
14.5979 12.473
14.6130 12.118
14.6282 11.882
14.6434 12.137
14.6586 11.885
14.6737 11.974
14.6889 11.683
14.7041 11.424
14.7193 11.148
14.7344 11.677
14.7496 11.585
14.7648 11.414
14.7800 11.506
14.7951 11.368
14.8103 11.226
14.8255 11.466
14.8407 11.060
14.8558 11.109
14.8710 11.231
14.8862 11.263
14.9014 11.322
14.9165 11.162
14.9317 11.235
14.9469 11.064
14.9621 10.812
14.9772 10.238
14.9924 10.777
15.0076 10.903
15.0228 10.773
15.0379 10.483
15.0531 10.636
15.0683 10.890
15.0835 10.248
15.0986 10.260
15.1138 10.276
15.1290 10.820
15.1442 10.704
15.1593 10.637
15.1745 10.592
15.1897 10.102
15.2049 10.078
15.2200 10.894
15.2352 10.482
15.2504 10.493
15.2656 10.372
15.2807 10.084
15.2959 10.382
15.3111 10.462
15.3263 10.515
15.3414 10.516
15.3566 10.277
15.3718 10.419
15.3870 10.442
15.4021 10.435
15.4173 10.551
15.4325 10.566
15.4477 10.666
15.4628 10.468
15.4780 10.060
15.4932 10.660
15.5084 10.113
15.5235 10.554
15.5387 10.859
15.5539 10.535
15.5691 10.220
15.5842 10.360
15.5994 10.313
15.6146 10.611
15.6298 9.895
15.6449 9.981
15.6601 9.659
15.6753 10.348
15.6905 10.129
15.7056 9.885
15.7208 10.102
15.7360 9.936
15.7512 9.878
15.7663 9.688
15.7815 9.770
15.7967 9.743
15.8119 9.814
15.8270 9.697
15.8422 10.000
15.8574 9.843
15.8726 9.776
15.8877 9.981
15.9029 9.914
15.9181 9.924
15.9333 9.828
15.9484 9.662
15.9636 9.775
15.9788 9.774
15.9940 9.589
16.0091 9.842
16.0243 9.691
16.0395 9.700
16.0547 9.781
16.0698 9.833
16.0850 9.639
16.1002 9.601
16.1154 9.682
16.1305 9.551
16.1457 9.614
16.1609 9.673
16.1761 9.806
16.1912 9.802
16.2064 9.794
16.2216 9.715
16.2368 9.564
16.2519 9.878
16.2671 10.001
16.2823 10.086
16.2975 10.174
16.3126 10.138
16.3278 9.874
16.3430 9.794
16.3582 10.268
16.3733 10.292
16.3885 10.069
16.4037 10.010
16.4189 10.145
16.4340 10.215
16.4492 10.238
16.4644 9.866
16.4796 10.001
16.4947 9.857
16.5099 10.022
16.5251 10.048
16.5403 9.804
16.5554 9.765
16.5706 9.662
16.5858 9.748
16.6010 9.909
16.6161 9.859
16.6313 9.835
16.6465 9.645
16.6617 9.839
16.6768 10.088
16.6920 9.942
16.7072 10.117
16.7224 10.359
16.7375 10.109
16.7527 10.111
16.7679 10.262
16.7831 10.301
16.7982 10.219
16.8134 9.883
16.8286 9.940
16.8438 9.878
16.8589 9.785
16.8741 9.800
16.8893 9.879
16.9045 9.805
16.9196 9.657
16.9348 9.924
16.9500 9.950
16.9652 9.738
16.9803 9.940
16.9955 10.175
17.0107 10.130
17.0259 9.997
17.0410 9.897
17.0562 10.102
17.0714 10.258
17.0866 10.416
17.1017 10.708
17.1169 10.742
17.1321 10.936
17.1473 11.310
17.1624 11.713
17.1776 12.405
17.1928 13.188
17.2080 13.993
17.2231 15.106
17.2383 16.336
17.2535 17.581
17.2687 18.716
17.2838 19.071
17.2990 18.185
17.3142 16.892
17.3294 16.248
17.3445 16.290
17.3597 16.101
17.3749 15.692
17.3901 15.262
17.4052 14.406
17.4204 13.246
17.4356 12.453
17.4508 11.835
17.4659 11.477
17.4811 11.376
17.4963 11.026
17.5115 10.821
17.5266 10.474
17.5418 10.344
17.5570 10.566
17.5722 10.437
17.5873 10.113
17.6025 10.188
17.6177 10.364
17.6329 10.383
17.6480 10.307
17.6632 10.354
17.6784 10.387
17.6936 10.266
17.7087 10.255
17.7239 10.561
17.7391 10.759
17.7543 10.813
17.7694 10.817
17.7846 10.830
17.7998 11.170
17.8150 11.600
17.8301 11.990
17.8453 12.252
17.8605 12.528
17.8757 12.693
17.8908 12.614
17.9060 12.379
17.9212 12.244
17.9364 12.146
17.9515 11.903
17.9667 11.799
17.9819 11.737
17.9971 11.341
18.0122 10.994
18.0274 10.845
18.0426 10.758
18.0578 10.632
18.0729 10.427
18.0881 10.433
18.1033 10.314
18.1185 10.161
18.1336 9.977
18.1488 9.944
18.1640 10.029
18.1792 10.026
18.1943 9.851
18.2095 9.966
18.2247 10.103
18.2399 10.104
18.2550 10.066
18.2702 10.018
18.2854 9.845
18.3006 9.798
18.3157 9.962
18.3309 9.936
18.3461 10.001
18.3613 10.197
18.3764 10.033
18.3916 10.113
18.4068 9.870
18.4220 9.594
18.4371 9.663
18.4523 9.833
18.4675 9.865
18.4827 9.790
18.4978 9.842
18.5130 10.018
18.5282 9.890
18.5434 9.735
18.5585 9.768
18.5737 9.964
18.5889 9.999
18.6041 10.209
18.6192 10.070
18.6344 10.000
18.6496 9.919
18.6648 9.729
18.6799 9.645
18.6951 9.613
18.7103 9.724
18.7255 9.791
18.7406 9.849
18.7558 9.844
18.7710 9.683
18.7862 9.761
18.8013 9.811
18.8165 9.601
18.8317 9.752
18.8469 9.841
18.8620 9.762
18.8772 10.002
18.8924 10.039
18.9076 9.976
18.9227 10.117
18.9379 10.159
18.9531 10.039
18.9683 9.916
18.9834 9.993
18.9986 10.109
19.0138 10.105
19.0290 10.032
19.0441 10.223
19.0593 10.216
19.0745 10.173
19.0897 10.375
19.1048 10.414
19.1200 10.385
19.1352 10.403
19.1504 10.342
19.1655 10.394
19.1807 10.647
19.1959 10.653
19.2111 10.570
19.2262 10.765
19.2414 10.923
19.2566 10.718
19.2718 10.618
19.2869 10.894
19.3021 11.205
19.3173 10.938
19.3325 10.864
19.3476 11.188
19.3628 11.361
19.3780 11.300
19.3932 11.178
19.4083 11.300
19.4235 11.594
19.4387 11.457
19.4539 11.152
19.4690 11.368
19.4842 11.578
19.4994 11.403
19.5146 11.296
19.5297 11.233
19.5449 11.238
19.5601 11.405
19.5753 11.680
19.5904 11.599
19.6056 11.368
19.6208 11.503
19.6360 11.475
19.6511 11.376
19.6663 11.493
19.6815 11.669
19.6967 11.683
19.7118 11.689
19.7270 11.687
19.7422 11.704
19.7574 11.895
19.7725 12.009
19.7877 11.808
19.8029 11.887
19.8180 12.029
19.8332 11.988
19.8484 12.121
19.8636 12.102
19.8787 12.225
19.8939 12.754
19.9091 13.109
19.9243 13.195
19.9394 13.742
19.9546 14.127
19.9698 14.302
19.9850 14.479
20.0001 14.615
20.0153 14.511
20.0305 14.109
20.0457 13.908
20.0608 13.852
20.0760 13.722
20.0912 13.770
20.1064 13.718
20.1215 13.520
20.1367 13.234
20.1519 12.880
20.1671 12.721
20.1822 12.596
20.1974 12.492
20.2126 12.351
20.2278 12.327
20.2429 12.514
20.2581 12.278
20.2733 11.723
20.2885 11.493
20.3036 11.452
20.3188 11.684
20.3340 11.560
20.3492 11.391
20.3643 11.247
20.3795 11.165
20.3947 11.124
20.4099 11.143
20.4250 11.120
20.4402 10.965
20.4554 10.928
20.4706 10.907
20.4857 10.997
20.5009 11.028
20.5161 10.874
20.5313 10.951
20.5464 11.107
20.5616 10.978
20.5768 10.984
20.5920 10.989
20.6071 10.667
20.6223 10.816
20.6375 10.839
20.6527 10.474
20.6678 10.916
20.6830 11.004
20.6982 10.920
20.7134 10.684
20.7285 10.742
20.7437 10.610
20.7589 10.517
20.7741 10.846
20.7892 11.068
20.8044 10.377
20.8196 10.632
20.8348 10.765
20.8499 10.726
20.8651 10.683
20.8803 10.844
20.8955 10.558
20.9106 10.318
20.9258 10.418
20.9410 11.082
20.9562 10.906
20.9713 10.738
20.9865 10.714
21.0017 10.615
21.0169 10.353
21.0320 10.913
21.0472 10.322
21.0624 10.480
21.0776 10.510
21.0927 10.195
21.1079 10.286
21.1231 10.322
21.1383 10.344
21.1534 9.832
21.1686 10.273
21.1838 9.602
21.1990 9.679
21.2141 9.837
21.2293 9.773
21.2445 9.722
21.2597 9.535
21.2748 9.570
21.2900 9.309
21.3052 9.620
21.3204 9.622
21.3355 9.482
21.3507 9.727
21.3659 9.370
21.3811 9.535
21.3962 9.490
21.4114 9.514
21.4266 9.230
21.4418 9.497
21.4569 9.415
21.4721 9.352
21.4873 9.438
21.5025 9.369
21.5176 9.229
21.5328 9.117
21.5480 9.333
21.5632 9.235
21.5783 9.125
21.5935 9.050
21.6087 9.295
21.6239 9.084
21.6390 8.903
21.6542 9.270
21.6694 9.308
21.6846 9.187
21.6997 9.053
21.7149 8.870
21.7301 8.678
21.7453 8.768
21.7604 8.945
21.7756 9.005
21.7908 9.083
21.8060 9.127
21.8211 8.944
21.8363 8.958
21.8515 8.927
21.8667 8.871
21.8818 9.007
21.8970 8.973
21.9122 8.828
21.9274 8.963
21.9425 8.864
21.9577 8.971
21.9729 8.868
21.9881 8.816
22.0032 8.925
22.0184 8.921
22.0336 8.756
22.0488 8.783
22.0639 8.807
22.0791 8.632
22.0943 8.710
22.1095 8.710
22.1246 8.777
22.1398 8.839
22.1550 8.730
22.1702 8.526
22.1853 8.472
22.2005 8.449
22.2157 8.447
22.2309 8.489
22.2460 8.604
22.2612 8.634
22.2764 8.633
22.2916 8.616
22.3067 8.634
22.3219 8.256
22.3371 8.515
22.3523 8.530
22.3674 8.747
22.3826 8.677
22.3978 8.417
22.4130 8.596
22.4281 8.711
22.4433 8.538
22.4585 8.313
22.4737 8.279
22.4888 8.412
22.5040 8.413
22.5192 8.537
22.5344 8.357
22.5495 8.297
22.5647 8.562
22.5799 8.233
22.5951 8.683
22.6102 8.488
22.6254 8.507
22.6406 8.379
22.6558 8.012
22.6709 8.370
22.6861 8.439
22.7013 8.071
22.7165 7.894
22.7316 6.297
