'Id: "" Comment: "" Operator: "Lab Manager" Anode: "Mo" Scantype: "Still (Eiger2R_500K (1D mode))" TimePerStep: "300" X: "11.8" Y: "9.4" Z: "11.284" 
7.2532 18.792
7.2684 18.864
7.2836 18.665
7.2987 18.862
7.3139 18.553
7.3291 19.636
7.3443 18.774
7.3594 18.939
7.3746 19.158
7.3898 19.570
7.4050 19.621
7.4201 19.477
7.4353 19.644
7.4505 19.569
7.4657 19.641
7.4808 19.659
7.4960 19.674
7.5112 19.712
7.5264 19.772
7.5415 19.964
7.5567 19.664
7.5719 19.566
7.5871 19.809
7.6022 20.066
7.6174 20.396
7.6326 20.266
7.6478 20.269
7.6629 20.686
7.6781 20.651
7.6933 20.360
7.7085 20.449
7.7236 20.680
7.7388 20.690
7.7540 20.421
7.7692 20.315
7.7843 20.626
7.7995 20.780
7.8147 20.674
7.8299 20.462
7.8450 20.533
7.8602 20.666
7.8754 20.911
7.8905 20.905
7.9057 20.833
7.9209 21.140
7.9361 21.547
7.9512 21.557
7.9664 21.522
7.9816 21.351
7.9968 21.345
8.0119 21.466
8.0271 21.187
8.0423 21.335
8.0575 21.407
8.0726 21.290
8.0878 21.103
8.1030 21.170
8.1182 21.508
8.1333 21.221
8.1485 21.538
8.1637 21.460
8.1789 21.543
8.1940 21.799
8.2092 21.488
8.2244 21.529
8.2396 21.822
8.2547 22.019
8.2699 21.875
8.2851 21.610
8.3003 21.681
8.3154 21.968
8.3306 22.155
8.3458 22.020
8.3610 21.904
8.3761 21.669
8.3913 22.154
8.4065 22.340
8.4217 21.780
8.4368 21.784
8.4520 22.287
8.4672 22.364
8.4824 22.220
8.4975 21.841
8.5127 22.375
8.5279 22.593
8.5431 22.450
8.5582 21.982
8.5734 22.342
8.5886 22.353
8.6038 22.131
8.6189 22.213
8.6341 22.541
8.6493 22.780
8.6645 22.362
8.6796 22.728
8.6948 22.493
8.7100 22.403
8.7252 22.794
8.7403 22.843
8.7555 22.992
8.7707 22.846
8.7859 22.685
8.8010 22.539
8.8162 22.927
8.8314 23.034
8.8466 22.660
8.8617 22.985
8.8769 22.503
8.8921 22.770
8.9073 23.180
8.9224 22.615
8.9376 22.651
8.9528 22.897
8.9680 22.869
8.9831 22.813
8.9983 22.483
9.0135 22.437
9.0287 22.842
9.0438 23.023
9.0590 22.869
9.0742 22.677
9.0894 22.791
9.1045 22.572
9.1197 22.574
9.1349 22.787
9.1501 23.046
9.1652 23.277
9.1804 23.210
9.1956 23.066
9.2108 22.582
9.2259 22.862
9.2411 23.028
9.2563 22.954
9.2715 22.863
9.2866 22.538
9.3018 22.771
9.3170 22.950
9.3322 22.771
9.3473 22.855
9.3625 23.074
9.3777 23.429
9.3929 23.242
9.4080 23.200
9.4232 23.394
9.4384 23.344
9.4536 23.299
9.4687 22.915
9.4839 23.397
9.4991 23.399
9.5143 23.210
9.5294 23.225
9.5446 23.580
9.5598 23.209
9.5750 23.140
9.5901 23.364
9.6053 23.340
9.6205 23.428
9.6357 23.284
9.6508 23.322
9.6660 23.765
9.6812 24.095
9.6964 24.295
9.7115 24.163
9.7267 23.983
9.7419 24.232
9.7571 24.531
9.7722 24.391
9.7874 24.042
9.8026 23.834
9.8178 23.804
9.8329 23.896
9.8481 23.693
9.8633 23.447
9.8785 23.245
9.8936 23.061
9.9088 23.299
9.9240 23.751
9.9392 23.587
9.9543 23.293
9.9695 23.305
9.9847 23.245
9.9999 23.473
10.0150 23.847
10.0302 23.780
10.0454 23.572
10.0606 23.503
10.0757 23.612
10.0909 23.348
10.1061 23.689
10.1213 24.014
10.1364 24.091
10.1516 23.962
10.1668 23.968
10.1820 23.949
10.1971 23.899
10.2123 24.391
10.2275 24.243
10.2427 23.995
10.2578 24.069
10.2730 24.013
10.2882 23.895
10.3034 23.522
10.3185 23.134
10.3337 22.933
10.3489 22.722
10.3641 22.599
10.3792 22.568
10.3944 22.764
10.4096 23.017
10.4248 22.805
10.4399 22.715
10.4551 22.649
10.4703 22.558
10.4855 22.643
10.5006 22.580
10.5158 22.621
10.5310 22.687
10.5462 22.757
10.5613 22.640
10.5765 22.522
10.5917 22.574
10.6069 22.559
10.6220 22.778
10.6372 22.700
10.6524 22.756
10.6676 22.952
10.6827 22.785
10.6979 22.337
10.7131 22.493
10.7283 22.521
10.7434 22.211
10.7586 22.594
10.7738 22.390
10.7890 22.445
10.8041 22.416
10.8193 22.492
10.8345 22.762
10.8497 22.700
10.8648 22.707
10.8800 22.791
10.8952 22.495
10.9104 22.089
10.9255 22.370
10.9407 22.318
10.9559 22.305
10.9711 22.023
10.9862 22.185
11.0014 22.353
11.0166 22.343
11.0318 22.128
11.0469 22.114
11.0621 21.842
11.0773 21.780
11.0925 22.091
11.1076 21.843
11.1228 21.842
11.1380 21.493
11.1532 21.928
11.1683 21.685
11.1835 21.559
11.1987 22.153
11.2139 22.334
11.2290 22.260
11.2442 22.015
11.2594 22.237
11.2746 22.221
11.2897 21.913
11.3049 22.026
11.3201 22.248
11.3353 21.896
11.3504 21.921
11.3656 21.580
11.3808 21.615
11.3960 21.517
11.4111 21.349
11.4263 21.600
11.4415 21.414
11.4567 21.195
11.4718 21.032
11.4870 21.144
11.5022 21.085
11.5174 21.087
11.5325 20.972
11.5477 21.142
11.5629 21.181
11.5781 21.204
11.5932 20.950
11.6084 20.844
11.6236 20.379
11.6388 20.206
11.6539 20.644
11.6691 20.811
11.6843 20.568
11.6995 20.539
11.7146 20.675
11.7298 20.616
11.7450 20.390
11.7602 20.533
11.7753 20.080
11.7905 20.131
11.8057 20.192
11.8209 20.071
11.8360 19.887
11.8512 19.636
11.8664 19.856
11.8816 20.134
11.8967 19.768
11.9119 19.427
11.9271 19.559
11.9423 19.498
11.9574 19.367
11.9726 19.249
11.9878 19.210
12.0030 19.262
12.0181 19.250
12.0333 19.229
12.0485 19.138
12.0637 19.195
12.0788 18.995
12.0940 18.578
12.1092 18.682
12.1244 18.719
12.1395 18.599
12.1547 18.699
12.1699 18.695
12.1851 18.421
12.2002 18.248
12.2154 18.263
12.2306 18.407
12.2458 18.192
12.2609 17.633
12.2761 17.668
12.2913 17.802
12.3065 17.943
12.3216 17.809
12.3368 17.523
12.3520 17.558
12.3672 17.342
12.3823 17.164
12.3975 17.376
12.4127 17.612
12.4279 17.251
12.4430 16.979
12.4582 16.983
12.4734 17.224
12.4886 17.118
12.5037 16.910
12.5189 16.773
12.5341 16.548
12.5493 16.690
12.5644 16.799
12.5796 16.499
12.5948 16.194
12.6100 16.147
12.6251 16.187
12.6403 16.372
12.6555 16.144
12.6707 15.796
12.6858 15.788
12.7010 15.842
12.7162 15.625
12.7314 15.568
12.7465 15.762
12.7617 15.574
12.7769 15.384
12.7921 15.357
12.8072 15.427
12.8224 15.486
12.8376 15.130
12.8528 14.771
12.8679 14.732
12.8831 14.762
12.8983 14.736
12.9135 14.503
12.9286 14.404
12.9438 14.406
12.9590 14.757
12.9742 14.852
12.9893 14.440
13.0045 14.324
13.0197 14.328
13.0349 14.227
13.0500 14.019
13.0652 13.975
13.0804 14.028
13.0956 13.931
13.1107 13.895
13.1259 13.777
13.1411 13.697
13.1563 13.662
13.1714 13.394
13.1866 13.351
13.2018 13.393
13.2170 13.286
13.2321 13.437
13.2473 13.608
13.2625 13.641
13.2777 13.558
13.2928 13.424
13.3080 13.097
13.3232 12.971
13.3384 13.140
13.3535 12.980
13.3687 12.988
13.3839 12.915
13.3991 12.974
13.4142 13.019
13.4294 12.758
13.4446 12.756
13.4598 12.966
13.4749 12.921
13.4901 12.454
13.5053 12.282
13.5205 12.379
13.5356 12.616
13.5508 12.608
13.5660 12.600
13.5812 12.459
13.5963 12.316
13.6115 12.306
13.6267 12.399
13.6419 12.298
13.6570 12.055
13.6722 11.943
13.6874 12.148
13.7026 12.318
13.7177 12.172
13.7329 12.142
13.7481 12.078
13.7633 12.027
13.7784 12.063
13.7936 12.099
13.8088 12.014
13.8239 11.857
13.8391 12.422
13.8543 12.317
13.8695 12.148
13.8846 12.298
13.8998 12.432
13.9150 12.090
13.9302 11.937
13.9453 11.838
13.9605 11.957
13.9757 11.789
13.9909 11.523
14.0060 11.344
14.0212 11.332
14.0364 11.396
14.0516 11.612
14.0667 11.431
14.0819 11.442
14.0971 11.569
14.1123 11.377
14.1274 11.230
14.1426 11.326
14.1578 11.388
14.1730 11.813
14.1881 11.841
14.2033 11.803
14.2185 11.833
14.2337 11.894
14.2488 12.191
14.2640 12.026
14.2792 12.210
14.2944 12.142
14.3095 12.088
14.3247 12.548
14.3399 12.465
14.3551 12.905
14.3702 13.224
14.3854 13.297
14.4006 13.254
14.4158 13.181
14.4309 12.763
14.4461 12.647
14.4613 13.006
14.4765 12.694
14.4916 12.643
14.5068 12.404
14.5220 12.155
14.5372 12.506
14.5523 11.974
14.5675 11.745
14.5827 11.784
14.5979 11.393
14.6130 11.518
14.6282 11.262
14.6434 11.120
14.6586 11.125
14.6737 11.304
14.6889 11.395
14.7041 10.951
14.7193 10.988
14.7344 10.952
14.7496 10.800
14.7648 10.640
14.7800 10.463
14.7951 10.819
14.8103 10.880
14.8255 10.580
14.8407 10.906
14.8558 10.663
14.8710 10.821
14.8862 10.689
14.9014 10.580
14.9165 11.038
14.9317 10.803
14.9469 10.519
14.9621 10.393
14.9772 10.338
14.9924 10.185
15.0076 10.546
15.0228 10.349
15.0379 10.443
15.0531 10.795
15.0683 10.327
15.0835 10.472
15.0986 10.605
15.1138 10.519
15.1290 10.216
15.1442 10.655
15.1593 10.259
15.1745 10.376
15.1897 10.587
15.2049 10.470
15.2200 9.942
15.2352 10.308
15.2504 10.230
15.2656 10.526
15.2807 10.047
15.2959 10.338
15.3111 10.124
15.3263 10.498
15.3414 10.240
15.3566 10.340
15.3718 10.600
15.3870 10.206
15.4021 10.040
15.4173 10.386
15.4325 10.402
15.4477 10.218
15.4628 10.421
15.4780 10.040
15.4932 10.366
15.5084 10.541
15.5235 10.514
15.5387 10.733
15.5539 10.475
15.5691 10.560
15.5842 10.463
15.5994 10.253
15.6146 10.116
15.6298 9.945
15.6449 10.109
15.6601 9.988
15.6753 10.048
15.6905 9.876
15.7056 9.827
15.7208 9.969
15.7360 10.130
15.7512 9.759
15.7663 9.810
15.7815 9.669
15.7967 9.807
15.8119 9.525
15.8270 9.809
15.8422 9.680
15.8574 9.866
15.8726 9.756
15.8877 9.524
15.9029 9.627
15.9181 9.861
15.9333 9.857
15.9484 9.842
15.9636 9.791
15.9788 10.001
15.9940 9.935
16.0091 9.697
16.0243 9.546
16.0395 9.975
16.0547 9.802
16.0698 9.929
16.0850 9.789
16.1002 9.878
16.1154 9.806
16.1305 9.566
16.1457 9.757
16.1609 9.615
16.1761 9.939
16.1912 9.780
16.2064 9.812
16.2216 9.853
16.2368 9.918
16.2519 9.698
16.2671 9.735
16.2823 9.811
16.2975 10.011
16.3126 10.193
16.3278 10.038
16.3430 9.957
16.3582 9.910
16.3733 9.925
16.3885 10.127
16.4037 10.173
16.4189 10.019
16.4340 9.945
16.4492 9.960
16.4644 9.787
16.4796 9.973
16.4947 9.825
16.5099 9.792
16.5251 9.714
16.5403 9.847
16.5554 9.918
16.5706 9.859
16.5858 9.814
16.6010 9.677
16.6161 9.536
16.6313 9.839
16.6465 9.789
16.6617 9.843
16.6768 9.923
16.6920 9.705
16.7072 9.740
16.7224 10.069
16.7375 10.014
16.7527 9.966
16.7679 10.134
16.7831 10.008
16.7982 9.959
16.8134 9.973
16.8286 9.874
16.8438 9.821
16.8589 9.922
16.8741 9.829
16.8893 9.802
16.9045 9.807
16.9196 9.850
16.9348 9.544
16.9500 9.745
16.9652 10.180
16.9803 10.003
16.9955 9.905
17.0107 9.887
17.0259 10.050
17.0410 9.961
17.0562 9.835
17.0714 10.085
17.0866 10.371
17.1017 10.558
17.1169 10.672
17.1321 10.867
17.1473 11.345
17.1624 11.847
17.1776 12.259
17.1928 12.999
17.2080 13.894
17.2231 15.068
17.2383 16.363
17.2535 17.463
17.2687 18.457
17.2838 18.709
17.2990 18.217
17.3142 17.290
17.3294 16.387
17.3445 15.952
17.3597 15.918
17.3749 15.984
17.3901 15.362
17.4052 14.234
17.4204 13.344
17.4356 12.452
17.4508 11.827
17.4659 11.594
17.4811 11.477
17.4963 11.457
17.5115 11.366
17.5266 11.230
17.5418 11.213
17.5570 11.595
17.5722 11.918
17.5873 11.774
17.6025 11.513
17.6177 11.545
17.6329 11.324
17.6480 11.022
17.6632 11.040
17.6784 11.163
17.6936 11.319
17.7087 10.968
17.7239 10.859
17.7391 11.074
17.7543 10.802
17.7694 10.693
17.7846 11.031
17.7998 10.966
17.8150 10.697
17.8301 10.801
17.8453 10.737
17.8605 10.783
17.8757 10.831
17.8908 10.657
17.9060 10.610
17.9212 10.490
17.9364 10.448
17.9515 10.188
17.9667 10.411
17.9819 10.624
17.9971 10.561
18.0122 10.567
18.0274 10.268
18.0426 10.256
18.0578 10.434
18.0729 10.361
18.0881 10.171
18.1033 10.073
18.1185 10.031
18.1336 10.090
18.1488 10.075
18.1640 10.164
18.1792 10.088
18.1943 9.924
18.2095 9.923
18.2247 9.961
18.2399 10.059
18.2550 9.933
18.2702 9.973
18.2854 9.900
18.3006 9.769
18.3157 10.061
18.3309 10.058
18.3461 10.020
18.3613 9.749
18.3764 9.740
18.3916 10.096
18.4068 10.049
18.4220 9.919
18.4371 9.688
18.4523 9.661
18.4675 9.466
18.4827 9.642
18.4978 9.628
18.5130 9.816
18.5282 9.866
18.5434 9.831
18.5585 10.013
18.5737 9.796
18.5889 9.835
18.6041 9.896
18.6192 9.597
18.6344 9.660
18.6496 9.763
18.6648 9.768
18.6799 9.591
18.6951 9.894
18.7103 9.891
18.7255 9.848
18.7406 9.791
18.7558 9.828
18.7710 9.720
18.7862 9.827
18.8013 9.931
18.8165 9.759
18.8317 9.753
18.8469 9.952
18.8620 10.024
18.8772 10.168
18.8924 10.165
18.9076 10.035
18.9227 10.051
18.9379 9.871
18.9531 9.757
18.9683 9.928
18.9834 9.907
18.9986 9.934
19.0138 10.056
19.0290 10.066
19.0441 10.051
19.0593 10.222
19.0745 10.236
19.0897 10.251
19.1048 10.396
19.1200 10.500
19.1352 10.450
19.1504 10.389
19.1655 10.322
19.1807 10.443
19.1959 10.600
19.2111 10.634
19.2262 10.671
19.2414 10.674
19.2566 10.936
19.2718 10.830
19.2869 10.749
19.3021 10.985
19.3173 11.182
19.3325 11.092
19.3476 10.892
19.3628 10.941
19.3780 10.999
19.3932 10.934
19.4083 11.018
19.4235 11.123
19.4387 11.175
19.4539 11.210
19.4690 11.218
19.4842 11.350
19.4994 11.460
19.5146 11.312
19.5297 11.317
19.5449 11.602
19.5601 11.538
19.5753 11.372
19.5904 11.477
19.6056 11.707
19.6208 11.725
19.6360 11.701
19.6511 11.668
19.6663 11.541
19.6815 11.673
19.6967 11.784
19.7118 11.696
19.7270 11.605
19.7422 11.486
19.7574 11.495
19.7725 11.701
19.7877 11.852
19.8029 12.024
19.8180 12.019
19.8332 12.110
19.8484 12.218
19.8636 12.372
19.8787 12.560
19.8939 12.562
19.9091 12.960
19.9243 13.381
19.9394 13.487
19.9546 13.684
19.9698 14.207
19.9850 14.343
20.0001 14.007
20.0153 14.063
20.0305 13.923
20.0457 13.512
20.0608 13.529
20.0760 13.790
20.0912 13.852
20.1064 13.781
20.1215 13.525
20.1367 13.142
20.1519 12.971
20.1671 13.137
20.1822 12.925
20.1974 13.039
20.2126 13.142
20.2278 12.847
20.2429 12.798
20.2581 12.649
20.2733 12.390
20.2885 12.372
20.3036 12.086
20.3188 11.967
20.3340 11.773
20.3492 11.840
20.3643 11.805
20.3795 11.418
20.3947 11.372
20.4099 11.068
20.4250 10.958
20.4402 11.005
20.4554 11.018
20.4706 10.939
20.4857 11.001
20.5009 11.027
20.5161 10.906
20.5313 11.057
20.5464 10.755
20.5616 10.523
20.5768 10.659
20.5920 10.884
20.6071 10.932
20.6223 10.795
20.6375 10.578
20.6527 10.702
20.6678 10.582
20.6830 10.772
20.6982 10.665
20.7134 10.471
20.7285 10.572
20.7437 10.704
20.7589 10.538
20.7741 10.507
20.7892 10.766
20.8044 10.529
20.8196 10.137
20.8348 10.019
20.8499 10.053
20.8651 10.468
20.8803 10.557
20.8955 10.361
20.9106 10.523
20.9258 10.216
20.9410 10.083
20.9562 10.211
20.9713 10.169
20.9865 10.162
21.0017 9.954
21.0169 10.335
21.0320 10.378
21.0472 10.080
21.0624 10.023
21.0776 9.918
21.0927 9.935
21.1079 9.797
21.1231 9.652
21.1383 9.941
21.1534 9.808
21.1686 9.663
21.1838 9.435
21.1990 9.833
21.2141 9.608
21.2293 9.397
21.2445 9.701
21.2597 10.001
21.2748 9.441
21.2900 9.764
21.3052 9.670
21.3204 9.559
21.3355 9.524
21.3507 9.579
21.3659 9.553
21.3811 9.412
21.3962 9.374
21.4114 9.679
21.4266 9.437
21.4418 9.306
21.4569 9.441
21.4721 9.373
21.4873 9.150
21.5025 9.517
21.5176 9.581
21.5328 9.106
21.5480 9.433
21.5632 9.446
21.5783 9.254
21.5935 9.234
21.6087 9.521
21.6239 9.458
21.6390 9.231
21.6542 9.335
21.6694 9.102
21.6846 8.812
21.6997 8.987
21.7149 9.293
21.7301 9.108
21.7453 9.023
21.7604 8.961
21.7756 9.168
21.7908 9.310
21.8060 8.850
21.8211 8.804
21.8363 8.910
21.8515 9.042
21.8667 8.984
21.8818 8.973
21.8970 8.821
21.9122 8.981
21.9274 8.879
21.9425 8.784
21.9577 8.903
21.9729 9.008
21.9881 9.027
22.0032 9.047
22.0184 8.734
22.0336 8.641
22.0488 8.861
22.0639 8.797
22.0791 8.604
22.0943 8.735
22.1095 8.694
22.1246 8.711
22.1398 8.624
22.1550 8.415
22.1702 8.640
22.1853 8.741
22.2005 8.748
22.2157 8.722
22.2309 8.632
22.2460 8.687
22.2612 8.734
22.2764 8.524
22.2916 8.644
22.3067 8.699
22.3219 8.831
22.3371 8.687
22.3523 8.470
22.3674 8.959
22.3826 8.776
22.3978 8.459
22.4130 8.498
22.4281 8.580
22.4433 8.392
22.4585 8.614
22.4737 8.500
22.4888 8.326
22.5040 8.445
22.5192 8.541
22.5344 8.446
22.5495 8.531
22.5647 8.325
22.5799 8.345
22.5951 8.618
22.6102 8.510
22.6254 8.650
22.6406 8.490
22.6558 8.516
22.6709 8.622
22.6861 8.445
22.7013 8.169
22.7165 8.042
22.7316 6.373
