'Id: "" Comment: "" Operator: "Lab Manager" Anode: "Mo" Scantype: "Still (Eiger2R_500K (1D mode))" TimePerStep: "300" X: "11.8" Y: "9.4" Z: "11.284" 
7.2532 18.871
7.2684 18.546
7.2836 18.726
7.2987 19.196
7.3139 19.109
7.3291 18.569
7.3443 19.180
7.3594 19.356
7.3746 18.866
7.3898 19.278
7.4050 19.444
7.4201 19.706
7.4353 19.335
7.4505 19.450
7.4657 19.348
7.4808 19.314
7.4960 19.548
7.5112 19.790
7.5264 19.645
7.5415 19.851
7.5567 19.682
7.5719 19.820
7.5871 19.570
7.6022 20.000
7.6174 19.943
7.6326 19.821
7.6478 19.988
7.6629 20.177
7.6781 20.367
7.6933 20.183
7.7085 20.084
7.7236 20.518
7.7388 20.493
7.7540 20.262
7.7692 20.345
7.7843 20.590
7.7995 20.492
7.8147 20.526
7.8299 20.513
7.8450 20.535
7.8602 20.738
7.8754 20.683
7.8905 20.715
7.9057 20.812
7.9209 20.583
7.9361 20.554
7.9512 20.945
7.9664 21.095
7.9816 21.395
7.9968 21.306
8.0119 20.955
8.0271 20.877
8.0423 20.954
8.0575 21.011
8.0726 21.079
8.0878 21.004
8.1030 20.957
8.1182 20.900
8.1333 20.985
8.1485 21.224
8.1637 21.231
8.1789 21.692
8.1940 21.576
8.2092 21.564
8.2244 21.336
8.2396 21.356
8.2547 21.373
8.2699 21.480
8.2851 21.669
8.3003 21.567
8.3154 21.706
8.3306 21.815
8.3458 21.897
8.3610 21.987
8.3761 21.872
8.3913 21.610
8.4065 22.128
8.4217 21.782
8.4368 21.485
8.4520 21.680
8.4672 21.664
8.4824 21.710
8.4975 21.718
8.5127 22.355
8.5279 22.443
8.5431 21.882
8.5582 21.959
8.5734 21.809
8.5886 22.229
8.6038 22.297
8.6189 22.166
8.6341 22.537
8.6493 22.372
8.6645 22.243
8.6796 22.794
8.6948 22.337
8.7100 22.642
8.7252 22.198
8.7403 22.305
8.7555 22.204
8.7707 22.056
8.7859 22.476
8.8010 22.625
8.8162 22.223
8.8314 22.982
8.8466 22.573
8.8617 22.334
8.8769 22.665
8.8921 22.740
8.9073 22.728
8.9224 22.820
8.9376 22.455
8.9528 22.782
8.9680 22.508
8.9831 22.576
8.9983 22.997
9.0135 22.791
9.0287 22.595
9.0438 22.945
9.0590 23.051
9.0742 22.975
9.0894 22.882
9.1045 22.583
9.1197 22.658
9.1349 22.735
9.1501 22.769
9.1652 22.285
9.1804 22.301
9.1956 22.773
9.2108 22.993
9.2259 23.050
9.2411 23.205
9.2563 22.888
9.2715 23.104
9.2866 23.363
9.3018 23.186
9.3170 23.064
9.3322 23.005
9.3473 22.878
9.3625 22.924
9.3777 23.144
9.3929 22.858
9.4080 22.997
9.4232 23.192
9.4384 23.360
9.4536 23.346
9.4687 23.544
9.4839 23.416
9.4991 22.928
9.5143 22.875
9.5294 22.993
9.5446 22.963
9.5598 23.097
9.5750 22.929
9.5901 23.158
9.6053 23.390
9.6205 23.443
9.6357 23.333
9.6508 23.498
9.6660 23.768
9.6812 23.869
9.6964 23.805
9.7115 23.801
9.7267 23.892
9.7419 24.068
9.7571 24.299
9.7722 24.105
9.7874 23.822
9.8026 23.871
9.8178 23.506
9.8329 23.515
9.8481 23.389
9.8633 23.099
9.8785 23.385
9.8936 23.378
9.9088 23.191
9.9240 23.174
9.9392 23.410
9.9543 23.210
9.9695 23.041
9.9847 23.050
9.9999 23.363
10.0150 23.485
10.0302 23.487
10.0454 23.476
10.0606 23.380
10.0757 23.382
10.0909 23.287
10.1061 23.501
10.1213 23.324
10.1364 23.251
10.1516 23.216
10.1668 23.524
10.1820 23.899
10.1971 23.628
10.2123 23.169
10.2275 22.987
10.2427 22.986
10.2578 23.138
10.2730 23.343
10.2882 23.063
10.3034 23.092
10.3185 22.985
10.3337 22.970
10.3489 22.700
10.3641 22.810
10.3792 23.035
10.3944 23.054
10.4096 22.627
10.4248 22.460
10.4399 22.781
10.4551 22.704
10.4703 22.580
10.4855 22.582
10.5006 22.509
10.5158 22.470
10.5310 22.786
10.5462 22.709
10.5613 22.457
10.5765 22.637
10.5917 22.279
10.6069 22.611
10.6220 22.865
10.6372 22.487
10.6524 22.378
10.6676 22.488
10.6827 22.629
10.6979 22.883
10.7131 22.891
10.7283 22.324
10.7434 21.945
10.7586 22.046
10.7738 22.528
10.7890 22.385
10.8041 22.724
10.8193 22.530
10.8345 22.476
10.8497 22.340
10.8648 22.253
10.8800 22.186
10.8952 22.161
10.9104 22.212
10.9255 22.252
10.9407 22.102
10.9559 21.797
10.9711 21.728
10.9862 22.124
11.0014 22.231
11.0166 22.245
11.0318 22.203
11.0469 22.177
11.0621 21.826
11.0773 21.628
11.0925 21.996
11.1076 22.042
11.1228 21.658
11.1380 21.527
11.1532 21.570
11.1683 21.592
11.1835 21.565
11.1987 21.628
11.2139 21.901
11.2290 21.672
11.2442 21.231
11.2594 21.221
11.2746 21.350
11.2897 21.462
11.3049 21.634
11.3201 21.681
11.3353 21.261
11.3504 21.167
11.3656 21.682
11.3808 21.502
11.3960 21.381
11.4111 21.125
11.4263 21.143
11.4415 20.989
11.4567 21.364
11.4718 21.334
11.4870 21.366
11.5022 21.353
11.5174 21.121
11.5325 21.278
11.5477 20.953
11.5629 20.703
11.5781 20.866
11.5932 20.965
11.6084 21.154
11.6236 20.794
11.6388 20.687
11.6539 20.845
11.6691 21.098
11.6843 20.395
11.6995 20.175
11.7146 20.178
11.7298 20.426
11.7450 20.560
11.7602 20.450
11.7753 20.117
11.7905 20.053
11.8057 20.158
11.8209 20.052
11.8360 19.671
11.8512 19.605
11.8664 19.510
11.8816 19.634
11.8967 19.946
11.9119 19.832
11.9271 19.485
11.9423 19.253
11.9574 19.286
11.9726 19.199
11.9878 18.995
12.0030 18.915
12.0181 18.891
12.0333 18.939
12.0485 18.983
12.0637 18.852
12.0788 18.682
12.0940 18.739
12.1092 18.729
12.1244 19.161
12.1395 19.040
12.1547 18.769
12.1699 18.473
12.1851 18.456
12.2002 18.486
12.2154 18.179
12.2306 18.294
12.2458 18.245
12.2609 17.934
12.2761 17.992
12.2913 17.856
12.3065 18.070
12.3216 17.843
12.3368 17.350
12.3520 17.485
12.3672 17.219
12.3823 17.184
12.3975 17.127
12.4127 17.063
12.4279 16.973
12.4430 16.738
12.4582 16.711
12.4734 16.722
12.4886 16.763
12.5037 16.798
12.5189 16.501
12.5341 16.397
12.5493 16.415
12.5644 16.433
12.5796 16.635
12.5948 16.375
12.6100 16.160
12.6251 16.008
12.6403 15.738
12.6555 15.871
12.6707 15.772
12.6858 15.529
12.7010 15.518
12.7162 15.660
12.7314 15.935
12.7465 15.598
12.7617 15.266
12.7769 15.241
12.7921 15.101
12.8072 14.987
12.8224 14.836
12.8376 14.915
12.8528 14.946
12.8679 14.784
12.8831 14.662
12.8983 14.684
12.9135 14.559
12.9286 14.606
12.9438 14.566
12.9590 14.304
12.9742 14.427
12.9893 14.514
13.0045 14.311
13.0197 14.244
13.0349 14.252
13.0500 14.050
13.0652 13.912
13.0804 13.846
13.0956 13.858
13.1107 13.839
13.1259 13.726
13.1411 13.543
13.1563 13.373
13.1714 13.607
13.1866 13.728
13.2018 13.517
13.2170 13.340
13.2321 13.453
13.2473 13.425
13.2625 13.225
13.2777 13.193
13.2928 12.864
13.3080 12.817
13.3232 13.248
13.3384 13.136
13.3535 12.890
13.3687 13.047
13.3839 13.149
13.3991 13.249
13.4142 13.029
13.4294 12.804
13.4446 12.766
13.4598 12.822
13.4749 12.633
13.4901 12.348
13.5053 12.390
13.5205 12.552
13.5356 12.482
13.5508 12.193
13.5660 12.179
13.5812 12.484
13.5963 12.674
13.6115 12.379
13.6267 12.236
13.6419 12.144
13.6570 12.086
13.6722 12.127
13.6874 12.079
13.7026 12.080
13.7177 11.917
13.7329 11.899
13.7481 11.803
13.7633 11.927
13.7784 11.951
13.7936 12.128
13.8088 12.331
13.8239 12.315
13.8391 12.495
13.8543 12.445
13.8695 12.401
13.8846 12.405
13.8998 12.470
13.9150 12.332
13.9302 12.263
13.9453 12.092
13.9605 11.978
13.9757 11.694
13.9909 11.779
14.0060 11.558
14.0212 11.392
14.0364 11.609
14.0516 11.507
14.0667 11.756
14.0819 11.737
14.0971 11.682
14.1123 11.398
14.1274 11.709
14.1426 11.639
14.1578 11.798
14.1730 11.981
14.1881 11.575
14.2033 11.825
14.2185 11.795
14.2337 11.874
14.2488 12.048
14.2640 11.579
14.2792 11.944
14.2944 12.058
14.3095 12.229
14.3247 12.264
14.3399 12.605
14.3551 12.402
14.3702 12.746
14.3854 12.782
14.4006 13.027
14.4158 13.033
14.4309 12.857
14.4461 12.968
14.4613 12.534
14.4765 12.172
14.4916 12.008
14.5068 12.098
14.5220 11.959
14.5372 11.586
14.5523 11.184
14.5675 11.078
14.5827 11.119
14.5979 11.053
14.6130 10.691
14.6282 10.765
14.6434 11.120
14.6586 11.017
14.6737 10.623
14.6889 10.648
14.7041 10.613
14.7193 10.499
14.7344 10.337
14.7496 10.514
14.7648 10.744
14.7800 10.833
14.7951 10.614
14.8103 10.616
14.8255 10.209
14.8407 10.524
14.8558 10.739
14.8710 10.532
14.8862 10.512
14.9014 10.477
14.9165 10.717
14.9317 10.695
14.9469 10.827
14.9621 10.460
14.9772 10.153
14.9924 10.249
15.0076 10.519
15.0228 10.324
15.0379 10.348
15.0531 10.366
15.0683 10.580
15.0835 10.318
15.0986 10.204
15.1138 10.102
15.1290 9.865
15.1442 10.358
15.1593 10.329
15.1745 9.871
15.1897 10.339
15.2049 10.006
15.2200 10.179
15.2352 10.074
15.2504 10.045
15.2656 10.433
15.2807 10.299
15.2959 10.140
15.3111 10.126
15.3263 10.039
15.3414 9.987
15.3566 10.127
15.3718 10.177
15.3870 10.191
15.4021 10.145
15.4173 10.425
15.4325 10.092
15.4477 10.480
15.4628 9.969
15.4780 10.444
15.4932 10.126
15.5084 10.111
15.5235 10.510
15.5387 9.891
15.5539 9.999
15.5691 10.044
15.5842 9.787
15.5994 10.065
15.6146 9.934
15.6298 10.178
15.6449 10.048
15.6601 9.860
15.6753 9.754
15.6905 9.715
15.7056 9.531
15.7208 9.677
15.7360 9.797
15.7512 9.751
15.7663 9.847
15.7815 9.991
15.7967 9.462
15.8119 9.482
15.8270 9.670
15.8422 9.745
15.8574 9.844
15.8726 9.602
15.8877 9.186
15.9029 9.674
15.9181 9.763
15.9333 9.879
15.9484 9.613
15.9636 9.573
15.9788 9.473
15.9940 9.581
16.0091 9.914
16.0243 9.831
16.0395 9.602
16.0547 9.577
16.0698 9.590
16.0850 9.613
16.1002 9.517
16.1154 9.574
16.1305 9.677
16.1457 9.720
16.1609 9.807
16.1761 9.850
16.1912 9.829
16.2064 9.795
16.2216 9.753
16.2368 9.649
16.2519 9.798
16.2671 9.821
16.2823 9.868
16.2975 9.938
16.3126 9.690
16.3278 9.833
16.3430 9.926
16.3582 10.102
16.3733 10.022
16.3885 9.921
16.4037 9.847
16.4189 9.887
16.4340 9.923
16.4492 9.750
16.4644 9.772
16.4796 9.863
16.4947 9.856
16.5099 9.838
16.5251 9.806
16.5403 9.637
16.5554 9.520
16.5706 9.480
16.5858 9.594
16.6010 9.515
16.6161 9.701
16.6313 9.794
16.6465 9.665
16.6617 9.728
16.6768 9.942
16.6920 9.707
16.7072 9.768
16.7224 9.912
16.7375 10.162
16.7527 9.960
16.7679 9.843
16.7831 10.075
16.7982 9.941
16.8134 9.871
16.8286 9.986
16.8438 9.873
16.8589 9.751
16.8741 9.760
16.8893 9.936
16.9045 10.060
16.9196 10.003
16.9348 9.817
16.9500 9.650
16.9652 9.774
16.9803 9.872
16.9955 9.803
17.0107 9.722
17.0259 9.847
17.0410 10.129
17.0562 10.067
17.0714 10.104
17.0866 10.148
17.1017 10.348
17.1169 10.732
17.1321 11.132
17.1473 11.398
17.1624 11.856
17.1776 12.217
17.1928 12.948
17.2080 13.918
17.2231 15.011
17.2383 16.268
17.2535 17.233
17.2687 18.237
17.2838 18.647
17.2990 18.041
17.3142 17.043
17.3294 16.481
17.3445 16.074
17.3597 15.936
17.3749 16.112
17.3901 15.356
17.4052 14.176
17.4204 13.250
17.4356 12.561
17.4508 12.141
17.4659 11.740
17.4811 11.699
17.4963 11.739
17.5115 11.468
17.5266 11.236
17.5418 11.330
17.5570 11.285
17.5722 11.087
17.5873 11.150
17.6025 11.173
17.6177 11.336
17.6329 11.353
17.6480 11.380
17.6632 11.633
17.6784 11.563
17.6936 11.493
17.7087 11.626
17.7239 11.472
17.7391 11.064
17.7543 11.097
17.7694 11.130
17.7846 10.897
17.7998 10.950
17.8150 10.833
17.8301 10.765
17.8453 10.556
17.8605 10.109
17.8757 10.263
17.8908 10.605
17.9060 10.659
17.9212 10.440
17.9364 10.263
17.9515 10.137
17.9667 10.126
17.9819 10.095
17.9971 9.985
18.0122 10.069
18.0274 10.127
18.0426 10.363
18.0578 10.287
18.0729 10.076
18.0881 10.149
18.1033 10.068
18.1185 10.083
18.1336 10.038
18.1488 9.815
18.1640 9.718
18.1792 9.707
18.1943 9.459
18.2095 9.499
18.2247 9.840
18.2399 9.965
18.2550 9.889
18.2702 9.809
18.2854 9.735
18.3006 9.704
18.3157 9.718
18.3309 9.826
18.3461 9.845
18.3613 9.696
18.3764 9.807
18.3916 9.909
18.4068 9.906
18.4220 9.944
18.4371 9.921
18.4523 9.836
18.4675 9.765
18.4827 9.625
18.4978 9.639
18.5130 9.802
18.5282 9.636
18.5434 9.451
18.5585 9.641
18.5737 9.809
18.5889 9.770
18.6041 9.911
18.6192 9.934
18.6344 9.814
18.6496 9.688
18.6648 9.648
18.6799 9.770
18.6951 9.897
18.7103 9.906
18.7255 9.708
18.7406 9.778
18.7558 9.916
18.7710 9.807
18.7862 9.839
18.8013 9.783
18.8165 9.547
18.8317 9.829
18.8469 9.904
18.8620 9.936
18.8772 9.933
18.8924 9.952
18.9076 9.978
18.9227 10.003
18.9379 10.029
18.9531 10.186
18.9683 10.166
18.9834 10.023
18.9986 10.081
19.0138 10.089
19.0290 10.407
19.0441 10.381
19.0593 10.120
19.0745 9.992
19.0897 10.001
19.1048 10.095
19.1200 10.178
19.1352 10.370
19.1504 10.222
19.1655 10.369
19.1807 10.520
19.1959 10.556
19.2111 10.467
19.2262 10.606
19.2414 10.685
19.2566 10.644
19.2718 10.801
19.2869 10.951
19.3021 10.996
19.3173 11.032
19.3325 10.838
19.3476 10.830
19.3628 11.027
19.3780 11.074
19.3932 11.060
19.4083 11.214
19.4235 11.056
19.4387 10.905
19.4539 11.033
19.4690 11.242
19.4842 11.241
19.4994 11.259
19.5146 11.485
19.5297 11.501
19.5449 11.466
19.5601 11.519
19.5753 11.546
19.5904 11.509
19.6056 11.601
19.6208 11.767
19.6360 11.889
19.6511 11.719
19.6663 11.517
19.6815 11.495
19.6967 11.567
19.7118 11.524
19.7270 11.611
19.7422 11.834
19.7574 11.798
19.7725 11.826
19.7877 11.691
19.8029 11.755
19.8180 12.036
19.8332 12.053
19.8484 11.986
19.8636 12.185
19.8787 12.709
19.8939 13.125
19.9091 13.149
19.9243 13.494
19.9394 13.716
19.9546 13.975
19.9698 14.494
19.9850 14.584
20.0001 14.577
20.0153 14.092
20.0305 13.808
20.0457 13.761
20.0608 13.830
20.0760 14.079
20.0912 13.876
20.1064 13.639
20.1215 13.693
20.1367 13.191
20.1519 12.795
20.1671 12.912
20.1822 13.016
20.1974 12.857
20.2126 12.988
20.2278 12.893
20.2429 12.686
20.2581 12.487
20.2733 12.128
20.2885 11.970
20.3036 12.036
20.3188 11.830
20.3340 12.113
20.3492 12.291
20.3643 11.849
20.3795 11.785
20.3947 11.907
20.4099 11.829
20.4250 12.007
20.4402 11.681
20.4554 11.835
20.4706 12.093
20.4857 11.679
20.5009 11.675
20.5161 11.449
20.5313 11.490
20.5464 11.523
20.5616 11.437
20.5768 11.437
20.5920 11.227
20.6071 10.950
20.6223 10.809
20.6375 10.683
20.6527 10.499
20.6678 10.883
20.6830 10.440
20.6982 10.388
20.7134 10.412
20.7285 10.201
20.7437 10.426
20.7589 10.367
20.7741 10.456
20.7892 10.374
20.8044 10.459
20.8196 10.244
20.8348 10.377
20.8499 10.121
20.8651 10.274
20.8803 10.073
20.8955 9.980
20.9106 10.244
20.9258 10.039
20.9410 9.994
20.9562 9.811
20.9713 10.069
20.9865 9.793
21.0017 10.222
21.0169 10.034
21.0320 9.868
21.0472 9.838
21.0624 9.769
21.0776 10.022
21.0927 9.566
21.1079 9.828
21.1231 9.747
21.1383 9.535
21.1534 9.777
21.1686 9.694
21.1838 9.949
21.1990 9.606
21.2141 9.674
21.2293 9.923
21.2445 9.424
21.2597 9.464
21.2748 9.244
21.2900 9.262
21.3052 9.492
21.3204 9.527
21.3355 9.552
21.3507 9.283
21.3659 9.261
21.3811 9.667
21.3962 9.723
21.4114 9.799
21.4266 9.689
21.4418 9.425
21.4569 9.258
21.4721 9.256
21.4873 9.482
21.5025 9.603
21.5176 9.606
21.5328 9.168
21.5480 9.108
21.5632 9.457
21.5783 9.320
21.5935 9.293
21.6087 9.249
21.6239 9.126
21.6390 8.808
21.6542 9.101
21.6694 8.864
21.6846 9.132
21.6997 9.142
21.7149 9.328
21.7301 9.374
21.7453 9.249
21.7604 8.994
21.7756 8.829
21.7908 8.943
21.8060 8.879
21.8211 9.026
21.8363 9.057
21.8515 9.193
21.8667 9.255
21.8818 9.240
21.8970 9.228
21.9122 9.154
21.9274 9.094
21.9425 8.923
21.9577 8.747
21.9729 8.718
21.9881 8.812
22.0032 8.928
22.0184 8.796
22.0336 8.789
22.0488 8.831
22.0639 8.686
22.0791 8.694
22.0943 8.687
22.1095 8.830
22.1246 8.912
22.1398 8.809
22.1550 8.760
22.1702 8.721
22.1853 8.782
22.2005 8.599
22.2157 8.641
22.2309 8.496
22.2460 8.441
22.2612 8.485
22.2764 8.461
22.2916 8.456
22.3067 8.499
22.3219 8.368
22.3371 8.377
22.3523 8.380
22.3674 8.449
22.3826 8.566
22.3978 8.584
22.4130 8.459
22.4281 8.562
22.4433 8.659
22.4585 8.394
22.4737 8.503
22.4888 8.531
22.5040 8.426
22.5192 8.480
22.5344 8.626
22.5495 8.593
22.5647 8.447
22.5799 8.305
22.5951 8.437
22.6102 8.269
22.6254 8.489
22.6406 8.471
22.6558 8.376
22.6709 8.298
22.6861 8.228
22.7013 8.666
22.7165 7.766
22.7316 6.383
