'Id: "" Comment: "" Operator: "Lab Manager" Anode: "Mo" Scantype: "Still (Eiger2R_500K (1D mode))" TimePerStep: "300" X: "11.8" Y: "9.4" Z: "11.284" 
7.2532 18.679
7.2684 18.677
7.2836 18.651
7.2987 18.859
7.3139 19.180
7.3291 19.386
7.3443 19.716
7.3594 19.270
7.3746 19.596
7.3898 19.786
7.4050 19.625
7.4201 19.736
7.4353 19.587
7.4505 19.591
7.4657 19.920
7.4808 19.560
7.4960 19.439
7.5112 19.648
7.5264 19.859
7.5415 20.028
7.5567 19.624
7.5719 19.973
7.5871 19.991
7.6022 20.066
7.6174 20.350
7.6326 20.460
7.6478 20.475
7.6629 20.193
7.6781 20.092
7.6933 20.186
7.7085 20.262
7.7236 20.400
7.7388 20.398
7.7540 20.388
7.7692 20.467
7.7843 20.527
7.7995 20.603
7.8147 20.520
7.8299 20.447
7.8450 20.714
7.8602 20.735
7.8754 20.785
7.8905 21.114
7.9057 21.200
7.9209 21.022
7.9361 20.820
7.9512 21.057
7.9664 21.077
7.9816 20.843
7.9968 21.209
8.0119 21.225
8.0271 21.455
8.0423 21.692
8.0575 21.506
8.0726 21.349
8.0878 21.289
8.1030 21.542
8.1182 22.025
8.1333 21.402
8.1485 21.496
8.1637 21.684
8.1789 21.771
8.1940 21.700
8.2092 21.602
8.2244 21.613
8.2396 21.867
8.2547 21.429
8.2699 21.572
8.2851 21.485
8.3003 21.782
8.3154 22.012
8.3306 21.746
8.3458 21.563
8.3610 21.720
8.3761 21.759
8.3913 21.803
8.4065 21.576
8.4217 22.274
8.4368 21.837
8.4520 21.311
8.4672 22.193
8.4824 22.367
8.4975 22.058
8.5127 22.168
8.5279 21.899
8.5431 22.001
8.5582 22.177
8.5734 22.404
8.5886 22.534
8.6038 22.188
8.6189 22.625
8.6341 22.308
8.6493 22.255
8.6645 22.153
8.6796 22.270
8.6948 22.490
8.7100 22.678
8.7252 22.201
8.7403 22.018
8.7555 22.255
8.7707 22.147
8.7859 22.354
8.8010 22.216
8.8162 22.629
8.8314 22.461
8.8466 22.049
8.8617 22.627
8.8769 22.666
8.8921 22.557
8.9073 22.779
8.9224 22.603
8.9376 22.863
8.9528 22.872
8.9680 22.622
8.9831 22.964
8.9983 22.971
9.0135 23.285
9.0287 22.881
9.0438 22.647
9.0590 22.569
9.0742 22.889
9.0894 22.924
9.1045 22.501
9.1197 22.575
9.1349 22.404
9.1501 22.650
9.1652 22.877
9.1804 22.934
9.1956 22.862
9.2108 22.797
9.2259 22.977
9.2411 23.184
9.2563 23.122
9.2715 22.704
9.2866 23.211
9.3018 23.360
9.3170 23.294
9.3322 23.301
9.3473 23.182
9.3625 23.127
9.3777 23.365
9.3929 23.179
9.4080 23.278
9.4232 23.229
9.4384 23.296
9.4536 23.245
9.4687 23.086
9.4839 23.010
9.4991 22.676
9.5143 23.072
9.5294 23.556
9.5446 23.572
9.5598 23.208
9.5750 23.032
9.5901 23.108
9.6053 23.175
9.6205 23.431
9.6357 23.627
9.6508 23.938
9.6660 23.876
9.6812 23.529
9.6964 23.352
9.7115 23.863
9.7267 24.267
9.7419 24.256
9.7571 24.152
9.7722 23.944
9.7874 23.873
9.8026 23.895
9.8178 24.099
9.8329 24.053
9.8481 23.702
9.8633 23.800
9.8785 24.057
9.8936 24.117
9.9088 24.105
9.9240 24.305
9.9392 24.409
9.9543 24.277
9.9695 24.031
9.9847 23.722
9.9999 23.956
10.0150 24.126
10.0302 24.138
10.0454 23.707
10.0606 23.181
10.0757 23.273
10.0909 23.702
10.1061 23.678
10.1213 23.465
10.1364 23.724
10.1516 23.580
10.1668 23.845
10.1820 24.259
10.1971 23.733
10.2123 23.446
10.2275 23.506
10.2427 23.537
10.2578 23.713
10.2730 23.658
10.2882 23.568
10.3034 23.700
10.3185 23.438
10.3337 23.425
10.3489 23.342
10.3641 23.293
10.3792 23.197
10.3944 23.241
10.4096 23.318
10.4248 23.144
10.4399 22.527
10.4551 23.024
10.4703 23.076
10.4855 23.035
10.5006 22.629
10.5158 22.617
10.5310 22.584
10.5462 22.511
10.5613 22.641
10.5765 22.688
10.5917 22.634
10.6069 22.540
10.6220 22.553
10.6372 22.573
10.6524 22.630
10.6676 22.675
10.6827 22.468
10.6979 22.418
10.7131 22.324
10.7283 22.576
10.7434 22.758
10.7586 22.540
10.7738 22.311
10.7890 22.526
10.8041 22.433
10.8193 21.983
10.8345 21.620
10.8497 22.266
10.8648 22.508
10.8800 22.324
10.8952 22.534
10.9104 22.321
10.9255 22.246
10.9407 21.624
10.9559 21.687
10.9711 21.540
10.9862 21.887
11.0014 22.099
11.0166 22.087
11.0318 22.276
11.0469 21.765
11.0621 21.848
11.0773 22.177
11.0925 22.047
11.1076 21.772
11.1228 21.872
11.1380 21.659
11.1532 21.323
11.1683 21.342
11.1835 21.505
11.1987 21.635
11.2139 21.848
11.2290 21.760
11.2442 22.053
11.2594 22.064
11.2746 21.544
11.2897 21.349
11.3049 21.323
11.3201 21.202
11.3353 21.350
11.3504 21.180
11.3656 21.282
11.3808 21.549
11.3960 21.245
11.4111 20.871
11.4263 21.024
11.4415 21.236
11.4567 21.231
11.4718 21.227
11.4870 20.863
11.5022 20.829
11.5174 21.089
11.5325 21.151
11.5477 21.107
11.5629 21.245
11.5781 20.701
11.5932 20.945
11.6084 21.020
11.6236 21.111
11.6388 20.717
11.6539 20.521
11.6691 20.688
11.6843 20.633
11.6995 20.920
11.7146 20.688
11.7298 20.328
11.7450 20.286
11.7602 20.244
11.7753 20.232
11.7905 20.307
11.8057 20.106
11.8209 19.915
11.8360 19.977
11.8512 19.757
11.8664 19.878
11.8816 20.033
11.8967 19.528
11.9119 19.593
11.9271 19.491
11.9423 19.373
11.9574 19.171
11.9726 19.518
11.9878 19.047
12.0030 18.845
12.0181 19.021
12.0333 19.210
12.0485 18.693
12.0637 18.892
12.0788 18.687
12.0940 18.603
12.1092 18.674
12.1244 18.644
12.1395 18.556
12.1547 18.617
12.1699 18.416
12.1851 18.226
12.2002 18.058
12.2154 17.960
12.2306 17.830
12.2458 17.732
12.2609 17.710
12.2761 17.412
12.2913 17.465
12.3065 17.804
12.3216 17.403
12.3368 17.335
12.3520 17.266
12.3672 17.403
12.3823 17.240
12.3975 17.220
12.4127 17.258
12.4279 17.151
12.4430 17.098
12.4582 16.907
12.4734 16.785
12.4886 16.907
12.5037 16.550
12.5189 16.399
12.5341 16.367
12.5493 16.378
12.5644 16.255
12.5796 16.158
12.5948 16.359
12.6100 16.421
12.6251 16.313
12.6403 15.980
12.6555 15.551
12.6707 15.600
12.6858 15.525
12.7010 15.453
12.7162 15.354
12.7314 15.516
12.7465 15.354
12.7617 15.169
12.7769 15.134
12.7921 15.190
12.8072 15.153
12.8224 15.117
12.8376 15.048
12.8528 14.881
12.8679 14.779
12.8831 14.900
12.8983 14.713
12.9135 14.517
12.9286 14.583
12.9438 14.264
12.9590 14.168
12.9742 14.394
12.9893 14.552
13.0045 14.616
13.0197 14.309
13.0349 14.019
13.0500 13.788
13.0652 13.748
13.0804 13.869
13.0956 13.787
13.1107 13.780
13.1259 13.616
13.1411 13.502
13.1563 13.860
13.1714 13.847
13.1866 13.557
13.2018 13.453
13.2170 13.335
13.2321 13.280
13.2473 13.262
13.2625 13.187
13.2777 13.176
13.2928 13.236
13.3080 13.242
13.3232 13.231
13.3384 13.063
13.3535 12.922
13.3687 13.010
13.3839 13.082
13.3991 12.794
13.4142 12.734
13.4294 12.949
13.4446 12.838
13.4598 12.649
13.4749 12.613
13.4901 12.553
13.5053 12.700
13.5205 12.873
13.5356 12.748
13.5508 12.432
13.5660 12.455
13.5812 12.272
13.5963 11.771
13.6115 11.985
13.6267 12.343
13.6419 12.207
13.6570 12.146
13.6722 12.124
13.6874 12.111
13.7026 11.807
13.7177 11.934
13.7329 11.947
13.7481 11.626
13.7633 11.794
13.7784 12.004
13.7936 11.873
13.8088 11.981
13.8239 12.016
13.8391 12.170
13.8543 12.416
13.8695 12.003
13.8846 11.620
13.8998 11.826
13.9150 11.952
13.9302 12.051
13.9453 11.773
13.9605 11.662
13.9757 11.494
13.9909 11.383
14.0060 11.583
14.0212 11.533
14.0364 11.499
14.0516 11.385
14.0667 11.007
14.0819 11.191
14.0971 11.548
14.1123 11.308
14.1274 11.370
14.1426 11.433
14.1578 11.328
14.1730 11.447
14.1881 11.121
14.2033 11.451
14.2185 11.368
14.2337 11.091
14.2488 11.252
14.2640 11.442
14.2792 11.351
14.2944 11.392
14.3095 11.432
14.3247 11.724
14.3399 11.655
14.3551 12.063
14.3702 12.400
14.3854 12.656
14.4006 13.063
14.4158 13.136
14.4309 13.417
14.4461 13.416
14.4613 13.445
14.4765 13.419
14.4916 13.270
14.5068 13.201
14.5220 13.272
14.5372 13.327
14.5523 13.002
14.5675 12.939
14.5827 12.789
14.5979 12.318
14.6130 12.090
14.6282 12.469
14.6434 12.337
14.6586 12.026
14.6737 11.793
14.6889 11.546
14.7041 11.286
14.7193 11.373
14.7344 11.471
14.7496 11.396
14.7648 11.694
14.7800 11.246
14.7951 11.596
14.8103 11.639
14.8255 11.122
14.8407 11.150
14.8558 10.922
14.8710 11.232
14.8862 10.802
14.9014 10.745
14.9165 11.039
14.9317 11.086
14.9469 11.004
14.9621 10.879
14.9772 10.401
14.9924 10.476
15.0076 10.739
15.0228 10.532
15.0379 10.650
15.0531 10.471
15.0683 10.603
15.0835 10.350
15.0986 10.448
15.1138 10.544
15.1290 10.851
15.1442 10.353
15.1593 10.774
15.1745 10.621
15.1897 10.490
15.2049 9.992
15.2200 10.602
15.2352 10.161
15.2504 10.415
15.2656 10.351
15.2807 10.571
15.2959 10.091
15.3111 10.522
15.3263 10.322
15.3414 10.429
15.3566 10.301
15.3718 10.592
15.3870 10.545
15.4021 10.477
15.4173 10.373
15.4325 10.611
15.4477 10.623
15.4628 9.997
15.4780 10.166
15.4932 10.607
15.5084 10.450
15.5235 10.322
15.5387 10.222
15.5539 10.386
15.5691 10.137
15.5842 9.960
15.5994 10.044
15.6146 10.209
15.6298 9.940
15.6449 10.103
15.6601 10.426
15.6753 10.086
15.6905 10.128
15.7056 10.359
15.7208 10.049
15.7360 10.053
15.7512 10.192
15.7663 9.969
15.7815 9.702
15.7967 9.605
15.8119 9.933
15.8270 10.043
15.8422 10.077
15.8574 9.877
15.8726 9.850
15.8877 9.808
15.9029 9.798
15.9181 9.673
15.9333 9.789
15.9484 9.581
15.9636 9.578
15.9788 9.444
15.9940 9.797
16.0091 9.777
16.0243 9.766
16.0395 9.786
16.0547 9.984
16.0698 9.825
16.0850 9.800
16.1002 9.746
16.1154 10.004
16.1305 9.834
16.1457 9.955
16.1609 9.790
16.1761 9.691
16.1912 9.563
16.2064 9.500
16.2216 9.645
16.2368 9.656
16.2519 9.839
16.2671 9.779
16.2823 9.842
16.2975 10.203
16.3126 10.391
16.3278 10.338
16.3430 10.094
16.3582 10.243
16.3733 10.174
16.3885 10.161
16.4037 10.205
16.4189 10.271
16.4340 10.177
16.4492 10.088
16.4644 9.816
16.4796 9.916
16.4947 9.874
16.5099 10.095
16.5251 9.638
16.5403 9.675
16.5554 10.006
16.5706 9.989
16.5858 9.867
16.6010 9.751
16.6161 9.558
16.6313 9.810
16.6465 10.095
16.6617 10.280
16.6768 10.074
16.6920 9.893
16.7072 10.088
16.7224 10.021
16.7375 10.309
16.7527 10.364
16.7679 10.013
16.7831 9.907
16.7982 10.152
16.8134 9.920
16.8286 9.982
16.8438 10.101
16.8589 9.911
16.8741 9.773
16.8893 9.706
16.9045 9.793
16.9196 9.660
16.9348 9.699
16.9500 9.824
16.9652 9.802
16.9803 9.693
16.9955 9.778
17.0107 9.790
17.0259 10.049
17.0410 10.152
17.0562 10.227
17.0714 10.579
17.0866 10.587
17.1017 10.555
17.1169 10.718
17.1321 10.993
17.1473 11.386
17.1624 11.909
17.1776 12.481
17.1928 13.216
17.2080 14.024
17.2231 15.036
17.2383 16.357
17.2535 17.631
17.2687 18.632
17.2838 18.820
17.2990 17.967
17.3142 16.796
17.3294 16.282
17.3445 16.272
17.3597 16.156
17.3749 15.680
17.3901 14.990
17.4052 14.054
17.4204 12.935
17.4356 12.379
17.4508 12.115
17.4659 11.644
17.4811 11.273
17.4963 11.093
17.5115 10.997
17.5266 10.769
17.5418 10.580
17.5570 10.385
17.5722 10.151
17.5873 10.310
17.6025 10.361
17.6177 10.120
17.6329 10.035
17.6480 10.141
17.6632 9.976
17.6784 9.951
17.6936 10.242
17.7087 10.366
17.7239 10.477
17.7391 10.600
17.7543 10.741
17.7694 11.019
17.7846 11.302
17.7998 11.486
17.8150 11.855
17.8301 12.133
17.8453 12.459
17.8605 12.849
17.8757 12.855
17.8908 12.572
17.9060 12.475
17.9212 12.392
17.9364 12.269
17.9515 11.882
17.9667 11.441
17.9819 11.513
17.9971 11.417
18.0122 11.226
18.0274 10.964
18.0426 10.788
18.0578 10.616
18.0729 10.527
18.0881 10.366
18.1033 10.236
18.1185 10.043
18.1336 9.850
18.1488 9.959
18.1640 10.143
18.1792 10.049
18.1943 10.159
18.2095 10.161
18.2247 10.065
18.2399 9.999
18.2550 9.988
18.2702 9.908
18.2854 10.021
18.3006 9.949
18.3157 9.738
18.3309 9.833
18.3461 9.920
18.3613 9.848
18.3764 9.796
18.3916 9.837
18.4068 9.956
18.4220 9.968
18.4371 10.177
18.4523 9.945
18.4675 9.864
18.4827 10.279
18.4978 10.196
18.5130 10.071
18.5282 9.920
18.5434 9.991
18.5585 10.063
18.5737 9.853
18.5889 9.784
18.6041 9.879
18.6192 9.835
18.6344 9.961
18.6496 9.927
18.6648 9.622
18.6799 9.700
18.6951 9.883
18.7103 9.825
18.7255 9.811
18.7406 9.946
18.7558 9.848
18.7710 9.889
18.7862 9.773
18.8013 9.776
18.8165 9.657
18.8317 9.830
18.8469 10.042
18.8620 9.817
18.8772 9.981
18.8924 10.014
18.9076 9.900
18.9227 9.830
18.9379 9.868
18.9531 9.800
18.9683 9.980
18.9834 10.006
18.9986 10.020
19.0138 10.150
19.0290 10.279
19.0441 10.384
19.0593 10.107
19.0745 10.113
19.0897 10.452
19.1048 10.192
19.1200 10.186
19.1352 10.435
19.1504 10.650
19.1655 10.716
19.1807 10.769
19.1959 10.905
19.2111 10.803
19.2262 10.800
19.2414 10.919
19.2566 10.870
19.2718 10.763
19.2869 10.899
19.3021 11.119
19.3173 11.147
19.3325 10.971
19.3476 11.169
19.3628 11.312
19.3780 11.241
19.3932 11.364
19.4083 11.172
19.4235 11.165
19.4387 11.237
19.4539 11.316
19.4690 11.317
19.4842 11.110
19.4994 11.304
19.5146 11.600
19.5297 11.672
19.5449 11.568
19.5601 11.429
19.5753 11.600
19.5904 11.734
19.6056 11.655
19.6208 11.600
19.6360 11.555
19.6511 11.549
19.6663 11.525
19.6815 11.465
19.6967 11.580
19.7118 11.714
19.7270 11.783
19.7422 11.707
19.7574 11.644
19.7725 11.685
19.7877 11.808
19.8029 11.735
19.8180 11.696
19.8332 11.822
19.8484 12.157
19.8636 12.347
19.8787 12.274
19.8939 12.643
19.9091 13.061
19.9243 13.264
19.9394 13.732
19.9546 14.181
19.9698 14.479
19.9850 14.592
20.0001 14.485
20.0153 14.361
20.0305 14.307
20.0457 13.937
20.0608 13.540
20.0760 13.636
20.0912 13.618
20.1064 13.329
20.1215 13.075
20.1367 13.100
20.1519 12.780
20.1671 12.645
20.1822 12.950
20.1974 12.777
20.2126 12.360
20.2278 12.441
20.2429 12.389
20.2581 12.308
20.2733 11.817
20.2885 11.499
20.3036 11.599
20.3188 11.664
20.3340 11.467
20.3492 11.374
20.3643 11.486
20.3795 11.399
20.3947 11.081
20.4099 11.097
20.4250 11.086
20.4402 11.181
20.4554 11.031
20.4706 10.776
20.4857 10.763
20.5009 11.016
20.5161 11.062
20.5313 10.940
20.5464 10.800
20.5616 10.836
20.5768 10.811
20.5920 10.868
20.6071 10.866
20.6223 10.754
20.6375 10.714
20.6527 10.766
20.6678 10.551
20.6830 10.750
20.6982 10.910
20.7134 10.724
20.7285 10.858
20.7437 10.894
20.7589 10.627
20.7741 10.465
20.7892 10.784
20.8044 10.592
20.8196 10.550
20.8348 10.613
20.8499 10.235
20.8651 10.514
20.8803 10.431
20.8955 10.328
20.9106 10.458
20.9258 10.561
20.9410 10.684
20.9562 10.752
20.9713 10.648
20.9865 10.983
21.0017 10.648
21.0169 10.744
21.0320 10.600
21.0472 10.453
21.0624 10.961
21.0776 10.507
21.0927 10.520
21.1079 10.359
21.1231 10.538
21.1383 10.117
21.1534 10.256
21.1686 10.534
21.1838 10.095
21.1990 9.830
21.2141 9.915
21.2293 9.914
21.2445 9.570
21.2597 9.581
21.2748 9.692
21.2900 9.431
21.3052 9.551
21.3204 9.673
21.3355 9.641
21.3507 9.570
21.3659 9.228
21.3811 9.238
21.3962 9.958
21.4114 9.465
21.4266 9.369
21.4418 9.449
21.4569 9.265
21.4721 9.393
21.4873 9.416
21.5025 9.393
21.5176 9.147
21.5328 9.067
21.5480 8.923
21.5632 9.128
21.5783 9.229
21.5935 9.105
21.6087 9.192
21.6239 9.289
21.6390 9.242
21.6542 9.063
21.6694 8.998
21.6846 8.958
21.6997 9.145
21.7149 9.228
21.7301 9.050
21.7453 9.050
21.7604 9.003
21.7756 8.969
21.7908 8.901
21.8060 8.982
21.8211 8.939
21.8363 8.833
21.8515 9.001
21.8667 8.964
21.8818 8.963
21.8970 9.140
21.9122 9.317
21.9274 8.960
21.9425 8.770
21.9577 8.938
21.9729 8.985
21.9881 8.776
22.0032 8.825
22.0184 8.859
22.0336 8.644
22.0488 8.589
22.0639 8.611
22.0791 8.608
22.0943 8.632
22.1095 8.545
22.1246 8.683
22.1398 8.688
22.1550 8.599
22.1702 8.605
22.1853 8.567
22.2005 8.791
22.2157 8.558
22.2309 8.590
22.2460 8.599
22.2612 8.608
22.2764 8.591
22.2916 8.440
22.3067 8.421
22.3219 8.383
22.3371 8.642
22.3523 8.649
22.3674 8.655
22.3826 8.793
22.3978 8.779
22.4130 8.458
22.4281 8.407
22.4433 8.345
22.4585 8.262
22.4737 8.383
22.4888 8.411
22.5040 8.333
22.5192 8.275
22.5344 8.423
22.5495 8.812
22.5647 8.500
22.5799 8.678
22.5951 8.411
22.6102 8.681
22.6254 8.555
22.6406 8.391
22.6558 8.690
22.6709 8.760
22.6861 7.900
22.7013 7.991
22.7165 7.888
22.7316 6.254
