'Id: "" Comment: "" Operator: "Lab Manager" Anode: "Mo" Scantype: "Still (Eiger2R_500K (1D mode))" TimePerStep: "300" X: "11.8" Y: "9.4" Z: "11.284" 
7.2532 18.882
7.2684 18.823
7.2836 19.174
7.2987 18.823
7.3139 19.078
7.3291 19.170
7.3443 19.523
7.3594 18.969
7.3746 19.292
7.3898 19.118
7.4050 19.170
7.4201 19.598
7.4353 19.483
7.4505 20.064
7.4657 19.921
7.4808 19.792
7.4960 19.943
7.5112 19.752
7.5264 19.491
7.5415 19.616
7.5567 19.823
7.5719 19.665
7.5871 19.718
7.6022 20.343
7.6174 20.344
7.6326 20.145
7.6478 20.166
7.6629 19.967
7.6781 20.187
7.6933 20.228
7.7085 20.681
7.7236 20.572
7.7388 20.592
7.7540 20.735
7.7692 20.811
7.7843 20.677
7.7995 20.777
7.8147 21.202
7.8299 21.033
7.8450 20.633
7.8602 20.801
7.8754 21.111
7.8905 20.944
7.9057 21.076
7.9209 21.488
7.9361 21.526
7.9512 21.260
7.9664 21.097
7.9816 21.254
7.9968 21.161
8.0119 21.166
8.0271 21.593
8.0423 21.228
8.0575 20.942
8.0726 21.172
8.0878 21.057
8.1030 21.266
8.1182 21.456
8.1333 21.447
8.1485 21.912
8.1637 21.793
8.1789 21.880
8.1940 21.566
8.2092 21.833
8.2244 21.877
8.2396 21.581
8.2547 21.675
8.2699 21.660
8.2851 22.004
8.3003 21.681
8.3154 21.988
8.3306 21.757
8.3458 22.081
8.3610 21.907
8.3761 21.771
8.3913 21.865
8.4065 21.709
8.4217 21.927
8.4368 21.836
8.4520 22.291
8.4672 22.192
8.4824 22.427
8.4975 22.100
8.5127 22.020
8.5279 22.219
8.5431 22.190
8.5582 22.032
8.5734 22.570
8.5886 22.196
8.6038 22.620
8.6189 22.246
8.6341 22.248
8.6493 22.561
8.6645 22.567
8.6796 22.545
8.6948 22.690
8.7100 22.386
8.7252 23.012
8.7403 22.950
8.7555 22.612
8.7707 22.933
8.7859 22.563
8.8010 22.988
8.8162 22.890
8.8314 22.616
8.8466 22.513
8.8617 22.483
8.8769 22.307
8.8921 22.477
8.9073 22.518
8.9224 22.887
8.9376 22.627
8.9528 22.194
8.9680 22.602
8.9831 22.711
8.9983 22.611
9.0135 22.674
9.0287 22.915
9.0438 23.131
9.0590 23.006
9.0742 22.911
9.0894 23.127
9.1045 23.052
9.1197 23.215
9.1349 23.350
9.1501 23.141
9.1652 22.881
9.1804 23.127
9.1956 23.142
9.2108 23.078
9.2259 22.853
9.2411 23.175
9.2563 23.391
9.2715 23.161
9.2866 22.973
9.3018 23.085
9.3170 23.103
9.3322 23.273
9.3473 23.058
9.3625 23.171
9.3777 23.421
9.3929 23.122
9.4080 23.289
9.4232 23.048
9.4384 22.948
9.4536 23.400
9.4687 23.431
9.4839 23.433
9.4991 23.362
9.5143 23.266
9.5294 23.299
9.5446 23.445
9.5598 23.485
9.5750 23.284
9.5901 23.116
9.6053 23.417
9.6205 23.631
9.6357 23.536
9.6508 23.659
9.6660 23.702
9.6812 23.493
9.6964 23.619
9.7115 23.782
9.7267 24.136
9.7419 24.327
9.7571 24.101
9.7722 23.950
9.7874 24.190
9.8026 24.006
9.8178 24.025
9.8329 24.155
9.8481 23.629
9.8633 23.727
9.8785 23.800
9.8936 23.321
9.9088 23.153
9.9240 23.537
9.9392 23.319
9.9543 23.232
9.9695 23.807
9.9847 23.892
9.9999 23.806
10.0150 23.715
10.0302 23.569
10.0454 23.567
10.0606 23.554
10.0757 23.701
10.0909 23.857
10.1061 23.476
10.1213 23.045
10.1364 23.582
10.1516 23.865
10.1668 23.707
10.1820 23.537
10.1971 23.816
10.2123 23.693
10.2275 23.683
10.2427 24.009
10.2578 24.040
10.2730 23.985
10.2882 23.556
10.3034 23.292
10.3185 23.414
10.3337 23.125
10.3489 23.171
10.3641 23.326
10.3792 23.191
10.3944 23.286
10.4096 23.178
10.4248 23.211
10.4399 23.063
10.4551 22.929
10.4703 23.032
10.4855 22.946
10.5006 22.704
10.5158 22.719
10.5310 23.047
10.5462 22.704
10.5613 22.751
10.5765 23.102
10.5917 23.005
10.6069 22.593
10.6220 22.999
10.6372 22.866
10.6524 22.566
10.6676 22.714
10.6827 22.410
10.6979 22.516
10.7131 22.691
10.7283 22.880
10.7434 22.740
10.7586 22.145
10.7738 22.263
10.7890 22.513
10.8041 22.572
10.8193 22.686
10.8345 22.426
10.8497 22.281
10.8648 22.177
10.8800 22.247
10.8952 22.172
10.9104 22.203
10.9255 21.834
10.9407 22.208
10.9559 22.373
10.9711 22.605
10.9862 22.571
11.0014 22.246
11.0166 22.197
11.0318 22.269
11.0469 22.115
11.0621 22.227
11.0773 22.073
11.0925 22.142
11.1076 22.167
11.1228 22.192
11.1380 22.037
11.1532 21.820
11.1683 22.031
11.1835 21.674
11.1987 21.718
11.2139 21.871
11.2290 21.787
11.2442 22.092
11.2594 21.877
11.2746 22.103
11.2897 22.112
11.3049 21.966
11.3201 21.742
11.3353 21.531
11.3504 21.513
11.3656 21.775
11.3808 21.462
11.3960 21.337
11.4111 21.339
11.4263 21.586
11.4415 21.690
11.4567 21.465
11.4718 21.429
11.4870 21.656
11.5022 21.521
11.5174 21.106
11.5325 20.907
11.5477 20.943
11.5629 20.980
11.5781 20.852
11.5932 20.901
11.6084 21.331
11.6236 20.855
11.6388 20.643
11.6539 20.756
11.6691 20.648
11.6843 20.695
11.6995 20.894
11.7146 20.576
11.7298 20.303
11.7450 20.181
11.7602 19.950
11.7753 20.361
11.7905 20.081
11.8057 20.036
11.8209 19.860
11.8360 19.796
11.8512 19.827
11.8664 19.848
11.8816 20.309
11.8967 20.338
11.9119 19.817
11.9271 19.741
11.9423 19.655
11.9574 19.532
11.9726 19.444
11.9878 19.393
12.0030 19.285
12.0181 19.186
12.0333 19.199
12.0485 19.151
12.0637 19.332
12.0788 19.127
12.0940 18.730
12.1092 18.973
12.1244 18.719
12.1395 18.689
12.1547 18.487
12.1699 18.256
12.1851 18.262
12.2002 18.174
12.2154 18.267
12.2306 18.072
12.2458 17.962
12.2609 18.186
12.2761 17.816
12.2913 17.794
12.3065 17.818
12.3216 17.901
12.3368 17.804
12.3520 17.566
12.3672 17.621
12.3823 17.436
12.3975 17.381
12.4127 17.475
12.4279 17.347
12.4430 17.361
12.4582 17.383
12.4734 17.386
12.4886 17.111
12.5037 17.077
12.5189 17.032
12.5341 17.159
12.5493 16.986
12.5644 16.723
12.5796 16.341
12.5948 16.330
12.6100 16.337
12.6251 16.295
12.6403 16.030
12.6555 15.830
12.6707 15.722
12.6858 15.834
12.7010 15.736
12.7162 15.525
12.7314 15.318
12.7465 15.638
12.7617 15.796
12.7769 15.587
12.7921 15.437
12.8072 15.310
12.8224 15.149
12.8376 15.163
12.8528 15.283
12.8679 15.250
12.8831 14.964
12.8983 14.872
12.9135 15.017
12.9286 14.753
12.9438 14.559
12.9590 14.843
12.9742 14.520
12.9893 14.411
13.0045 14.513
13.0197 14.398
13.0349 14.505
13.0500 14.198
13.0652 13.956
13.0804 14.017
13.0956 14.055
13.1107 13.704
13.1259 13.544
13.1411 13.798
13.1563 13.689
13.1714 13.750
13.1866 13.804
13.2018 13.571
13.2170 13.332
13.2321 13.293
13.2473 13.617
13.2625 13.609
13.2777 13.442
13.2928 13.334
13.3080 13.048
13.3232 13.178
13.3384 13.400
13.3535 13.200
13.3687 13.062
13.3839 13.152
13.3991 13.213
13.4142 13.116
13.4294 12.733
13.4446 12.552
13.4598 12.695
13.4749 12.793
13.4901 12.831
13.5053 12.678
13.5205 12.506
13.5356 12.421
13.5508 12.418
13.5660 12.518
13.5812 12.375
13.5963 12.298
13.6115 12.157
13.6267 12.257
13.6419 12.094
13.6570 12.083
13.6722 12.241
13.6874 12.077
13.7026 12.121
13.7177 12.157
13.7329 12.271
13.7481 12.285
13.7633 12.171
13.7784 11.989
13.7936 12.044
13.8088 12.126
13.8239 12.207
13.8391 12.349
13.8543 12.039
13.8695 12.121
13.8846 12.408
13.8998 12.375
13.9150 12.251
13.9302 12.310
13.9453 11.986
13.9605 11.858
13.9757 11.440
13.9909 11.598
14.0060 11.579
14.0212 11.581
14.0364 11.568
14.0516 11.556
14.0667 11.432
14.0819 11.628
14.0971 11.578
14.1123 11.523
14.1274 11.550
14.1426 11.358
14.1578 11.597
14.1730 11.525
14.1881 11.538
14.2033 11.672
14.2185 11.893
14.2337 11.967
14.2488 11.838
14.2640 11.853
14.2792 11.935
14.2944 12.092
14.3095 12.372
14.3247 12.552
14.3399 12.661
14.3551 12.764
14.3702 12.988
14.3854 13.267
14.4006 13.032
14.4158 12.910
14.4309 12.797
14.4461 12.523
14.4613 12.728
14.4765 12.696
14.4916 12.272
14.5068 12.049
14.5220 11.691
14.5372 11.448
14.5523 11.503
14.5675 11.457
14.5827 11.508
14.5979 11.364
14.6130 10.969
14.6282 11.123
14.6434 11.050
14.6586 11.201
14.6737 10.859
14.6889 10.956
14.7041 10.875
14.7193 10.879
14.7344 11.232
14.7496 11.022
14.7648 10.819
14.7800 10.728
14.7951 10.632
14.8103 10.973
14.8255 10.626
14.8407 10.614
14.8558 10.676
14.8710 10.932
14.8862 10.504
14.9014 10.828
14.9165 10.804
14.9317 11.019
14.9469 10.956
14.9621 10.432
14.9772 10.185
14.9924 10.393
15.0076 10.473
15.0228 10.735
15.0379 10.902
15.0531 10.533
15.0683 10.434
15.0835 10.548
15.0986 10.340
15.1138 10.569
15.1290 10.625
15.1442 10.824
15.1593 10.613
15.1745 10.791
15.1897 10.527
15.2049 10.615
15.2200 10.387
15.2352 10.215
15.2504 10.348
15.2656 10.395
15.2807 10.417
15.2959 10.259
15.3111 10.300
15.3263 10.242
15.3414 10.205
15.3566 10.496
15.3718 10.084
15.3870 10.460
15.4021 10.534
15.4173 10.512
15.4325 10.508
15.4477 10.695
15.4628 10.462
15.4780 10.508
15.4932 10.540
15.5084 10.759
15.5235 10.625
15.5387 10.528
15.5539 10.441
15.5691 10.164
15.5842 10.446
15.5994 10.331
15.6146 10.085
15.6298 9.963
15.6449 10.235
15.6601 9.967
15.6753 9.982
15.6905 9.759
15.7056 9.740
15.7208 9.770
15.7360 10.057
15.7512 10.016
15.7663 9.864
15.7815 9.886
15.7967 9.771
15.8119 10.074
15.8270 9.923
15.8422 9.818
15.8574 9.975
15.8726 9.800
15.8877 9.726
15.9029 9.543
15.9181 9.712
15.9333 9.699
15.9484 9.926
15.9636 10.048
15.9788 9.971
15.9940 9.749
16.0091 9.777
16.0243 9.665
16.0395 9.899
16.0547 9.795
16.0698 9.879
16.0850 9.874
16.1002 9.661
16.1154 9.650
16.1305 9.798
16.1457 9.707
16.1609 9.856
16.1761 10.033
16.1912 9.972
16.2064 9.792
16.2216 9.743
16.2368 10.049
16.2519 9.932
16.2671 9.760
16.2823 9.797
16.2975 9.912
16.3126 10.111
16.3278 10.043
16.3430 9.872
16.3582 9.607
16.3733 9.978
16.3885 10.067
16.4037 10.039
16.4189 10.127
16.4340 9.883
16.4492 10.028
16.4644 9.956
16.4796 10.064
16.4947 9.747
16.5099 9.549
16.5251 9.778
16.5403 9.893
16.5554 9.784
16.5706 9.934
16.5858 9.784
16.6010 9.752
16.6161 10.027
16.6313 9.746
16.6465 9.627
16.6617 9.764
16.6768 9.665
16.6920 9.809
16.7072 10.155
16.7224 10.085
16.7375 9.933
16.7527 10.079
16.7679 9.944
16.7831 9.686
16.7982 9.764
16.8134 10.137
16.8286 10.150
16.8438 9.818
16.8589 9.669
16.8741 9.828
16.8893 9.999
16.9045 9.885
16.9196 9.743
16.9348 9.638
16.9500 9.706
16.9652 9.891
16.9803 9.874
16.9955 9.875
17.0107 9.942
17.0259 9.946
17.0410 10.152
17.0562 10.178
17.0714 10.254
17.0866 10.301
17.1017 10.437
17.1169 10.799
17.1321 10.904
17.1473 11.143
17.1624 11.697
17.1776 12.389
17.1928 13.138
17.2080 13.827
17.2231 15.090
17.2383 16.644
17.2535 17.702
17.2687 18.552
17.2838 18.816
17.2990 18.048
17.3142 16.793
17.3294 16.066
17.3445 15.887
17.3597 15.978
17.3749 15.832
17.3901 15.217
17.4052 14.230
17.4204 13.305
17.4356 12.620
17.4508 11.931
17.4659 11.583
17.4811 11.637
17.4963 11.763
17.5115 11.667
17.5266 11.492
17.5418 11.353
17.5570 11.381
17.5722 11.453
17.5873 11.650
17.6025 11.734
17.6177 11.572
17.6329 11.368
17.6480 11.214
17.6632 11.135
17.6784 11.123
17.6936 11.131
17.7087 10.996
17.7239 10.621
17.7391 10.582
17.7543 10.659
17.7694 10.598
17.7846 10.547
17.7998 10.505
17.8150 10.521
17.8301 10.250
17.8453 10.102
17.8605 10.398
17.8757 10.572
17.8908 10.604
17.9060 10.661
17.9212 10.489
17.9364 10.440
17.9515 10.226
17.9667 10.366
17.9819 10.516
17.9971 10.304
18.0122 10.365
18.0274 10.491
18.0426 10.367
18.0578 10.234
18.0729 10.172
18.0881 10.168
18.1033 10.084
18.1185 10.101
18.1336 9.876
18.1488 9.853
18.1640 10.098
18.1792 10.012
18.1943 10.035
18.2095 9.900
18.2247 9.791
18.2399 9.892
18.2550 9.845
18.2702 9.745
18.2854 9.752
18.3006 9.967
18.3157 10.139
18.3309 9.945
18.3461 9.785
18.3613 9.688
18.3764 9.516
18.3916 9.668
18.4068 9.722
18.4220 9.968
18.4371 10.013
18.4523 9.910
18.4675 9.832
18.4827 9.840
18.4978 9.872
18.5130 9.583
18.5282 9.519
18.5434 9.657
18.5585 9.776
18.5737 9.778
18.5889 9.694
18.6041 9.795
18.6192 9.834
18.6344 9.558
18.6496 9.597
18.6648 9.769
18.6799 9.700
18.6951 9.728
18.7103 9.833
18.7255 9.811
18.7406 9.730
18.7558 9.765
18.7710 9.597
18.7862 9.584
18.8013 9.550
18.8165 9.510
18.8317 9.882
18.8469 9.992
18.8620 10.018
18.8772 10.022
18.8924 9.925
18.9076 9.839
18.9227 9.970
18.9379 9.924
18.9531 9.807
18.9683 9.842
18.9834 10.144
18.9986 10.222
19.0138 10.075
19.0290 10.169
19.0441 10.217
19.0593 10.162
19.0745 10.410
19.0897 10.281
19.1048 10.421
19.1200 10.551
19.1352 10.338
19.1504 10.248
19.1655 10.277
19.1807 10.335
19.1959 10.631
19.2111 10.794
19.2262 10.925
19.2414 10.861
19.2566 10.865
19.2718 11.000
19.2869 11.062
19.3021 10.933
19.3173 10.741
19.3325 10.836
19.3476 10.887
19.3628 11.057
19.3780 11.134
19.3932 11.154
19.4083 11.333
19.4235 11.318
19.4387 11.406
19.4539 11.439
19.4690 11.227
19.4842 11.273
19.4994 11.523
19.5146 11.565
19.5297 11.528
19.5449 11.512
19.5601 11.399
19.5753 11.504
19.5904 11.543
19.6056 11.493
19.6208 11.497
19.6360 11.703
19.6511 11.814
19.6663 11.590
19.6815 11.617
19.6967 11.701
19.7118 11.684
19.7270 11.947
19.7422 12.061
19.7574 11.888
19.7725 11.787
19.7877 11.744
19.8029 11.792
19.8180 11.983
19.8332 12.211
19.8484 12.236
19.8636 12.304
19.8787 12.474
19.8939 12.591
19.9091 12.964
19.9243 13.377
19.9394 13.615
19.9546 13.752
19.9698 14.170
19.9850 14.458
20.0001 14.217
20.0153 14.200
20.0305 14.049
20.0457 13.888
20.0608 13.810
20.0760 13.589
20.0912 13.618
20.1064 13.818
20.1215 13.753
20.1367 13.412
20.1519 13.350
20.1671 13.170
20.1822 12.958
20.1974 12.958
20.2126 13.237
20.2278 13.145
20.2429 12.784
20.2581 12.570
20.2733 12.414
20.2885 12.060
20.3036 11.757
20.3188 11.780
20.3340 11.851
20.3492 11.847
20.3643 11.830
20.3795 11.247
20.3947 11.209
20.4099 11.056
20.4250 10.705
20.4402 10.951
20.4554 11.170
20.4706 10.899
20.4857 10.766
20.5009 10.690
20.5161 10.736
20.5313 10.955
20.5464 10.722
20.5616 10.414
20.5768 10.388
20.5920 10.745
20.6071 10.563
20.6223 10.987
20.6375 10.755
20.6527 10.739
20.6678 10.743
20.6830 10.512
20.6982 10.726
20.7134 10.580
20.7285 10.578
20.7437 10.619
20.7589 10.494
20.7741 10.225
20.7892 10.658
20.8044 10.307
20.8196 10.573
20.8348 10.528
20.8499 10.192
20.8651 10.234
20.8803 10.339
20.8955 10.292
20.9106 10.343
20.9258 10.002
20.9410 10.340
20.9562 10.161
20.9713 10.172
20.9865 10.128
21.0017 10.150
21.0169 10.320
21.0320 10.049
21.0472 9.759
21.0624 10.014
21.0776 9.853
21.0927 9.953
21.1079 9.903
21.1231 9.986
21.1383 9.849
21.1534 10.105
21.1686 9.972
21.1838 10.083
21.1990 9.753
21.2141 9.838
21.2293 9.734
21.2445 9.518
21.2597 9.727
21.2748 9.601
21.2900 9.692
21.3052 9.662
21.3204 9.539
21.3355 9.293
21.3507 9.322
21.3659 9.578
21.3811 9.502
21.3962 9.554
21.4114 9.737
21.4266 9.597
21.4418 9.565
21.4569 9.643
21.4721 9.315
21.4873 9.214
21.5025 9.456
21.5176 9.763
21.5328 9.540
21.5480 9.412
21.5632 9.167
21.5783 9.143
21.5935 9.328
21.6087 9.123
21.6239 9.433
21.6390 9.375
21.6542 9.134
21.6694 9.009
21.6846 8.937
21.6997 9.054
21.7149 9.053
21.7301 8.970
21.7453 9.130
21.7604 9.074
21.7756 9.018
21.7908 8.988
21.8060 8.978
21.8211 9.013
21.8363 9.038
21.8515 9.138
21.8667 8.839
21.8818 8.858
21.8970 8.969
21.9122 8.944
21.9274 8.750
21.9425 8.618
21.9577 8.652
21.9729 8.780
21.9881 8.910
22.0032 8.954
22.0184 9.090
22.0336 9.029
22.0488 8.935
22.0639 8.850
22.0791 8.898
22.0943 8.860
22.1095 8.732
22.1246 8.660
22.1398 8.565
22.1550 8.552
22.1702 8.626
22.1853 8.736
22.2005 8.778
22.2157 8.731
22.2309 8.735
22.2460 8.676
22.2612 8.658
22.2764 8.778
22.2916 8.780
22.3067 8.349
22.3219 8.515
22.3371 8.598
22.3523 8.463
22.3674 8.635
22.3826 8.344
22.3978 8.533
22.4130 8.495
22.4281 8.615
22.4433 8.315
22.4585 8.202
22.4737 8.680
22.4888 8.253
22.5040 8.580
22.5192 8.589
22.5344 8.538
22.5495 8.518
22.5647 8.637
22.5799 8.450
22.5951 8.436
22.6102 8.541
22.6254 8.662
22.6406 8.341
22.6558 8.498
22.6709 8.186
22.6861 8.562
22.7013 8.369
22.7165 8.122
22.7316 6.393
