'Id: "" Comment: "" Operator: "Lab Manager" Anode: "Mo" Scantype: "Still (Eiger2R_500K (1D mode))" TimePerStep: "300" X: "11.8" Y: "9.4" Z: "11.284" 
7.2532 19.129
7.2684 19.198
7.2836 18.995
7.2987 18.989
7.3139 19.123
7.3291 19.220
7.3443 19.523
7.3594 19.531
7.3746 19.480
7.3898 19.507
7.4050 19.675
7.4201 19.327
7.4353 19.503
7.4505 19.794
7.4657 19.524
7.4808 19.599
7.4960 19.490
7.5112 19.722
7.5264 19.714
7.5415 19.801
7.5567 19.235
7.5719 19.442
7.5871 20.001
7.6022 20.001
7.6174 19.971
7.6326 19.921
7.6478 20.138
7.6629 20.089
7.6781 20.368
7.6933 20.438
7.7085 20.754
7.7236 20.627
7.7388 20.456
7.7540 20.225
7.7692 20.326
7.7843 20.811
7.7995 20.668
7.8147 20.415
7.8299 20.700
7.8450 20.768
7.8602 20.635
7.8754 20.635
7.8905 20.886
7.9057 20.811
7.9209 20.605
7.9361 21.077
7.9512 21.081
7.9664 20.909
7.9816 21.086
7.9968 21.306
8.0119 21.355
8.0271 21.263
8.0423 21.118
8.0575 21.038
8.0726 20.883
8.0878 20.921
8.1030 21.251
8.1182 21.338
8.1333 21.698
8.1485 21.993
8.1637 21.836
8.1789 21.334
8.1940 21.938
8.2092 21.727
8.2244 21.682
8.2396 21.567
8.2547 21.568
8.2699 21.926
8.2851 22.105
8.3003 21.904
8.3154 21.528
8.3306 21.349
8.3458 21.275
8.3610 21.425
8.3761 21.535
8.3913 21.635
8.4065 21.940
8.4217 22.100
8.4368 21.903
8.4520 22.511
8.4672 22.378
8.4824 22.271
8.4975 22.575
8.5127 22.156
8.5279 22.359
8.5431 22.171
8.5582 22.254
8.5734 22.022
8.5886 22.560
8.6038 21.774
8.6189 22.687
8.6341 22.525
8.6493 21.796
8.6645 21.926
8.6796 22.446
8.6948 22.630
8.7100 22.488
8.7252 22.369
8.7403 22.743
8.7555 23.144
8.7707 22.236
8.7859 22.316
8.8010 22.484
8.8162 22.295
8.8314 22.472
8.8466 22.499
8.8617 22.613
8.8769 22.223
8.8921 22.655
8.9073 22.843
8.9224 22.641
8.9376 22.512
8.9528 22.755
8.9680 22.835
8.9831 22.704
8.9983 22.696
9.0135 22.337
9.0287 22.692
9.0438 22.598
9.0590 22.925
9.0742 22.678
9.0894 23.049
9.1045 22.875
9.1197 22.634
9.1349 22.908
9.1501 23.000
9.1652 22.803
9.1804 23.477
9.1956 23.124
9.2108 22.578
9.2259 22.812
9.2411 23.027
9.2563 23.013
9.2715 23.169
9.2866 23.363
9.3018 23.366
9.3170 23.053
9.3322 22.956
9.3473 23.502
9.3625 23.213
9.3777 22.746
9.3929 22.968
9.4080 23.246
9.4232 23.243
9.4384 23.030
9.4536 22.751
9.4687 22.887
9.4839 22.960
9.4991 23.117
9.5143 23.520
9.5294 23.534
9.5446 23.506
9.5598 23.534
9.5750 23.217
9.5901 23.030
9.6053 23.045
9.6205 23.466
9.6357 23.708
9.6508 23.589
9.6660 23.704
9.6812 23.955
9.6964 23.820
9.7115 23.558
9.7267 23.839
9.7419 24.199
9.7571 24.111
9.7722 24.053
9.7874 24.019
9.8026 24.042
9.8178 23.910
9.8329 23.516
9.8481 23.704
9.8633 23.612
9.8785 23.534
9.8936 23.448
9.9088 23.549
9.9240 23.758
9.9392 23.741
9.9543 23.737
9.9695 23.529
9.9847 23.443
9.9999 23.490
10.0150 23.030
10.0302 23.051
10.0454 23.135
10.0606 23.012
10.0757 23.137
10.0909 23.126
10.1061 23.203
10.1213 23.377
10.1364 23.477
10.1516 23.233
10.1668 23.086
10.1820 23.293
10.1971 23.300
10.2123 23.235
10.2275 23.061
10.2427 22.928
10.2578 23.320
10.2730 23.558
10.2882 23.304
10.3034 23.329
10.3185 23.047
10.3337 22.928
10.3489 22.852
10.3641 22.839
10.3792 22.869
10.3944 22.979
10.4096 22.741
10.4248 22.759
10.4399 22.979
10.4551 23.280
10.4703 23.084
10.4855 22.859
10.5006 23.145
10.5158 23.248
10.5310 22.644
10.5462 22.418
10.5613 22.843
10.5765 22.902
10.5917 22.883
10.6069 22.784
10.6220 22.523
10.6372 22.472
10.6524 22.342
10.6676 22.195
10.6827 22.189
10.6979 22.693
10.7131 22.955
10.7283 22.801
10.7434 22.420
10.7586 22.255
10.7738 22.645
10.7890 22.415
10.8041 22.264
10.8193 22.569
10.8345 22.374
10.8497 22.371
10.8648 22.353
10.8800 22.292
10.8952 22.363
10.9104 22.367
10.9255 22.264
10.9407 22.238
10.9559 21.974
10.9711 21.910
10.9862 22.050
11.0014 22.099
11.0166 22.285
11.0318 22.176
11.0469 21.811
11.0621 21.747
11.0773 22.070
11.0925 21.981
11.1076 22.080
11.1228 22.125
11.1380 21.786
11.1532 21.790
11.1683 21.994
11.1835 21.817
11.1987 21.748
11.2139 22.073
11.2290 21.653
11.2442 21.466
11.2594 21.789
11.2746 21.997
11.2897 21.906
11.3049 21.668
11.3201 21.611
11.3353 21.732
11.3504 21.356
11.3656 21.609
11.3808 21.201
11.3960 21.273
11.4111 21.429
11.4263 21.053
11.4415 21.198
11.4567 21.548
11.4718 21.456
11.4870 21.310
11.5022 21.282
11.5174 20.968
11.5325 21.023
11.5477 21.174
11.5629 21.221
11.5781 21.004
11.5932 21.297
11.6084 21.317
11.6236 21.052
11.6388 20.939
11.6539 20.945
11.6691 20.586
11.6843 20.673
11.6995 20.909
11.7146 20.834
11.7298 20.475
11.7450 20.260
11.7602 20.319
11.7753 20.378
11.7905 20.157
11.8057 20.233
11.8209 20.133
11.8360 20.061
11.8512 20.095
11.8664 20.050
11.8816 19.809
11.8967 19.679
11.9119 19.946
11.9271 19.890
11.9423 19.531
11.9574 19.506
11.9726 19.686
11.9878 19.322
12.0030 19.227
12.0181 19.000
12.0333 18.972
12.0485 18.853
12.0637 19.192
12.0788 19.455
12.0940 19.033
12.1092 18.893
12.1244 18.932
12.1395 18.818
12.1547 18.824
12.1699 18.528
12.1851 18.375
12.2002 18.340
12.2154 18.190
12.2306 17.976
12.2458 18.160
12.2609 18.188
12.2761 17.748
12.2913 17.436
12.3065 17.683
12.3216 17.703
12.3368 17.806
12.3520 17.704
12.3672 17.449
12.3823 17.417
12.3975 17.197
12.4127 17.231
12.4279 17.238
12.4430 16.943
12.4582 16.898
12.4734 16.962
12.4886 16.563
12.5037 16.733
12.5189 16.982
12.5341 17.045
12.5493 16.537
12.5644 16.297
12.5796 16.145
12.5948 16.262
12.6100 16.371
12.6251 16.002
12.6403 16.056
12.6555 16.087
12.6707 16.160
12.6858 15.958
12.7010 15.763
12.7162 15.893
12.7314 15.673
12.7465 15.275
12.7617 15.378
12.7769 15.382
12.7921 15.162
12.8072 15.104
12.8224 15.172
12.8376 15.347
12.8528 15.215
12.8679 14.807
12.8831 15.079
12.8983 14.987
12.9135 14.633
12.9286 14.579
12.9438 14.716
12.9590 14.761
12.9742 14.501
12.9893 14.364
13.0045 14.328
13.0197 14.371
13.0349 14.297
13.0500 14.215
13.0652 13.947
13.0804 13.966
13.0956 14.046
13.1107 13.968
13.1259 13.827
13.1411 13.661
13.1563 13.520
13.1714 13.556
13.1866 13.636
13.2018 13.512
13.2170 13.640
13.2321 13.502
13.2473 13.315
13.2625 13.338
13.2777 13.184
13.2928 13.139
13.3080 13.282
13.3232 13.278
13.3384 13.179
13.3535 13.156
13.3687 13.138
13.3839 13.075
13.3991 13.099
13.4142 12.796
13.4294 12.817
13.4446 13.027
13.4598 12.879
13.4749 12.687
13.4901 12.608
13.5053 12.469
13.5205 12.498
13.5356 12.569
13.5508 12.737
13.5660 12.637
13.5812 12.360
13.5963 12.219
13.6115 12.111
13.6267 12.170
13.6419 12.090
13.6570 12.366
13.6722 12.465
13.6874 12.314
13.7026 12.189
13.7177 12.357
13.7329 12.025
13.7481 11.841
13.7633 11.881
13.7784 11.895
13.7936 12.284
13.8088 12.187
13.8239 12.256
13.8391 12.433
13.8543 12.262
13.8695 12.490
13.8846 12.158
13.8998 12.076
13.9150 12.214
13.9302 11.913
13.9453 11.977
13.9605 11.955
13.9757 11.833
13.9909 11.987
14.0060 11.812
14.0212 11.582
14.0364 11.731
14.0516 11.330
14.0667 11.329
14.0819 11.558
14.0971 11.207
14.1123 11.477
14.1274 11.509
14.1426 11.482
14.1578 11.728
14.1730 11.595
14.1881 11.411
14.2033 11.516
14.2185 11.315
14.2337 11.384
14.2488 11.452
14.2640 11.220
14.2792 11.284
14.2944 11.613
14.3095 11.740
14.3247 11.674
14.3399 11.994
14.3551 11.799
14.3702 12.085
14.3854 12.319
14.4006 12.720
14.4158 12.378
14.4309 12.768
14.4461 12.399
14.4613 12.293
14.4765 12.321
14.4916 12.127
14.5068 12.049
14.5220 11.924
14.5372 11.696
14.5523 11.634
14.5675 11.383
14.5827 11.426
14.5979 11.561
14.6130 11.149
14.6282 11.425
14.6434 11.190
14.6586 10.857
14.6737 11.205
14.6889 11.168
14.7041 11.013
14.7193 10.902
14.7344 11.502
14.7496 11.029
14.7648 11.026
14.7800 10.931
14.7951 10.937
14.8103 11.103
14.8255 10.669
14.8407 10.705
14.8558 10.862
14.8710 10.636
14.8862 10.751
14.9014 10.652
14.9165 10.923
14.9317 10.879
14.9469 10.825
14.9621 11.090
14.9772 10.263
14.9924 10.527
15.0076 10.410
15.0228 10.585
15.0379 10.789
15.0531 10.441
15.0683 10.743
15.0835 10.477
15.0986 10.709
15.1138 10.836
15.1290 10.600
15.1442 10.584
15.1593 10.627
15.1745 10.354
15.1897 10.264
15.2049 10.512
15.2200 10.065
15.2352 10.465
15.2504 10.698
15.2656 10.369
15.2807 9.996
15.2959 10.386
15.3111 10.355
15.3263 10.191
15.3414 10.033
15.3566 10.305
15.3718 10.568
15.3870 10.408
15.4021 10.261
15.4173 10.784
15.4325 10.407
15.4477 10.646
15.4628 10.370
15.4780 10.406
15.4932 10.490
15.5084 10.707
15.5235 10.549
15.5387 10.470
15.5539 10.345
15.5691 10.293
15.5842 10.404
15.5994 10.505
15.6146 10.201
15.6298 10.048
15.6449 10.252
15.6601 10.417
15.6753 10.116
15.6905 10.112
15.7056 10.140
15.7208 9.728
15.7360 9.822
15.7512 10.065
15.7663 9.974
15.7815 10.131
15.7967 10.207
15.8119 10.022
15.8270 10.030
15.8422 9.852
15.8574 9.584
15.8726 9.742
15.8877 9.665
15.9029 9.521
15.9181 9.546
15.9333 9.453
15.9484 9.612
15.9636 9.777
15.9788 9.684
15.9940 9.747
16.0091 9.765
16.0243 9.843
16.0395 9.875
16.0547 9.727
16.0698 9.530
16.0850 9.737
16.1002 9.761
16.1154 9.704
16.1305 9.666
16.1457 9.821
16.1609 9.613
16.1761 9.631
16.1912 9.774
16.2064 9.912
16.2216 9.839
16.2368 9.943
16.2519 9.918
16.2671 10.172
16.2823 10.261
16.2975 9.945
16.3126 10.032
16.3278 9.938
16.3430 10.039
16.3582 10.030
16.3733 10.172
16.3885 10.360
16.4037 9.960
16.4189 9.942
16.4340 10.082
16.4492 10.101
16.4644 9.863
16.4796 9.775
16.4947 9.645
16.5099 9.597
16.5251 10.030
16.5403 10.152
16.5554 9.992
16.5706 9.882
16.5858 9.869
16.6010 9.928
16.6161 9.766
16.6313 9.798
16.6465 9.906
16.6617 9.993
16.6768 9.878
16.6920 10.088
16.7072 10.158
16.7224 10.204
16.7375 10.191
16.7527 10.266
16.7679 10.172
16.7831 10.115
16.7982 10.257
16.8134 10.301
16.8286 10.098
16.8438 10.081
16.8589 10.079
16.8741 9.909
16.8893 9.856
16.9045 9.962
16.9196 9.868
16.9348 9.876
16.9500 10.045
16.9652 9.908
16.9803 9.998
16.9955 10.023
17.0107 10.004
17.0259 10.052
17.0410 9.872
17.0562 10.123
17.0714 10.580
17.0866 10.628
17.1017 10.706
17.1169 10.937
17.1321 11.282
17.1473 11.454
17.1624 11.951
17.1776 12.652
17.1928 13.310
17.2080 14.191
17.2231 15.090
17.2383 16.600
17.2535 17.811
17.2687 18.660
17.2838 19.075
17.2990 18.256
17.3142 17.169
17.3294 16.354
17.3445 16.211
17.3597 16.280
17.3749 15.875
17.3901 15.206
17.4052 14.092
17.4204 13.207
17.4356 12.631
17.4508 11.995
17.4659 11.642
17.4811 11.384
17.4963 11.160
17.5115 10.906
17.5266 10.678
17.5418 10.427
17.5570 10.308
17.5722 10.278
17.5873 10.357
17.6025 10.688
17.6177 10.526
17.6329 10.386
17.6480 10.275
17.6632 10.086
17.6784 10.323
17.6936 10.292
17.7087 10.222
17.7239 10.223
17.7391 10.340
17.7543 10.386
17.7694 10.363
17.7846 10.463
17.7998 10.570
17.8150 10.589
17.8301 10.561
17.8453 10.701
17.8605 10.741
17.8757 10.803
17.8908 10.970
17.9060 10.990
17.9212 10.928
17.9364 10.730
17.9515 10.762
17.9667 10.873
17.9819 10.823
17.9971 10.470
18.0122 10.197
18.0274 10.221
18.0426 10.332
18.0578 10.168
18.0729 10.033
18.0881 10.062
18.1033 10.128
18.1185 9.881
18.1336 9.924
18.1488 10.168
18.1640 10.269
18.1792 10.020
18.1943 9.904
18.2095 10.108
18.2247 10.234
18.2399 9.842
18.2550 9.592
18.2702 9.862
18.2854 9.949
18.3006 10.026
18.3157 10.138
18.3309 9.866
18.3461 9.823
18.3613 10.069
18.3764 9.949
18.3916 9.763
18.4068 9.800
18.4220 10.024
18.4371 10.145
18.4523 9.900
18.4675 9.755
18.4827 9.829
18.4978 9.906
18.5130 9.881
18.5282 9.659
18.5434 9.701
18.5585 9.759
18.5737 9.747
18.5889 9.803
18.6041 9.884
18.6192 9.913
18.6344 9.736
18.6496 9.692
18.6648 9.653
18.6799 9.688
18.6951 9.784
18.7103 9.817
18.7255 9.735
18.7406 9.797
18.7558 9.820
18.7710 9.917
18.7862 9.983
18.8013 9.662
18.8165 9.581
18.8317 10.090
18.8469 9.980
18.8620 9.915
18.8772 9.832
18.8924 9.821
18.9076 9.953
18.9227 9.969
18.9379 10.010
18.9531 9.979
18.9683 10.116
18.9834 10.192
18.9986 10.205
19.0138 10.192
19.0290 10.209
19.0441 10.075
19.0593 10.233
19.0745 10.366
19.0897 10.269
19.1048 10.394
19.1200 10.526
19.1352 10.511
19.1504 10.260
19.1655 10.371
19.1807 10.669
19.1959 10.613
19.2111 10.604
19.2262 10.817
19.2414 10.809
19.2566 10.689
19.2718 10.740
19.2869 10.583
19.3021 10.786
19.3173 10.815
19.3325 10.911
19.3476 11.079
19.3628 11.120
19.3780 11.185
19.3932 11.229
19.4083 11.370
19.4235 11.229
19.4387 11.063
19.4539 11.328
19.4690 11.342
19.4842 11.190
19.4994 11.263
19.5146 11.430
19.5297 11.407
19.5449 11.266
19.5601 11.462
19.5753 11.743
19.5904 11.730
19.6056 11.497
19.6208 11.709
19.6360 11.990
19.6511 11.868
19.6663 11.924
19.6815 11.956
19.6967 11.562
19.7118 11.499
19.7270 11.589
19.7422 11.535
19.7574 11.495
19.7725 11.668
19.7877 11.904
19.8029 11.858
19.8180 12.153
19.8332 12.467
19.8484 12.337
19.8636 12.337
19.8787 12.613
19.8939 12.809
19.9091 12.967
19.9243 13.401
19.9394 13.888
19.9546 14.117
19.9698 14.426
19.9850 14.635
20.0001 14.410
20.0153 14.228
20.0305 14.144
20.0457 14.089
20.0608 13.945
20.0760 13.841
20.0912 13.616
20.1064 13.522
20.1215 13.582
20.1367 13.422
20.1519 12.878
20.1671 12.754
20.1822 12.791
20.1974 12.603
20.2126 12.464
20.2278 12.533
20.2429 12.585
20.2581 12.172
20.2733 11.754
20.2885 11.620
20.3036 11.675
20.3188 11.608
20.3340 11.558
20.3492 11.548
20.3643 11.660
20.3795 11.288
20.3947 11.064
20.4099 10.949
20.4250 10.945
20.4402 10.766
20.4554 10.693
20.4706 10.717
20.4857 10.783
20.5009 10.760
20.5161 10.601
20.5313 10.657
20.5464 10.777
20.5616 10.436
20.5768 10.459
20.5920 10.584
20.6071 10.432
20.6223 10.555
20.6375 10.366
20.6527 10.448
20.6678 10.510
20.6830 10.466
20.6982 10.442
20.7134 10.428
20.7285 10.501
20.7437 10.377
20.7589 10.168
20.7741 10.426
20.7892 10.560
20.8044 10.248
20.8196 10.506
20.8348 10.728
20.8499 10.309
20.8651 9.910
20.8803 10.452
20.8955 10.008
20.9106 10.278
20.9258 10.275
20.9410 10.152
20.9562 10.443
20.9713 10.369
20.9865 10.215
21.0017 10.726
21.0169 10.091
21.0320 9.977
21.0472 10.239
21.0624 10.167
21.0776 10.018
21.0927 10.144
21.1079 9.688
21.1231 9.849
21.1383 10.134
21.1534 9.689
21.1686 9.881
21.1838 9.843
21.1990 9.519
21.2141 9.603
21.2293 9.652
21.2445 9.558
21.2597 9.768
21.2748 9.637
21.2900 10.134
21.3052 9.552
21.3204 9.404
21.3355 9.730
21.3507 9.341
21.3659 9.214
21.3811 9.654
21.3962 9.493
21.4114 9.654
21.4266 9.260
21.4418 9.318
21.4569 9.271
21.4721 9.596
21.4873 9.420
21.5025 9.422
21.5176 9.473
21.5328 9.341
21.5480 8.927
21.5632 9.181
21.5783 9.193
21.5935 9.118
21.6087 9.079
21.6239 9.048
21.6390 9.224
21.6542 9.099
21.6694 8.938
21.6846 9.158
21.6997 8.959
21.7149 8.897
21.7301 9.028
21.7453 9.008
21.7604 9.114
21.7756 9.156
21.7908 8.962
21.8060 8.916
21.8211 8.942
21.8363 8.864
21.8515 8.875
21.8667 8.984
21.8818 8.811
21.8970 8.997
21.9122 8.930
21.9274 8.733
21.9425 8.861
21.9577 9.045
21.9729 8.959
21.9881 9.082
22.0032 9.183
22.0184 8.986
22.0336 8.664
22.0488 8.729
22.0639 9.026
22.0791 9.001
22.0943 8.878
22.1095 8.549
22.1246 8.589
22.1398 8.694
22.1550 8.763
22.1702 8.644
22.1853 8.679
22.2005 8.650
22.2157 8.687
22.2309 8.771
22.2460 8.762
22.2612 8.590
22.2764 8.512
22.2916 8.579
22.3067 8.497
22.3219 8.398
22.3371 8.437
22.3523 8.302
22.3674 8.313
22.3826 8.606
22.3978 8.618
22.4130 8.478
22.4281 8.230
22.4433 8.457
22.4585 8.629
22.4737 8.576
22.4888 8.338
22.5040 8.295
22.5192 8.792
22.5344 8.530
22.5495 8.414
22.5647 8.503
22.5799 8.457
22.5951 8.634
22.6102 8.477
22.6254 8.450
22.6406 8.621
22.6558 8.608
22.6709 8.481
22.6861 8.597
22.7013 8.206
22.7165 8.129
22.7316 6.459
