'Id: "" Comment: "" Operator: "Lab Manager" Anode: "Mo" Scantype: "Still (Eiger2R_500K (1D mode))" TimePerStep: "300" X: "11.8" Y: "9.4" Z: "11.284" 
7.2532 18.638
7.2684 18.177
7.2836 18.788
7.2987 19.047
7.3139 18.637
7.3291 19.249
7.3443 18.812
7.3594 19.207
7.3746 18.957
7.3898 19.382
7.4050 19.441
7.4201 19.291
7.4353 19.117
7.4505 19.436
7.4657 18.741
7.4808 19.326
7.4960 19.428
7.5112 19.626
7.5264 19.286
7.5415 19.562
7.5567 19.477
7.5719 19.620
7.5871 19.799
7.6022 19.657
7.6174 19.492
7.6326 20.096
7.6478 20.141
7.6629 20.031
7.6781 20.068
7.6933 19.986
7.7085 20.096
7.7236 20.178
7.7388 20.552
7.7540 20.482
7.7692 20.149
7.7843 20.199
7.7995 20.519
7.8147 20.731
7.8299 20.718
7.8450 20.581
7.8602 20.728
7.8754 20.853
7.8905 20.851
7.9057 20.653
7.9209 20.582
7.9361 20.501
7.9512 20.691
7.9664 20.916
7.9816 20.891
7.9968 20.722
8.0119 20.706
8.0271 21.042
8.0423 21.185
8.0575 21.053
8.0726 20.915
8.0878 20.984
8.1030 20.867
8.1182 21.308
8.1333 21.447
8.1485 21.415
8.1637 21.029
8.1789 21.463
8.1940 21.385
8.2092 21.532
8.2244 21.707
8.2396 21.339
8.2547 21.501
8.2699 21.436
8.2851 21.209
8.3003 21.391
8.3154 21.774
8.3306 21.966
8.3458 21.817
8.3610 21.844
8.3761 21.844
8.3913 21.511
8.4065 21.387
8.4217 21.828
8.4368 22.044
8.4520 21.258
8.4672 22.183
8.4824 21.961
8.4975 21.676
8.5127 21.570
8.5279 22.164
8.5431 22.040
8.5582 21.660
8.5734 21.634
8.5886 21.855
8.6038 21.724
8.6189 22.181
8.6341 21.212
8.6493 22.369
8.6645 22.076
8.6796 22.068
8.6948 21.860
8.7100 21.773
8.7252 22.289
8.7403 22.783
8.7555 22.055
8.7707 22.351
8.7859 21.761
8.8010 22.315
8.8162 22.250
8.8314 22.053
8.8466 22.565
8.8617 22.336
8.8769 22.281
8.8921 22.117
8.9073 22.193
8.9224 22.329
8.9376 22.358
8.9528 22.421
8.9680 22.338
8.9831 22.510
8.9983 22.320
9.0135 21.891
9.0287 22.162
9.0438 22.529
9.0590 22.959
9.0742 22.646
9.0894 22.484
9.1045 22.903
9.1197 22.866
9.1349 22.965
9.1501 22.638
9.1652 22.482
9.1804 22.732
9.1956 22.654
9.2108 22.376
9.2259 22.589
9.2411 22.462
9.2563 22.315
9.2715 22.784
9.2866 22.885
9.3018 23.100
9.3170 22.799
9.3322 22.932
9.3473 22.619
9.3625 22.781
9.3777 22.983
9.3929 22.777
9.4080 22.996
9.4232 22.810
9.4384 22.725
9.4536 22.986
9.4687 22.676
9.4839 22.509
9.4991 22.615
9.5143 22.736
9.5294 23.083
9.5446 23.277
9.5598 23.152
9.5750 23.059
9.5901 23.171
9.6053 23.272
9.6205 23.302
9.6357 23.414
9.6508 23.485
9.6660 23.543
9.6812 23.934
9.6964 23.661
9.7115 23.303
9.7267 23.595
9.7419 23.746
9.7571 23.556
9.7722 23.644
9.7874 23.739
9.8026 23.672
9.8178 23.631
9.8329 23.459
9.8481 23.334
9.8633 23.501
9.8785 23.171
9.8936 22.903
9.9088 23.079
9.9240 23.301
9.9392 23.330
9.9543 23.140
9.9695 23.167
9.9847 23.182
9.9999 23.516
10.0150 23.564
10.0302 23.050
10.0454 23.180
10.0606 23.258
10.0757 23.155
10.0909 23.110
10.1061 23.274
10.1213 23.158
10.1364 23.356
10.1516 23.675
10.1668 23.457
10.1820 23.219
10.1971 23.181
10.2123 23.040
10.2275 23.114
10.2427 22.952
10.2578 22.625
10.2730 22.612
10.2882 22.808
10.3034 22.870
10.3185 22.848
10.3337 22.878
10.3489 22.527
10.3641 22.440
10.3792 22.375
10.3944 22.650
10.4096 22.460
10.4248 22.309
10.4399 22.630
10.4551 22.586
10.4703 22.287
10.4855 22.116
10.5006 22.448
10.5158 22.804
10.5310 22.633
10.5462 22.495
10.5613 22.473
10.5765 22.520
10.5917 22.548
10.6069 22.405
10.6220 22.579
10.6372 22.835
10.6524 22.839
10.6676 22.370
10.6827 22.314
10.6979 22.348
10.7131 22.242
10.7283 22.283
10.7434 22.196
10.7586 22.467
10.7738 22.129
10.7890 22.194
10.8041 22.082
10.8193 21.992
10.8345 21.982
10.8497 21.791
10.8648 22.006
10.8800 22.088
10.8952 22.063
10.9104 21.850
10.9255 21.910
10.9407 21.951
10.9559 21.800
10.9711 21.698
10.9862 21.558
11.0014 21.745
11.0166 21.879
11.0318 21.975
11.0469 21.730
11.0621 21.549
11.0773 21.697
11.0925 21.714
11.1076 21.837
11.1228 21.591
11.1380 21.216
11.1532 21.976
11.1683 22.113
11.1835 21.928
11.1987 21.634
11.2139 21.377
11.2290 21.458
11.2442 21.618
11.2594 21.509
11.2746 21.371
11.2897 21.600
11.3049 21.098
11.3201 21.264
11.3353 21.577
11.3504 21.586
11.3656 20.919
11.3808 20.848
11.3960 21.138
11.4111 21.239
11.4263 20.908
11.4415 21.310
11.4567 21.400
11.4718 21.403
11.4870 20.886
11.5022 20.867
11.5174 20.871
11.5325 20.698
11.5477 20.659
11.5629 20.801
11.5781 20.566
11.5932 20.386
11.6084 20.881
11.6236 20.901
11.6388 20.628
11.6539 20.546
11.6691 20.610
11.6843 20.680
11.6995 20.601
11.7146 20.731
11.7298 20.614
11.7450 20.492
11.7602 20.636
11.7753 20.349
11.7905 20.050
11.8057 19.829
11.8209 20.092
11.8360 20.076
11.8512 20.042
11.8664 20.095
11.8816 19.807
11.8967 19.546
11.9119 19.608
11.9271 19.423
11.9423 19.179
11.9574 19.199
11.9726 19.340
11.9878 19.125
12.0030 19.031
12.0181 19.032
12.0333 18.792
12.0485 18.960
12.0637 19.052
12.0788 18.982
12.0940 18.845
12.1092 18.440
12.1244 18.410
12.1395 18.505
12.1547 18.519
12.1699 18.815
12.1851 18.756
12.2002 18.317
12.2154 18.036
12.2306 17.744
12.2458 17.711
12.2609 17.555
12.2761 17.772
12.2913 17.743
12.3065 17.640
12.3216 17.578
12.3368 17.685
12.3520 17.408
12.3672 17.035
12.3823 16.983
12.3975 17.221
12.4127 17.004
12.4279 17.057
12.4430 17.126
12.4582 17.180
12.4734 16.999
12.4886 16.905
12.5037 16.869
12.5189 16.752
12.5341 16.425
12.5493 16.055
12.5644 16.097
12.5796 16.005
12.5948 15.719
12.6100 15.729
12.6251 15.847
12.6403 15.928
12.6555 15.906
12.6707 15.961
12.6858 15.879
12.7010 15.701
12.7162 15.488
12.7314 15.355
12.7465 15.306
12.7617 15.369
12.7769 15.435
12.7921 14.987
12.8072 14.927
12.8224 15.403
12.8376 15.412
12.8528 15.099
12.8679 14.910
12.8831 14.656
12.8983 14.738
12.9135 14.516
12.9286 14.078
12.9438 14.182
12.9590 14.424
12.9742 14.401
12.9893 14.205
13.0045 14.191
13.0197 14.147
13.0349 14.169
13.0500 14.088
13.0652 13.807
13.0804 13.935
13.0956 13.935
13.1107 13.660
13.1259 13.680
13.1411 13.666
13.1563 13.555
13.1714 13.426
13.1866 13.303
13.2018 13.150
13.2170 13.194
13.2321 13.443
13.2473 13.489
13.2625 13.501
13.2777 13.391
13.2928 13.077
13.3080 12.953
13.3232 12.978
13.3384 12.840
13.3535 12.931
13.3687 12.883
13.3839 12.731
13.3991 12.894
13.4142 12.894
13.4294 12.715
13.4446 12.582
13.4598 12.600
13.4749 12.605
13.4901 12.499
13.5053 12.459
13.5205 12.506
13.5356 12.508
13.5508 12.549
13.5660 12.396
13.5812 12.150
13.5963 12.202
13.6115 12.431
13.6267 12.139
13.6419 12.168
13.6570 12.225
13.6722 12.286
13.6874 12.124
13.7026 11.998
13.7177 12.672
13.7329 13.949
13.7481 14.186
13.7633 12.758
13.7784 12.338
13.7936 12.409
13.8088 12.408
13.8239 12.592
13.8391 12.573
13.8543 12.725
13.8695 12.389
13.8846 12.224
13.8998 11.946
13.9150 12.051
13.9302 12.193
13.9453 12.164
13.9605 11.989
13.9757 11.936
13.9909 11.892
14.0060 11.722
14.0212 11.522
14.0364 11.347
14.0516 11.669
14.0667 11.796
14.0819 11.795
14.0971 11.651
14.1123 11.372
14.1274 11.583
14.1426 11.752
14.1578 12.057
14.1730 12.157
14.1881 11.858
14.2033 11.800
14.2185 11.777
14.2337 11.593
14.2488 11.933
14.2640 11.800
14.2792 11.753
14.2944 11.668
14.3095 11.921
14.3247 11.906
14.3399 12.131
14.3551 12.306
14.3702 12.696
14.3854 13.293
14.4006 13.147
14.4158 13.020
14.4309 12.809
14.4461 12.633
14.4613 12.759
14.4765 12.570
14.4916 12.348
14.5068 11.810
14.5220 11.624
14.5372 11.319
14.5523 11.638
14.5675 11.010
14.5827 11.009
14.5979 11.062
14.6130 11.009
14.6282 10.716
14.6434 10.863
14.6586 10.993
14.6737 10.703
14.6889 11.118
14.7041 10.722
14.7193 10.833
14.7344 10.415
14.7496 10.903
14.7648 10.745
14.7800 10.787
14.7951 10.451
14.8103 10.478
14.8255 10.379
14.8407 10.320
14.8558 10.579
14.8710 10.503
14.8862 9.819
14.9014 10.342
14.9165 10.759
14.9317 10.769
14.9469 10.583
14.9621 10.503
14.9772 10.201
14.9924 10.312
15.0076 10.448
15.0228 10.440
15.0379 10.573
15.0531 10.527
15.0683 10.517
15.0835 10.268
15.0986 10.080
15.1138 10.242
15.1290 10.108
15.1442 10.502
15.1593 10.169
15.1745 10.319
15.1897 10.224
15.2049 9.653
15.2200 10.189
15.2352 10.322
15.2504 10.243
15.2656 10.209
15.2807 10.076
15.2959 10.029
15.3111 9.822
15.3263 10.032
15.3414 10.246
15.3566 10.339
15.3718 10.170
15.3870 10.240
15.4021 10.131
15.4173 10.189
15.4325 10.040
15.4477 10.255
15.4628 10.134
15.4780 10.315
15.4932 10.148
15.5084 10.141
15.5235 10.291
15.5387 9.880
15.5539 10.016
15.5691 9.840
15.5842 9.898
15.5994 9.803
15.6146 9.806
15.6298 9.978
15.6449 9.651
15.6601 9.733
15.6753 9.600
15.6905 9.884
15.7056 9.697
15.7208 9.839
15.7360 9.692
15.7512 9.536
15.7663 9.896
15.7815 9.537
15.7967 9.808
15.8119 9.690
15.8270 9.807
15.8422 9.741
15.8574 9.718
15.8726 9.590
15.8877 9.688
15.9029 9.619
15.9181 9.429
15.9333 9.554
15.9484 9.322
15.9636 9.403
15.9788 9.661
15.9940 9.779
16.0091 9.540
16.0243 9.634
16.0395 9.815
16.0547 9.536
16.0698 9.590
16.0850 9.604
16.1002 9.815
16.1154 9.911
16.1305 9.629
16.1457 9.661
16.1609 9.484
16.1761 9.558
16.1912 9.581
16.2064 9.826
16.2216 9.771
16.2368 9.522
16.2519 9.709
16.2671 9.603
16.2823 9.770
16.2975 9.689
16.3126 9.729
16.3278 9.605
16.3430 9.569
16.3582 9.684
16.3733 9.875
16.3885 10.094
16.4037 10.053
16.4189 9.816
16.4340 9.809
16.4492 9.821
16.4644 9.749
16.4796 9.684
16.4947 9.582
16.5099 9.644
16.5251 9.789
16.5403 9.483
16.5554 9.316
16.5706 9.415
16.5858 9.478
16.6010 9.479
16.6161 9.507
16.6313 9.564
16.6465 9.632
16.6617 9.611
16.6768 9.900
16.6920 10.015
16.7072 9.968
16.7224 10.137
16.7375 10.090
16.7527 9.915
16.7679 9.920
16.7831 9.916
16.7982 9.764
16.8134 9.776
16.8286 9.779
16.8438 9.609
16.8589 9.762
16.8741 9.899
16.8893 9.741
16.9045 9.739
16.9196 9.856
16.9348 9.744
16.9500 9.879
16.9652 9.932
16.9803 9.775
16.9955 9.835
17.0107 9.936
17.0259 10.117
17.0410 10.281
17.0562 10.038
17.0714 10.130
17.0866 10.429
17.1017 10.646
17.1169 10.666
17.1321 10.894
17.1473 11.273
17.1624 11.776
17.1776 12.257
17.1928 12.967
17.2080 13.911
17.2231 14.907
17.2383 16.002
17.2535 17.329
17.2687 18.528
17.2838 18.548
17.2990 18.055
17.3142 17.255
17.3294 16.274
17.3445 15.732
17.3597 15.898
17.3749 15.840
17.3901 15.140
17.4052 14.346
17.4204 13.481
17.4356 12.693
17.4508 11.968
17.4659 11.784
17.4811 11.757
17.4963 11.757
17.5115 11.537
17.5266 11.065
17.5418 10.925
17.5570 10.981
17.5722 11.009
17.5873 11.010
17.6025 11.243
17.6177 11.197
17.6329 11.245
17.6480 11.379
17.6632 11.483
17.6784 11.568
17.6936 11.415
17.7087 11.389
17.7239 11.333
17.7391 11.250
17.7543 11.117
17.7694 11.193
17.7846 11.141
17.7998 10.867
17.8150 10.743
17.8301 10.757
17.8453 10.603
17.8605 10.379
17.8757 10.348
17.8908 10.315
17.9060 10.295
17.9212 10.283
17.9364 10.187
17.9515 10.059
17.9667 10.133
17.9819 10.285
17.9971 10.210
18.0122 10.142
18.0274 10.085
18.0426 10.252
18.0578 10.474
18.0729 10.103
18.0881 9.987
18.1033 10.187
18.1185 10.083
18.1336 9.950
18.1488 10.023
18.1640 10.125
18.1792 9.826
18.1943 9.759
18.2095 9.758
18.2247 9.711
18.2399 9.875
18.2550 9.816
18.2702 9.940
18.2854 10.173
18.3006 10.099
18.3157 9.872
18.3309 9.739
18.3461 9.839
18.3613 9.855
18.3764 9.879
18.3916 9.851
18.4068 9.999
18.4220 9.894
18.4371 9.894
18.4523 10.014
18.4675 9.779
18.4827 9.531
18.4978 9.686
18.5130 9.885
18.5282 9.805
18.5434 9.728
18.5585 9.667
18.5737 9.874
18.5889 10.026
18.6041 9.847
18.6192 9.755
18.6344 9.715
18.6496 9.535
18.6648 9.546
18.6799 9.633
18.6951 9.665
18.7103 9.830
18.7255 9.857
18.7406 9.823
18.7558 9.815
18.7710 9.863
18.7862 9.810
18.8013 9.917
18.8165 9.721
18.8317 9.691
18.8469 9.877
18.8620 9.865
18.8772 9.972
18.8924 9.778
18.9076 9.623
18.9227 9.981
18.9379 10.213
18.9531 10.116
18.9683 10.072
18.9834 10.073
18.9986 10.060
19.0138 10.112
19.0290 10.007
19.0441 10.230
19.0593 10.176
19.0745 10.185
19.0897 10.529
19.1048 10.504
19.1200 10.281
19.1352 10.340
19.1504 10.441
19.1655 10.451
19.1807 10.418
19.1959 10.287
19.2111 10.673
19.2262 10.935
19.2414 10.890
19.2566 10.845
19.2718 10.792
19.2869 10.623
19.3021 10.665
19.3173 10.768
19.3325 10.702
19.3476 10.930
19.3628 11.094
19.3780 11.080
19.3932 10.974
19.4083 11.094
19.4235 11.379
19.4387 11.144
19.4539 11.136
19.4690 11.586
19.4842 11.499
19.4994 11.328
19.5146 11.539
19.5297 11.554
19.5449 11.530
19.5601 11.547
19.5753 11.466
19.5904 11.341
19.6056 11.422
19.6208 11.716
19.6360 11.843
19.6511 11.770
19.6663 11.764
19.6815 11.647
19.6967 11.689
19.7118 11.691
19.7270 11.495
19.7422 11.810
19.7574 11.967
19.7725 11.760
19.7877 11.739
19.8029 11.885
19.8180 12.097
19.8332 12.164
19.8484 12.087
19.8636 12.083
19.8787 12.260
19.8939 12.624
19.9091 13.099
19.9243 13.425
19.9394 13.721
19.9546 13.877
19.9698 14.140
19.9850 14.387
20.0001 14.387
20.0153 14.026
20.0305 13.789
20.0457 13.814
20.0608 13.994
20.0760 14.308
20.0912 13.939
20.1064 13.464
20.1215 13.499
20.1367 13.275
20.1519 12.994
20.1671 12.792
20.1822 12.647
20.1974 12.604
20.2126 12.850
20.2278 12.992
20.2429 12.777
20.2581 12.472
20.2733 11.942
20.2885 11.631
20.3036 11.912
20.3188 12.034
20.3340 11.993
20.3492 11.992
20.3643 12.199
20.3795 11.946
20.3947 11.901
20.4099 11.783
20.4250 11.762
20.4402 11.895
20.4554 11.930
20.4706 11.837
20.4857 11.622
20.5009 11.556
20.5161 11.698
20.5313 11.572
20.5464 11.384
20.5616 11.554
20.5768 11.257
20.5920 11.160
20.6071 11.068
20.6223 10.987
20.6375 11.046
20.6527 10.502
20.6678 10.307
20.6830 10.603
20.6982 10.764
20.7134 10.387
20.7285 10.281
20.7437 10.222
20.7589 10.355
20.7741 10.295
20.7892 10.314
20.8044 10.134
20.8196 10.485
20.8348 10.339
20.8499 10.065
20.8651 10.198
20.8803 10.227
20.8955 10.184
20.9106 10.219
20.9258 10.281
20.9410 10.422
20.9562 10.065
20.9713 9.964
20.9865 10.156
21.0017 9.959
21.0169 9.852
21.0320 9.903
21.0472 9.772
21.0624 9.904
21.0776 9.721
21.0927 9.869
21.1079 9.787
21.1231 10.139
21.1383 10.079
21.1534 9.802
21.1686 9.927
21.1838 9.508
21.1990 9.655
21.2141 9.986
21.2293 9.426
21.2445 9.754
21.2597 9.691
21.2748 9.734
21.2900 9.896
21.3052 9.285
21.3204 9.877
21.3355 9.845
21.3507 9.531
21.3659 9.747
21.3811 9.615
21.3962 9.544
21.4114 9.779
21.4266 9.580
21.4418 9.509
21.4569 9.324
21.4721 9.498
21.4873 9.541
21.5025 9.414
21.5176 9.281
21.5328 8.960
21.5480 9.150
21.5632 9.279
21.5783 9.245
21.5935 9.265
21.6087 8.975
21.6239 9.347
21.6390 9.261
21.6542 9.156
21.6694 9.240
21.6846 9.233
21.6997 9.050
21.7149 9.338
21.7301 9.042
21.7453 8.857
21.7604 9.160
21.7756 9.004
21.7908 8.885
21.8060 8.977
21.8211 9.166
21.8363 9.193
21.8515 9.180
21.8667 9.043
21.8818 8.892
21.8970 9.065
21.9122 9.336
21.9274 9.137
21.9425 8.789
21.9577 8.710
21.9729 8.837
21.9881 8.962
22.0032 8.937
22.0184 8.944
22.0336 8.756
22.0488 8.690
22.0639 8.878
22.0791 8.919
22.0943 8.889
22.1095 8.858
22.1246 8.703
22.1398 8.707
22.1550 8.606
22.1702 8.595
22.1853 8.514
22.2005 8.674
22.2157 8.791
22.2309 8.580
22.2460 8.574
22.2612 8.562
22.2764 8.428
22.2916 8.346
22.3067 8.593
22.3219 8.516
22.3371 8.632
22.3523 8.664
22.3674 8.868
22.3826 8.762
22.3978 8.673
22.4130 8.505
22.4281 8.175
22.4433 8.306
22.4585 8.209
22.4737 8.418
22.4888 8.362
22.5040 8.241
22.5192 8.376
22.5344 8.448
22.5495 8.494
22.5647 8.391
22.5799 8.328
22.5951 8.716
22.6102 8.204
22.6254 8.439
22.6406 8.297
22.6558 8.242
22.6709 8.183
22.6861 8.231
22.7013 8.192
22.7165 7.885
22.7316 6.322
