'Id: "" Comment: "" Operator: "Lab Manager" Anode: "Mo" Scantype: "Still (Eiger2R_500K (1D mode))" TimePerStep: "300" X: "11.8" Y: "9.4" Z: "11.284" 
7.2532 18.746
7.2684 18.815
7.2836 19.537
7.2987 19.136
7.3139 19.103
7.3291 19.543
7.3443 19.222
7.3594 19.444
7.3746 19.405
7.3898 19.264
7.4050 19.449
7.4201 19.663
7.4353 19.280
7.4505 19.341
7.4657 19.583
7.4808 20.076
7.4960 19.531
7.5112 19.696
7.5264 19.797
7.5415 20.114
7.5567 19.875
7.5719 20.001
7.5871 19.876
7.6022 20.085
7.6174 19.866
7.6326 19.833
7.6478 19.940
7.6629 20.002
7.6781 20.331
7.6933 20.231
7.7085 20.399
7.7236 20.530
7.7388 20.544
7.7540 20.533
7.7692 20.605
7.7843 20.571
7.7995 20.486
7.8147 20.721
7.8299 21.147
7.8450 21.183
7.8602 21.111
7.8754 20.859
7.8905 20.822
7.9057 20.985
7.9209 21.110
7.9361 21.262
7.9512 21.216
7.9664 21.177
7.9816 20.829
7.9968 20.899
8.0119 21.345
8.0271 21.464
8.0423 21.188
8.0575 21.275
8.0726 21.003
8.0878 21.050
8.1030 21.371
8.1182 21.261
8.1333 21.342
8.1485 21.536
8.1637 21.787
8.1789 22.084
8.1940 21.926
8.2092 21.731
8.2244 21.899
8.2396 21.355
8.2547 21.376
8.2699 21.857
8.2851 21.753
8.3003 21.692
8.3154 22.065
8.3306 22.193
8.3458 21.835
8.3610 21.926
8.3761 22.102
8.3913 21.982
8.4065 21.690
8.4217 21.828
8.4368 21.616
8.4520 22.148
8.4672 21.923
8.4824 21.851
8.4975 21.533
8.5127 22.345
8.5279 22.218
8.5431 21.310
8.5582 22.373
8.5734 21.884
8.5886 22.815
8.6038 22.449
8.6189 22.375
8.6341 22.515
8.6493 22.278
8.6645 22.712
8.6796 22.212
8.6948 22.403
8.7100 22.961
8.7252 23.082
8.7403 22.792
8.7555 22.761
8.7707 22.677
8.7859 22.571
8.8010 23.016
8.8162 22.976
8.8314 22.333
8.8466 22.307
8.8617 22.858
8.8769 22.723
8.8921 22.471
8.9073 22.884
8.9224 22.540
8.9376 22.710
8.9528 22.606
8.9680 22.171
8.9831 22.707
8.9983 22.477
9.0135 22.658
9.0287 22.778
9.0438 22.977
9.0590 23.135
9.0742 22.922
9.0894 23.135
9.1045 23.080
9.1197 22.729
9.1349 22.995
9.1501 23.137
9.1652 23.181
9.1804 22.979
9.1956 22.940
9.2108 22.813
9.2259 22.679
9.2411 22.756
9.2563 22.864
9.2715 22.946
9.2866 22.828
9.3018 22.587
9.3170 22.810
9.3322 23.337
9.3473 23.300
9.3625 23.322
9.3777 23.451
9.3929 23.208
9.4080 23.246
9.4232 23.053
9.4384 23.197
9.4536 23.277
9.4687 23.145
9.4839 23.119
9.4991 23.108
9.5143 23.248
9.5294 23.368
9.5446 23.389
9.5598 23.527
9.5750 23.628
9.5901 23.614
9.6053 23.684
9.6205 23.603
9.6357 23.738
9.6508 23.652
9.6660 23.568
9.6812 23.511
9.6964 23.678
9.7115 24.153
9.7267 24.090
9.7419 24.090
9.7571 24.141
9.7722 24.148
9.7874 24.157
9.8026 23.892
9.8178 23.688
9.8329 23.521
9.8481 23.628
9.8633 23.641
9.8785 23.437
9.8936 23.546
9.9088 23.563
9.9240 23.424
9.9392 23.259
9.9543 23.284
9.9695 23.509
9.9847 23.503
9.9999 23.368
10.0150 23.603
10.0302 24.026
10.0454 23.765
10.0606 23.801
10.0757 24.076
10.0909 24.038
10.1061 23.912
10.1213 24.142
10.1364 23.887
10.1516 23.879
10.1668 23.955
10.1820 23.810
10.1971 24.112
10.2123 24.405
10.2275 24.384
10.2427 24.367
10.2578 24.178
10.2730 24.224
10.2882 23.834
10.3034 23.371
10.3185 23.526
10.3337 23.383
10.3489 23.223
10.3641 22.782
10.3792 22.475
10.3944 22.771
10.4096 22.771
10.4248 22.704
10.4399 22.939
10.4551 23.029
10.4703 23.073
10.4855 22.784
10.5006 22.716
10.5158 22.720
10.5310 22.979
10.5462 22.769
10.5613 22.712
10.5765 22.586
10.5917 22.294
10.6069 22.938
10.6220 22.919
10.6372 22.662
10.6524 23.065
10.6676 23.192
10.6827 22.469
10.6979 22.252
10.7131 22.702
10.7283 22.414
10.7434 22.440
10.7586 22.663
10.7738 22.619
10.7890 22.651
10.8041 22.409
10.8193 22.478
10.8345 22.716
10.8497 22.752
10.8648 22.493
10.8800 22.145
10.8952 22.269
10.9104 22.315
10.9255 22.720
10.9407 22.457
10.9559 22.586
10.9711 22.755
10.9862 22.270
11.0014 21.843
11.0166 22.116
11.0318 22.132
11.0469 21.906
11.0621 21.701
11.0773 21.565
11.0925 21.864
11.1076 21.960
11.1228 21.823
11.1380 21.982
11.1532 22.287
11.1683 21.692
11.1835 21.831
11.1987 22.021
11.2139 22.252
11.2290 22.199
11.2442 22.152
11.2594 22.235
11.2746 22.150
11.2897 21.816
11.3049 22.007
11.3201 21.305
11.3353 21.826
11.3504 21.874
11.3656 21.435
11.3808 21.226
11.3960 21.459
11.4111 21.606
11.4263 21.611
11.4415 21.368
11.4567 21.634
11.4718 21.173
11.4870 21.210
11.5022 21.018
11.5174 20.871
11.5325 21.253
11.5477 21.274
11.5629 21.095
11.5781 21.064
11.5932 20.738
11.6084 20.631
11.6236 20.782
11.6388 20.776
11.6539 20.687
11.6691 20.665
11.6843 20.663
11.6995 20.265
11.7146 20.542
11.7298 20.604
11.7450 20.472
11.7602 20.303
11.7753 20.164
11.7905 20.244
11.8057 20.528
11.8209 20.334
11.8360 19.826
11.8512 19.848
11.8664 19.743
11.8816 19.797
11.8967 19.847
11.9119 19.755
11.9271 19.700
11.9423 19.699
11.9574 19.665
11.9726 19.131
11.9878 19.366
12.0030 19.153
12.0181 19.058
12.0333 18.909
12.0485 19.084
12.0637 18.975
12.0788 19.111
12.0940 18.968
12.1092 18.686
12.1244 18.519
12.1395 18.542
12.1547 18.517
12.1699 18.328
12.1851 18.095
12.2002 18.110
12.2154 18.138
12.2306 18.245
12.2458 18.078
12.2609 17.861
12.2761 17.939
12.2913 17.993
12.3065 17.942
12.3216 17.752
12.3368 17.463
12.3520 17.293
12.3672 17.490
12.3823 17.688
12.3975 17.296
12.4127 17.415
12.4279 17.566
12.4430 17.662
12.4582 17.121
12.4734 16.734
12.4886 16.933
12.5037 17.168
12.5189 17.000
12.5341 16.692
12.5493 16.793
12.5644 16.857
12.5796 16.590
12.5948 16.316
12.6100 16.057
12.6251 16.102
12.6403 16.119
12.6555 16.020
12.6707 16.078
12.6858 16.021
12.7010 15.668
12.7162 15.464
12.7314 15.481
12.7465 15.367
12.7617 15.434
12.7769 15.482
12.7921 15.488
12.8072 15.325
12.8224 15.001
12.8376 14.938
12.8528 14.876
12.8679 14.681
12.8831 14.857
12.8983 15.094
12.9135 14.787
12.9286 14.507
12.9438 14.277
12.9590 14.271
12.9742 14.583
12.9893 14.682
13.0045 14.652
13.0197 14.477
13.0349 14.357
13.0500 14.449
13.0652 14.279
13.0804 13.998
13.0956 14.030
13.1107 13.833
13.1259 13.764
13.1411 13.853
13.1563 13.615
13.1714 13.615
13.1866 13.737
13.2018 13.545
13.2170 13.431
13.2321 13.547
13.2473 13.275
13.2625 13.177
13.2777 13.270
13.2928 13.141
13.3080 13.219
13.3232 13.187
13.3384 13.124
13.3535 13.105
13.3687 12.934
13.3839 12.835
13.3991 12.839
13.4142 12.776
13.4294 12.798
13.4446 12.901
13.4598 12.783
13.4749 12.555
13.4901 12.556
13.5053 12.567
13.5205 12.548
13.5356 12.519
13.5508 12.467
13.5660 12.164
13.5812 12.180
13.5963 12.431
13.6115 12.220
13.6267 12.031
13.6419 12.152
13.6570 12.160
13.6722 12.278
13.6874 12.232
13.7026 12.035
13.7177 11.779
13.7329 11.746
13.7481 11.868
13.7633 12.047
13.7784 12.131
13.7936 12.184
13.8088 12.135
13.8239 12.313
13.8391 11.884
13.8543 12.096
13.8695 12.199
13.8846 12.177
13.8998 12.145
13.9150 12.394
13.9302 12.176
13.9453 11.936
13.9605 11.827
13.9757 11.809
13.9909 11.748
14.0060 11.686
14.0212 11.679
14.0364 11.480
14.0516 11.300
14.0667 11.448
14.0819 11.401
14.0971 11.643
14.1123 11.532
14.1274 11.487
14.1426 11.380
14.1578 11.393
14.1730 11.718
14.1881 11.823
14.2033 11.587
14.2185 11.761
14.2337 12.045
14.2488 11.584
14.2640 11.858
14.2792 11.924
14.2944 11.990
14.3095 12.250
14.3247 12.300
14.3399 12.694
14.3551 12.608
14.3702 12.718
14.3854 13.121
14.4006 12.839
14.4158 13.067
14.4309 13.212
14.4461 13.168
14.4613 13.160
14.4765 12.912
14.4916 12.721
14.5068 12.723
14.5220 12.690
14.5372 12.357
14.5523 12.407
14.5675 12.010
14.5827 11.641
14.5979 11.656
14.6130 11.551
14.6282 11.682
14.6434 11.529
14.6586 11.558
14.6737 11.226
14.6889 11.192
14.7041 11.024
14.7193 11.260
14.7344 10.924
14.7496 11.095
14.7648 10.842
14.7800 10.846
14.7951 10.562
14.8103 10.846
14.8255 10.745
14.8407 10.529
14.8558 10.876
14.8710 10.762
14.8862 10.400
14.9014 10.528
14.9165 10.931
14.9317 11.337
14.9469 10.944
14.9621 10.684
14.9772 10.288
14.9924 10.420
15.0076 10.802
15.0228 10.389
15.0379 10.802
15.0531 10.433
15.0683 10.754
15.0835 10.673
15.0986 10.585
15.1138 10.101
15.1290 10.476
15.1442 10.705
15.1593 10.284
15.1745 10.305
15.1897 10.475
15.2049 10.430
15.2200 10.214
15.2352 10.393
15.2504 10.396
15.2656 10.184
15.2807 10.347
15.2959 10.158
15.3111 10.396
15.3263 10.380
15.3414 10.370
15.3566 10.397
15.3718 10.811
15.3870 10.539
15.4021 10.588
15.4173 10.481
15.4325 10.683
15.4477 10.323
15.4628 10.589
15.4780 10.554
15.4932 10.290
15.5084 10.426
15.5235 10.064
15.5387 10.317
15.5539 10.131
15.5691 10.306
15.5842 10.183
15.5994 10.100
15.6146 10.119
15.6298 10.116
15.6449 10.252
15.6601 10.143
15.6753 10.200
15.6905 10.097
15.7056 9.797
15.7208 9.994
15.7360 9.936
15.7512 9.971
15.7663 9.825
15.7815 9.969
15.7967 9.860
15.8119 9.589
15.8270 9.789
15.8422 9.836
15.8574 9.951
15.8726 9.783
15.8877 9.616
15.9029 9.753
15.9181 9.609
15.9333 9.815
15.9484 9.895
15.9636 9.865
15.9788 9.970
15.9940 9.656
16.0091 9.883
16.0243 9.962
16.0395 9.705
16.0547 9.915
16.0698 9.586
16.0850 9.496
16.1002 9.507
16.1154 9.680
16.1305 9.891
16.1457 9.701
16.1609 9.811
16.1761 9.736
16.1912 9.657
16.2064 9.820
16.2216 9.778
16.2368 9.852
16.2519 9.733
16.2671 9.737
16.2823 10.109
16.2975 10.022
16.3126 9.945
16.3278 10.069
16.3430 10.157
16.3582 9.979
16.3733 9.940
16.3885 9.792
16.4037 10.010
16.4189 10.084
16.4340 9.889
16.4492 9.950
16.4644 9.931
16.4796 9.777
16.4947 9.884
16.5099 9.859
16.5251 9.660
16.5403 9.541
16.5554 9.757
16.5706 9.878
16.5858 9.771
16.6010 9.828
16.6161 9.821
16.6313 9.598
16.6465 9.556
16.6617 9.727
16.6768 9.774
16.6920 9.975
16.7072 9.926
16.7224 9.839
16.7375 9.956
16.7527 9.753
16.7679 9.583
16.7831 9.730
16.7982 9.834
16.8134 10.114
16.8286 10.129
16.8438 9.783
16.8589 9.721
16.8741 9.710
16.8893 10.119
16.9045 10.229
16.9196 9.893
16.9348 9.728
16.9500 9.713
16.9652 9.913
16.9803 9.846
16.9955 9.843
17.0107 10.033
17.0259 9.912
17.0410 9.824
17.0562 10.021
17.0714 10.134
17.0866 10.324
17.1017 10.502
17.1169 10.614
17.1321 10.972
17.1473 11.358
17.1624 11.895
17.1776 12.360
17.1928 12.815
17.2080 13.701
17.2231 14.932
17.2383 15.857
17.2535 17.007
17.2687 18.400
17.2838 18.755
17.2990 18.058
17.3142 16.920
17.3294 16.143
17.3445 15.876
17.3597 15.911
17.3749 15.798
17.3901 15.346
17.4052 14.457
17.4204 13.228
17.4356 12.463
17.4508 11.814
17.4659 11.530
17.4811 11.612
17.4963 11.457
17.5115 11.333
17.5266 11.297
17.5418 11.328
17.5570 11.510
17.5722 11.705
17.5873 11.779
17.6025 11.779
17.6177 11.507
17.6329 11.294
17.6480 11.056
17.6632 10.827
17.6784 10.918
17.6936 11.088
17.7087 11.088
17.7239 10.912
17.7391 10.922
17.7543 10.859
17.7694 10.732
17.7846 10.928
17.7998 10.948
17.8150 10.890
17.8301 10.990
17.8453 11.059
17.8605 11.012
17.8757 11.155
17.8908 11.014
17.9060 10.931
17.9212 11.003
17.9364 10.689
17.9515 10.675
17.9667 10.672
17.9819 10.614
17.9971 10.434
18.0122 10.335
18.0274 10.294
18.0426 10.228
18.0578 10.317
18.0729 10.459
18.0881 10.497
18.1033 10.236
18.1185 10.030
18.1336 10.022
18.1488 10.066
18.1640 9.956
18.1792 9.890
18.1943 9.824
18.2095 9.890
18.2247 9.890
18.2399 9.983
18.2550 10.061
18.2702 9.917
18.2854 9.726
18.3006 9.799
18.3157 9.752
18.3309 9.762
18.3461 9.713
18.3613 9.860
18.3764 9.864
18.3916 9.887
18.4068 9.841
18.4220 9.778
18.4371 9.833
18.4523 9.997
18.4675 10.081
18.4827 10.241
18.4978 10.000
18.5130 9.689
18.5282 9.624
18.5434 9.876
18.5585 9.908
18.5737 9.838
18.5889 9.961
18.6041 9.889
18.6192 9.761
18.6344 10.017
18.6496 10.025
18.6648 9.874
18.6799 9.794
18.6951 9.697
18.7103 9.909
18.7255 10.079
18.7406 9.869
18.7558 9.838
18.7710 9.749
18.7862 9.452
18.8013 9.555
18.8165 9.789
18.8317 9.687
18.8469 9.598
18.8620 9.928
18.8772 9.871
18.8924 9.780
18.9076 9.845
18.9227 9.884
18.9379 10.058
18.9531 9.967
18.9683 10.104
18.9834 10.221
18.9986 10.117
19.0138 10.280
19.0290 10.134
19.0441 10.115
19.0593 10.145
19.0745 10.055
19.0897 10.099
19.1048 10.411
19.1200 10.419
19.1352 10.375
19.1504 10.442
19.1655 10.603
19.1807 10.537
19.1959 10.248
19.2111 10.405
19.2262 10.631
19.2414 10.763
19.2566 10.694
19.2718 10.809
19.2869 11.078
19.3021 11.138
19.3173 11.001
19.3325 11.083
19.3476 10.914
19.3628 11.096
19.3780 11.281
19.3932 11.100
19.4083 11.156
19.4235 11.391
19.4387 11.484
19.4539 11.415
19.4690 11.551
19.4842 11.500
19.4994 11.470
19.5146 11.527
19.5297 11.511
19.5449 11.376
19.5601 11.595
19.5753 11.770
19.5904 11.658
19.6056 11.769
19.6208 11.656
19.6360 11.545
19.6511 11.783
19.6663 12.045
19.6815 11.958
19.6967 11.688
19.7118 11.544
19.7270 11.720
19.7422 11.782
19.7574 11.812
19.7725 11.813
19.7877 11.848
19.8029 11.990
19.8180 12.155
19.8332 12.029
19.8484 12.072
19.8636 12.296
19.8787 12.503
19.8939 12.622
19.9091 12.900
19.9243 13.378
19.9394 13.544
19.9546 13.623
19.9698 14.098
19.9850 14.178
20.0001 14.115
20.0153 13.995
20.0305 13.736
20.0457 13.470
20.0608 13.522
20.0760 13.670
20.0912 13.760
20.1064 13.538
20.1215 13.465
20.1367 13.270
20.1519 13.236
20.1671 13.373
20.1822 13.071
20.1974 13.067
20.2126 12.897
20.2278 12.869
20.2429 12.863
20.2581 12.570
20.2733 12.437
20.2885 12.171
20.3036 11.827
20.3188 12.056
20.3340 12.126
20.3492 12.194
20.3643 11.704
20.3795 11.248
20.3947 11.249
20.4099 11.369
20.4250 11.210
20.4402 10.950
20.4554 10.963
20.4706 10.813
20.4857 11.006
20.5009 11.047
20.5161 10.995
20.5313 10.929
20.5464 10.894
20.5616 10.872
20.5768 10.855
20.5920 10.682
20.6071 10.774
20.6223 10.694
20.6375 10.701
20.6527 10.837
20.6678 10.905
20.6830 10.882
20.6982 10.709
20.7134 10.798
20.7285 10.639
20.7437 10.580
20.7589 10.528
20.7741 10.887
20.7892 10.581
20.8044 10.474
20.8196 10.617
20.8348 10.564
20.8499 10.480
20.8651 10.425
20.8803 10.552
20.8955 10.603
20.9106 10.409
20.9258 10.026
20.9410 10.042
20.9562 9.755
20.9713 10.080
20.9865 10.278
21.0017 10.097
21.0169 10.026
21.0320 10.280
21.0472 9.984
21.0624 9.862
21.0776 9.977
21.0927 9.898
21.1079 9.797
21.1231 9.852
21.1383 9.793
21.1534 9.764
21.1686 9.602
21.1838 9.968
21.1990 9.549
21.2141 9.623
21.2293 9.965
21.2445 9.719
21.2597 9.781
21.2748 9.478
21.2900 9.346
21.3052 9.627
21.3204 9.746
21.3355 9.936
21.3507 9.495
21.3659 9.517
21.3811 9.577
21.3962 9.153
21.4114 9.416
21.4266 9.363
21.4418 9.251
21.4569 9.447
21.4721 9.413
21.4873 9.393
21.5025 9.454
21.5176 9.574
21.5328 9.372
21.5480 9.156
21.5632 9.361
21.5783 9.424
21.5935 9.360
21.6087 9.222
21.6239 8.962
21.6390 8.929
21.6542 9.157
21.6694 9.060
21.6846 9.119
21.6997 9.233
21.7149 9.181
21.7301 9.002
21.7453 8.919
21.7604 9.110
21.7756 9.018
21.7908 8.994
21.8060 8.955
21.8211 8.998
21.8363 8.991
21.8515 8.971
21.8667 9.001
21.8818 9.145
21.8970 9.098
21.9122 9.159
21.9274 9.120
21.9425 8.950
21.9577 8.867
21.9729 8.947
21.9881 8.970
22.0032 8.736
22.0184 8.716
22.0336 8.835
22.0488 8.928
22.0639 8.840
22.0791 8.480
22.0943 8.685
22.1095 8.836
22.1246 8.653
22.1398 8.713
22.1550 8.791
22.1702 8.545
22.1853 8.583
22.2005 8.845
22.2157 8.719
22.2309 8.511
22.2460 8.643
22.2612 8.727
22.2764 8.620
22.2916 8.640
22.3067 8.715
22.3219 8.689
22.3371 8.728
22.3523 8.490
22.3674 8.758
22.3826 8.480
22.3978 8.417
22.4130 8.439
22.4281 8.599
22.4433 8.900
22.4585 8.559
22.4737 8.472
22.4888 8.398
22.5040 8.339
22.5192 8.423
22.5344 8.406
22.5495 8.560
22.5647 8.296
22.5799 8.596
22.5951 8.223
22.6102 8.621
22.6254 8.735
22.6406 8.550
22.6558 8.495
22.6709 8.472
22.6861 8.491
22.7013 8.445
22.7165 8.273
22.7316 6.519
