'Id: "" Comment: "" Operator: "Lab Manager" Anode: "Mo" Scantype: "Still (Eiger2R_500K (1D mode))" TimePerStep: "300" X: "11.8" Y: "9.4" Z: "11.284" 
7.2532 19.186
7.2684 18.407
7.2836 18.867
7.2987 19.003
7.3139 19.167
7.3291 18.682
7.3443 19.197
7.3594 18.995
7.3746 18.982
7.3898 18.751
7.4050 19.333
7.4201 19.324
7.4353 18.996
7.4505 19.399
7.4657 19.507
7.4808 19.436
7.4960 19.239
7.5112 19.378
7.5264 19.430
7.5415 19.603
7.5567 19.534
7.5719 19.413
7.5871 19.939
7.6022 20.065
7.6174 19.586
7.6326 19.835
7.6478 19.847
7.6629 19.809
7.6781 19.924
7.6933 20.135
7.7085 20.071
7.7236 20.148
7.7388 20.585
7.7540 20.802
7.7692 20.484
7.7843 20.487
7.7995 20.614
7.8147 20.339
7.8299 20.393
7.8450 20.445
7.8602 20.325
7.8754 20.315
7.8905 20.407
7.9057 20.614
7.9209 20.651
7.9361 20.936
7.9512 20.885
7.9664 20.541
7.9816 20.357
7.9968 20.625
8.0119 20.974
8.0271 20.991
8.0423 21.013
8.0575 20.955
8.0726 21.183
8.0878 20.998
8.1030 20.919
8.1182 20.699
8.1333 21.112
8.1485 21.080
8.1637 21.360
8.1789 21.428
8.1940 21.549
8.2092 21.492
8.2244 21.381
8.2396 21.340
8.2547 21.232
8.2699 21.353
8.2851 21.448
8.3003 21.354
8.3154 20.993
8.3306 21.166
8.3458 21.338
8.3610 21.210
8.3761 21.646
8.3913 21.485
8.4065 21.692
8.4217 22.015
8.4368 21.581
8.4520 21.867
8.4672 21.945
8.4824 21.459
8.4975 21.308
8.5127 21.657
8.5279 21.561
8.5431 21.757
8.5582 22.117
8.5734 22.052
8.5886 21.855
8.6038 21.875
8.6189 21.850
8.6341 22.361
8.6493 22.023
8.6645 21.612
8.6796 21.893
8.6948 22.045
8.7100 22.174
8.7252 22.333
8.7403 22.132
8.7555 21.975
8.7707 22.083
8.7859 22.132
8.8010 22.373
8.8162 22.630
8.8314 22.329
8.8466 22.641
8.8617 22.640
8.8769 22.765
8.8921 22.759
8.9073 22.397
8.9224 22.705
8.9376 21.768
8.9528 22.461
8.9680 23.012
8.9831 23.118
8.9983 22.385
9.0135 22.651
9.0287 22.444
9.0438 22.421
9.0590 22.906
9.0742 23.033
9.0894 22.568
9.1045 22.151
9.1197 22.809
9.1349 22.700
9.1501 22.472
9.1652 22.546
9.1804 22.713
9.1956 22.880
9.2108 23.070
9.2259 22.888
9.2411 23.131
9.2563 22.948
9.2715 22.561
9.2866 22.935
9.3018 23.100
9.3170 22.930
9.3322 22.597
9.3473 22.834
9.3625 22.746
9.3777 22.830
9.3929 23.010
9.4080 22.934
9.4232 22.780
9.4384 22.914
9.4536 22.965
9.4687 23.234
9.4839 23.157
9.4991 23.126
9.5143 23.225
9.5294 23.175
9.5446 23.008
9.5598 23.099
9.5750 23.252
9.5901 23.131
9.6053 23.062
9.6205 23.009
9.6357 23.182
9.6508 23.438
9.6660 23.667
9.6812 23.639
9.6964 23.547
9.7115 23.624
9.7267 23.801
9.7419 23.839
9.7571 23.667
9.7722 23.632
9.7874 24.021
9.8026 23.923
9.8178 23.389
9.8329 23.196
9.8481 23.238
9.8633 23.402
9.8785 23.206
9.8936 22.942
9.9088 23.134
9.9240 23.283
9.9392 23.018
9.9543 23.192
9.9695 23.211
9.9847 23.067
9.9999 23.190
10.0150 23.105
10.0302 23.212
10.0454 22.970
10.0606 22.648
10.0757 23.125
10.0909 23.339
10.1061 23.241
10.1213 23.207
10.1364 22.899
10.1516 23.153
10.1668 23.247
10.1820 22.983
10.1971 23.026
10.2123 23.238
10.2275 23.111
10.2427 22.786
10.2578 22.639
10.2730 22.844
10.2882 22.956
10.3034 23.135
10.3185 22.788
10.3337 22.513
10.3489 22.686
10.3641 22.961
10.3792 22.782
10.3944 22.199
10.4096 21.811
10.4248 22.316
10.4399 22.703
10.4551 22.895
10.4703 22.723
10.4855 22.544
10.5006 22.837
10.5158 22.559
10.5310 22.157
10.5462 22.496
10.5613 22.323
10.5765 22.417
10.5917 22.205
10.6069 22.066
10.6220 22.304
10.6372 22.005
10.6524 22.297
10.6676 22.341
10.6827 22.329
10.6979 22.516
10.7131 22.526
10.7283 22.451
10.7434 22.387
10.7586 22.306
10.7738 22.158
10.7890 22.031
10.8041 22.098
10.8193 22.363
10.8345 22.472
10.8497 21.879
10.8648 21.787
10.8800 21.876
10.8952 21.718
10.9104 21.903
10.9255 21.898
10.9407 21.705
10.9559 21.599
10.9711 22.181
10.9862 21.927
11.0014 21.780
11.0166 22.186
11.0318 22.020
11.0469 22.125
11.0621 21.891
11.0773 21.965
11.0925 21.859
11.1076 21.580
11.1228 21.498
11.1380 21.745
11.1532 21.740
11.1683 21.549
11.1835 21.287
11.1987 21.909
11.2139 21.981
11.2290 21.659
11.2442 21.545
11.2594 21.486
11.2746 21.568
11.2897 21.689
11.3049 21.730
11.3201 21.515
11.3353 21.385
11.3504 21.488
11.3656 21.686
11.3808 21.486
11.3960 21.291
11.4111 21.140
11.4263 21.299
11.4415 21.459
11.4567 21.426
11.4718 21.055
11.4870 21.062
11.5022 20.967
11.5174 21.008
11.5325 21.234
11.5477 21.116
11.5629 20.922
11.5781 20.919
11.5932 20.939
11.6084 20.897
11.6236 20.665
11.6388 20.285
11.6539 20.455
11.6691 20.806
11.6843 20.031
11.6995 19.891
11.7146 20.616
11.7298 20.472
11.7450 20.371
11.7602 20.161
11.7753 20.193
11.7905 20.103
11.8057 20.181
11.8209 19.935
11.8360 19.831
11.8512 20.063
11.8664 19.713
11.8816 19.621
11.8967 19.449
11.9119 19.586
11.9271 19.482
11.9423 19.508
11.9574 19.291
11.9726 19.323
11.9878 19.266
12.0030 19.407
12.0181 19.177
12.0333 19.035
12.0485 18.767
12.0637 18.772
12.0788 18.924
12.0940 19.004
12.1092 19.081
12.1244 18.824
12.1395 18.455
12.1547 18.363
12.1699 18.191
12.1851 17.996
12.2002 17.969
12.2154 18.268
12.2306 18.036
12.2458 18.045
12.2609 17.899
12.2761 17.862
12.2913 17.862
12.3065 17.600
12.3216 17.750
12.3368 17.813
12.3520 17.453
12.3672 17.550
12.3823 17.780
12.3975 17.282
12.4127 17.031
12.4279 17.019
12.4430 16.981
12.4582 17.086
12.4734 16.953
12.4886 16.645
12.5037 16.453
12.5189 16.504
12.5341 16.573
12.5493 16.484
12.5644 16.238
12.5796 16.116
12.5948 15.833
12.6100 15.936
12.6251 15.894
12.6403 16.078
12.6555 16.079
12.6707 15.963
12.6858 15.978
12.7010 15.561
12.7162 15.304
12.7314 15.326
12.7465 15.394
12.7617 15.085
12.7769 14.983
12.7921 15.006
12.8072 14.747
12.8224 14.727
12.8376 15.045
12.8528 15.062
12.8679 15.066
12.8831 14.938
12.8983 14.646
12.9135 14.762
12.9286 14.768
12.9438 14.581
12.9590 14.443
12.9742 14.182
12.9893 14.203
13.0045 14.216
13.0197 14.084
13.0349 14.006
13.0500 13.901
13.0652 13.789
13.0804 13.735
13.0956 13.845
13.1107 13.811
13.1259 13.567
13.1411 13.575
13.1563 13.729
13.1714 13.542
13.1866 13.504
13.2018 13.681
13.2170 13.504
13.2321 13.448
13.2473 13.572
13.2625 13.485
13.2777 13.430
13.2928 13.313
13.3080 13.150
13.3232 13.300
13.3384 13.203
13.3535 13.015
13.3687 13.043
13.3839 12.817
13.3991 12.912
13.4142 13.001
13.4294 12.673
13.4446 12.641
13.4598 12.766
13.4749 12.768
13.4901 12.761
13.5053 12.605
13.5205 12.590
13.5356 12.524
13.5508 12.281
13.5660 12.259
13.5812 12.219
13.5963 12.146
13.6115 12.116
13.6267 12.134
13.6419 11.988
13.6570 11.836
13.6722 12.044
13.6874 12.006
13.7026 12.129
13.7177 12.134
13.7329 12.156
13.7481 12.068
13.7633 12.073
13.7784 12.069
13.7936 12.354
13.8088 12.371
13.8239 12.154
13.8391 12.172
13.8543 12.184
13.8695 12.238
13.8846 12.316
13.8998 12.356
13.9150 12.210
13.9302 12.030
13.9453 11.786
13.9605 11.669
13.9757 11.524
13.9909 11.706
14.0060 11.885
14.0212 11.856
14.0364 12.059
14.0516 11.946
14.0667 11.630
14.0819 11.419
14.0971 11.791
14.1123 12.080
14.1274 11.891
14.1426 11.463
14.1578 11.928
14.1730 11.909
14.1881 11.877
14.2033 11.667
14.2185 11.704
14.2337 11.612
14.2488 11.858
14.2640 11.686
14.2792 11.690
14.2944 11.753
14.3095 12.006
14.3247 11.899
14.3399 12.027
14.3551 12.314
14.3702 12.639
14.3854 12.879
14.4006 12.985
14.4158 13.246
14.4309 12.887
14.4461 12.368
14.4613 12.320
14.4765 12.130
14.4916 12.427
14.5068 11.946
14.5220 11.541
14.5372 11.592
14.5523 11.404
14.5675 10.960
14.5827 10.822
14.5979 10.934
14.6130 10.763
14.6282 10.832
14.6434 10.811
14.6586 10.845
14.6737 10.914
14.6889 10.678
14.7041 10.568
14.7193 10.244
14.7344 10.414
14.7496 10.684
14.7648 10.568
14.7800 10.595
14.7951 10.396
14.8103 10.542
14.8255 10.527
14.8407 10.278
14.8558 10.373
14.8710 10.323
14.8862 10.419
14.9014 10.077
14.9165 10.683
14.9317 10.706
14.9469 10.361
14.9621 10.521
14.9772 10.105
14.9924 10.411
15.0076 10.322
15.0228 10.118
15.0379 10.372
15.0531 10.296
15.0683 10.301
15.0835 10.270
15.0986 10.230
15.1138 10.182
15.1290 10.150
15.1442 10.355
15.1593 9.870
15.1745 10.089
15.1897 10.087
15.2049 10.105
15.2200 9.647
15.2352 9.791
15.2504 9.881
15.2656 10.197
15.2807 9.974
15.2959 9.664
15.3111 9.834
15.3263 9.939
15.3414 9.940
15.3566 10.046
15.3718 10.200
15.3870 10.135
15.4021 10.043
15.4173 10.410
15.4325 10.154
15.4477 9.980
15.4628 10.174
15.4780 10.169
15.4932 9.982
15.5084 9.836
15.5235 9.939
15.5387 10.180
15.5539 9.952
15.5691 9.985
15.5842 9.953
15.5994 10.137
15.6146 9.836
15.6298 9.870
15.6449 9.625
15.6601 9.706
15.6753 9.672
15.6905 9.692
15.7056 9.781
15.7208 9.639
15.7360 9.617
15.7512 9.544
15.7663 9.349
15.7815 9.738
15.7967 9.559
15.8119 9.837
15.8270 9.854
15.8422 9.838
15.8574 9.730
15.8726 9.495
15.8877 9.511
15.9029 9.310
15.9181 9.465
15.9333 9.436
15.9484 9.441
15.9636 9.277
15.9788 9.465
15.9940 9.623
16.0091 9.537
16.0243 9.674
16.0395 9.760
16.0547 9.553
16.0698 9.629
16.0850 9.615
16.1002 9.563
16.1154 9.631
16.1305 9.582
16.1457 9.617
16.1609 9.409
16.1761 9.500
16.1912 9.722
16.2064 9.737
16.2216 9.746
16.2368 9.674
16.2519 9.646
16.2671 9.578
16.2823 9.633
16.2975 9.644
16.3126 10.037
16.3278 9.723
16.3430 9.605
16.3582 9.678
16.3733 9.815
16.3885 9.800
16.4037 9.857
16.4189 9.728
16.4340 9.817
16.4492 9.479
16.4644 9.329
16.4796 9.543
16.4947 9.470
16.5099 9.461
16.5251 9.323
16.5403 9.576
16.5554 9.611
16.5706 9.674
16.5858 9.805
16.6010 9.752
16.6161 9.643
16.6313 9.480
16.6465 9.716
16.6617 9.710
16.6768 9.713
16.6920 9.807
16.7072 9.876
16.7224 10.004
16.7375 9.728
16.7527 9.637
16.7679 9.835
16.7831 9.757
16.7982 9.729
16.8134 9.813
16.8286 9.803
16.8438 9.817
16.8589 9.811
16.8741 9.694
16.8893 9.620
16.9045 9.598
16.9196 9.358
16.9348 9.430
16.9500 9.585
16.9652 9.704
16.9803 9.888
16.9955 9.802
17.0107 9.569
17.0259 9.746
17.0410 9.898
17.0562 10.069
17.0714 10.311
17.0866 10.290
17.1017 10.519
17.1169 10.762
17.1321 10.879
17.1473 11.236
17.1624 11.642
17.1776 12.273
17.1928 13.241
17.2080 14.171
17.2231 15.153
17.2383 16.421
17.2535 17.598
17.2687 18.429
17.2838 18.744
17.2990 18.127
17.3142 17.233
17.3294 16.586
17.3445 16.184
17.3597 16.050
17.3749 15.872
17.3901 15.221
17.4052 14.125
17.4204 13.330
17.4356 12.547
17.4508 12.049
17.4659 11.861
17.4811 11.452
17.4963 11.295
17.5115 11.104
17.5266 10.819
17.5418 10.828
17.5570 10.881
17.5722 10.975
17.5873 11.252
17.6025 11.341
17.6177 11.299
17.6329 11.284
17.6480 11.396
17.6632 11.587
17.6784 11.541
17.6936 11.219
17.7087 11.165
17.7239 11.132
17.7391 10.958
17.7543 11.004
17.7694 11.040
17.7846 10.761
17.7998 10.606
17.8150 10.478
17.8301 10.278
17.8453 10.301
17.8605 10.382
17.8757 10.440
17.8908 10.376
17.9060 10.441
17.9212 10.249
17.9364 9.993
17.9515 9.898
17.9667 9.905
17.9819 10.299
17.9971 10.201
18.0122 10.035
18.0274 10.189
18.0426 10.226
18.0578 10.164
18.0729 9.879
18.0881 9.993
18.1033 9.875
18.1185 9.890
18.1336 9.840
18.1488 9.963
18.1640 9.882
18.1792 9.902
18.1943 9.909
18.2095 9.754
18.2247 9.775
18.2399 9.786
18.2550 9.566
18.2702 9.679
18.2854 10.050
18.3006 9.821
18.3157 9.583
18.3309 9.724
18.3461 9.782
18.3613 9.574
18.3764 9.775
18.3916 9.838
18.4068 9.658
18.4220 9.603
18.4371 9.732
18.4523 9.613
18.4675 9.576
18.4827 9.650
18.4978 9.761
18.5130 9.570
18.5282 9.892
18.5434 9.953
18.5585 9.790
18.5737 9.815
18.5889 9.744
18.6041 9.705
18.6192 9.656
18.6344 9.696
18.6496 9.895
18.6648 9.790
18.6799 9.785
18.6951 9.802
18.7103 9.896
18.7255 9.874
18.7406 9.825
18.7558 9.721
18.7710 9.854
18.7862 9.850
18.8013 9.675
18.8165 9.775
18.8317 9.806
18.8469 9.831
18.8620 9.794
18.8772 9.831
18.8924 9.974
18.9076 10.004
18.9227 10.033
18.9379 9.865
18.9531 9.847
18.9683 10.139
18.9834 10.001
18.9986 10.230
19.0138 10.437
19.0290 10.132
19.0441 10.000
19.0593 10.271
19.0745 10.104
19.0897 10.137
19.1048 10.554
19.1200 10.286
19.1352 10.192
19.1504 10.365
19.1655 10.291
19.1807 10.559
19.1959 10.591
19.2111 10.661
19.2262 10.815
19.2414 10.762
19.2566 10.728
19.2718 10.684
19.2869 10.704
19.3021 10.937
19.3173 11.009
19.3325 10.873
19.3476 11.048
19.3628 11.047
19.3780 11.153
19.3932 11.156
19.4083 11.140
19.4235 11.363
19.4387 11.333
19.4539 11.161
19.4690 11.157
19.4842 11.211
19.4994 11.423
19.5146 11.624
19.5297 11.592
19.5449 11.664
19.5601 11.627
19.5753 11.626
19.5904 11.625
19.6056 11.588
19.6208 11.777
19.6360 11.655
19.6511 11.678
19.6663 11.808
19.6815 11.871
19.6967 11.645
19.7118 11.457
19.7270 11.511
19.7422 11.539
19.7574 11.887
19.7725 12.117
19.7877 11.815
19.8029 11.704
19.8180 11.975
19.8332 12.160
19.8484 12.118
19.8636 12.100
19.8787 12.261
19.8939 12.696
19.9091 13.180
19.9243 13.655
19.9394 13.863
19.9546 14.227
19.9698 14.554
19.9850 14.429
20.0001 14.441
20.0153 14.064
20.0305 13.783
20.0457 13.823
20.0608 13.854
20.0760 13.944
20.0912 13.935
20.1064 13.706
20.1215 13.409
20.1367 13.339
20.1519 12.950
20.1671 12.855
20.1822 13.020
20.1974 12.743
20.2126 12.442
20.2278 12.514
20.2429 12.577
20.2581 12.451
20.2733 12.291
20.2885 12.006
20.3036 11.846
20.3188 11.842
20.3340 12.059
20.3492 11.967
20.3643 11.895
20.3795 12.052
20.3947 11.996
20.4099 11.767
20.4250 11.696
20.4402 11.960
20.4554 11.828
20.4706 11.695
20.4857 11.672
20.5009 11.490
20.5161 11.346
20.5313 11.184
20.5464 11.325
20.5616 11.364
20.5768 11.619
20.5920 11.223
20.6071 10.947
20.6223 11.019
20.6375 10.943
20.6527 10.957
20.6678 10.647
20.6830 10.710
20.6982 10.781
20.7134 10.237
20.7285 10.665
20.7437 10.302
20.7589 10.537
20.7741 10.848
20.7892 10.396
20.8044 10.686
20.8196 10.061
20.8348 10.329
20.8499 10.328
20.8651 10.287
20.8803 10.495
20.8955 10.155
20.9106 9.852
20.9258 10.120
20.9410 10.223
20.9562 10.209
20.9713 10.249
20.9865 9.866
21.0017 10.176
21.0169 9.980
21.0320 9.931
21.0472 9.856
21.0624 9.953
21.0776 9.887
21.0927 9.661
21.1079 10.097
21.1231 9.869
21.1383 9.683
21.1534 9.574
21.1686 9.718
21.1838 9.932
21.1990 9.896
21.2141 9.674
21.2293 9.842
21.2445 9.540
21.2597 9.708
21.2748 10.445
21.2900 9.538
21.3052 9.667
21.3204 9.687
21.3355 9.569
21.3507 9.718
21.3659 9.426
21.3811 9.456
21.3962 9.295
21.4114 9.565
21.4266 9.373
21.4418 9.391
21.4569 9.704
21.4721 9.425
21.4873 9.415
21.5025 9.286
21.5176 9.058
21.5328 9.244
21.5480 8.890
21.5632 9.104
21.5783 9.278
21.5935 9.567
21.6087 9.266
21.6239 8.978
21.6390 9.000
21.6542 9.103
21.6694 9.156
21.6846 9.101
21.6997 9.155
21.7149 9.255
21.7301 9.098
21.7453 9.186
21.7604 9.150
21.7756 9.063
21.7908 8.909
21.8060 8.965
21.8211 9.062
21.8363 8.861
21.8515 8.778
21.8667 8.895
21.8818 9.096
21.8970 9.178
21.9122 9.022
21.9274 8.813
21.9425 8.911
21.9577 9.018
21.9729 8.896
21.9881 8.753
22.0032 8.654
22.0184 8.800
22.0336 8.918
22.0488 8.894
22.0639 8.867
22.0791 8.740
22.0943 8.686
22.1095 8.542
22.1246 8.522
22.1398 8.721
22.1550 8.702
22.1702 8.546
22.1853 8.417
22.2005 8.680
22.2157 8.569
22.2309 8.445
22.2460 8.416
22.2612 8.633
22.2764 8.516
22.2916 8.519
22.3067 8.278
22.3219 8.245
22.3371 8.577
22.3523 8.493
22.3674 8.695
22.3826 8.505
22.3978 8.492
22.4130 8.396
22.4281 8.439
22.4433 8.410
22.4585 8.478
22.4737 8.591
22.4888 8.423
22.5040 8.436
22.5192 8.505
22.5344 8.599
22.5495 8.570
22.5647 8.463
22.5799 8.543
22.5951 8.527
22.6102 8.364
22.6254 8.147
22.6406 8.296
22.6558 8.539
22.6709 8.301
22.6861 8.090
22.7013 8.246
22.7165 7.805
22.7316 6.344
