'Id: "" Comment: "" Operator: "Lab Manager" Anode: "Mo" Scantype: "Still (Eiger2R_500K (1D mode))" TimePerStep: "300" X: "11.8" Y: "9.4" Z: "11.284" 
7.2532 18.933
7.2684 18.523
7.2836 19.127
7.2987 19.222
7.3139 18.933
7.3291 19.007
7.3443 19.540
7.3594 19.339
7.3746 19.696
7.3898 19.720
7.4050 19.896
7.4201 19.773
7.4353 19.920
7.4505 20.279
7.4657 20.371
7.4808 19.589
7.4960 19.591
7.5112 19.412
7.5264 19.989
7.5415 20.023
7.5567 20.108
7.5719 19.899
7.5871 19.506
7.6022 19.599
7.6174 20.141
7.6326 20.092
7.6478 20.138
7.6629 20.054
7.6781 20.096
7.6933 20.464
7.7085 20.530
7.7236 20.447
7.7388 20.274
7.7540 20.090
7.7692 20.036
7.7843 20.229
7.7995 20.235
7.8147 20.567
7.8299 20.544
7.8450 20.619
7.8602 20.676
7.8754 20.700
7.8905 20.677
7.9057 20.530
7.9209 20.613
7.9361 20.851
7.9512 21.025
7.9664 20.622
7.9816 20.733
7.9968 21.046
8.0119 21.271
8.0271 21.136
8.0423 21.306
8.0575 21.038
8.0726 21.490
8.0878 21.440
8.1030 21.435
8.1182 21.295
8.1333 21.400
8.1485 21.721
8.1637 21.917
8.1789 21.671
8.1940 21.474
8.2092 21.686
8.2244 21.679
8.2396 21.446
8.2547 21.662
8.2699 21.668
8.2851 22.038
8.3003 22.011
8.3154 21.975
8.3306 21.603
8.3458 21.603
8.3610 21.497
8.3761 21.747
8.3913 21.573
8.4065 21.679
8.4217 21.743
8.4368 21.691
8.4520 21.878
8.4672 21.461
8.4824 22.507
8.4975 22.244
8.5127 22.476
8.5279 21.832
8.5431 22.459
8.5582 21.820
8.5734 22.118
8.5886 22.400
8.6038 22.836
8.6189 22.412
8.6341 21.912
8.6493 22.271
8.6645 22.162
8.6796 21.740
8.6948 22.597
8.7100 22.544
8.7252 22.379
8.7403 22.131
8.7555 22.605
8.7707 22.601
8.7859 22.612
8.8010 22.368
8.8162 22.660
8.8314 22.560
8.8466 22.711
8.8617 22.729
8.8769 23.070
8.8921 22.776
8.9073 22.970
8.9224 22.555
8.9376 22.621
8.9528 23.070
8.9680 22.788
8.9831 22.717
8.9983 22.620
9.0135 22.385
9.0287 22.297
9.0438 22.507
9.0590 22.413
9.0742 22.643
9.0894 22.363
9.1045 22.628
9.1197 22.767
9.1349 22.762
9.1501 22.842
9.1652 22.986
9.1804 23.256
9.1956 23.042
9.2108 23.035
9.2259 23.027
9.2411 22.847
9.2563 22.687
9.2715 22.988
9.2866 22.804
9.3018 22.898
9.3170 22.882
9.3322 22.812
9.3473 22.663
9.3625 22.720
9.3777 22.863
9.3929 23.293
9.4080 23.277
9.4232 23.092
9.4384 23.076
9.4536 23.264
9.4687 23.419
9.4839 23.449
9.4991 23.366
9.5143 23.209
9.5294 23.225
9.5446 23.163
9.5598 23.459
9.5750 23.576
9.5901 23.035
9.6053 23.237
9.6205 23.510
9.6357 23.344
9.6508 23.454
9.6660 23.490
9.6812 23.693
9.6964 23.754
9.7115 23.657
9.7267 24.101
9.7419 24.345
9.7571 24.149
9.7722 24.050
9.7874 24.130
9.8026 23.890
9.8178 23.878
9.8329 23.903
9.8481 23.668
9.8633 23.678
9.8785 23.850
9.8936 23.776
9.9088 23.530
9.9240 23.997
9.9392 24.298
9.9543 23.968
9.9695 23.901
9.9847 23.689
9.9999 23.608
10.0150 23.373
10.0302 23.070
10.0454 23.298
10.0606 23.273
10.0757 23.008
10.0909 23.229
10.1061 23.216
10.1213 23.023
10.1364 22.921
10.1516 22.835
10.1668 22.859
10.1820 22.728
10.1971 22.914
10.2123 23.558
10.2275 23.238
10.2427 22.694
10.2578 22.606
10.2730 22.838
10.2882 22.963
10.3034 22.934
10.3185 22.954
10.3337 22.951
10.3489 22.900
10.3641 22.808
10.3792 23.069
10.3944 23.122
10.4096 22.913
10.4248 23.030
10.4399 23.061
10.4551 22.988
10.4703 22.720
10.4855 22.660
10.5006 22.960
10.5158 23.020
10.5310 23.089
10.5462 23.172
10.5613 22.863
10.5765 22.661
10.5917 22.648
10.6069 22.817
10.6220 22.493
10.6372 22.502
10.6524 22.397
10.6676 22.488
10.6827 22.334
10.6979 22.220
10.7131 22.663
10.7283 22.607
10.7434 22.467
10.7586 22.732
10.7738 22.164
10.7890 22.467
10.8041 22.391
10.8193 21.733
10.8345 22.089
10.8497 22.320
10.8648 22.598
10.8800 22.288
10.8952 22.067
10.9104 21.889
10.9255 21.754
10.9407 21.938
10.9559 22.154
10.9711 22.107
10.9862 21.948
11.0014 21.962
11.0166 22.164
11.0318 22.076
11.0469 21.791
11.0621 21.727
11.0773 22.141
11.0925 21.624
11.1076 21.652
11.1228 21.824
11.1380 21.842
11.1532 21.980
11.1683 21.741
11.1835 21.734
11.1987 21.673
11.2139 21.572
11.2290 21.687
11.2442 21.675
11.2594 21.543
11.2746 21.440
11.2897 21.480
11.3049 21.332
11.3201 21.529
11.3353 21.368
11.3504 21.187
11.3656 21.309
11.3808 21.390
11.3960 20.818
11.4111 21.172
11.4263 21.636
11.4415 21.453
11.4567 21.320
11.4718 21.297
11.4870 21.530
11.5022 21.057
11.5174 21.197
11.5325 21.012
11.5477 21.464
11.5629 21.409
11.5781 21.172
11.5932 21.015
11.6084 20.747
11.6236 20.591
11.6388 20.797
11.6539 20.984
11.6691 20.805
11.6843 20.540
11.6995 20.443
11.7146 20.311
11.7298 20.248
11.7450 20.421
11.7602 20.483
11.7753 20.397
11.7905 20.179
11.8057 20.020
11.8209 19.780
11.8360 19.640
11.8512 19.798
11.8664 19.787
11.8816 19.805
11.8967 19.939
11.9119 19.929
11.9271 19.636
11.9423 19.631
11.9574 19.312
11.9726 19.524
11.9878 19.381
12.0030 19.180
12.0181 19.428
12.0333 18.989
12.0485 18.873
12.0637 19.041
12.0788 19.126
12.0940 18.655
12.1092 18.494
12.1244 18.893
12.1395 18.711
12.1547 18.540
12.1699 18.701
12.1851 18.262
12.2002 18.270
12.2154 18.485
12.2306 18.211
12.2458 18.063
12.2609 18.246
12.2761 18.304
12.2913 17.836
12.3065 17.723
12.3216 17.544
12.3368 17.357
12.3520 17.674
12.3672 17.501
12.3823 17.044
12.3975 17.391
12.4127 17.525
12.4279 17.209
12.4430 17.250
12.4582 17.121
12.4734 16.704
12.4886 16.563
12.5037 16.667
12.5189 16.616
12.5341 16.330
12.5493 16.212
12.5644 16.121
12.5796 16.215
12.5948 16.359
12.6100 16.060
12.6251 15.877
12.6403 15.902
12.6555 15.702
12.6707 15.835
12.6858 15.791
12.7010 15.678
12.7162 15.758
12.7314 15.603
12.7465 15.516
12.7617 15.489
12.7769 15.359
12.7921 15.368
12.8072 15.383
12.8224 15.270
12.8376 14.974
12.8528 15.060
12.8679 15.009
12.8831 14.938
12.8983 14.865
12.9135 14.631
12.9286 14.413
12.9438 14.460
12.9590 14.487
12.9742 14.471
12.9893 14.460
13.0045 14.434
13.0197 14.149
13.0349 14.084
13.0500 14.367
13.0652 14.160
13.0804 13.875
13.0956 13.996
13.1107 14.070
13.1259 13.836
13.1411 13.984
13.1563 14.267
13.1714 14.016
13.1866 13.541
13.2018 13.392
13.2170 13.649
13.2321 13.586
13.2473 13.522
13.2625 13.650
13.2777 13.570
13.2928 13.567
13.3080 13.570
13.3232 13.335
13.3384 13.167
13.3535 13.230
13.3687 12.991
13.3839 12.832
13.3991 13.057
13.4142 13.167
13.4294 12.968
13.4446 12.934
13.4598 12.851
13.4749 12.658
13.4901 12.832
13.5053 12.734
13.5205 12.474
13.5356 12.420
13.5508 12.492
13.5660 12.485
13.5812 12.446
13.5963 12.275
13.6115 12.173
13.6267 12.262
13.6419 12.222
13.6570 12.223
13.6722 12.221
13.6874 12.108
13.7026 12.160
13.7177 12.211
13.7329 12.265
13.7481 12.222
13.7633 12.199
13.7784 12.313
13.7936 12.092
13.8088 12.204
13.8239 12.285
13.8391 12.503
13.8543 12.605
13.8695 12.574
13.8846 12.430
13.8998 12.031
13.9150 12.080
13.9302 12.114
13.9453 12.142
13.9605 12.070
13.9757 11.913
13.9909 11.851
14.0060 11.735
14.0212 11.508
14.0364 11.384
14.0516 11.323
14.0667 11.572
14.0819 11.445
14.0971 11.418
14.1123 11.500
14.1274 11.369
14.1426 11.530
14.1578 11.586
14.1730 11.362
14.1881 11.281
14.2033 11.377
14.2185 11.344
14.2337 11.497
14.2488 11.416
14.2640 11.336
14.2792 11.181
14.2944 11.688
14.3095 11.670
14.3247 11.745
14.3399 12.091
14.3551 12.086
14.3702 12.159
14.3854 12.305
14.4006 12.267
14.4158 12.484
14.4309 12.564
14.4461 12.880
14.4613 12.517
14.4765 12.180
14.4916 12.049
14.5068 11.884
14.5220 11.775
14.5372 11.779
14.5523 11.706
14.5675 11.509
14.5827 11.151
14.5979 11.102
14.6130 11.184
14.6282 11.374
14.6434 11.556
14.6586 11.580
14.6737 11.206
14.6889 11.217
14.7041 11.188
14.7193 11.752
14.7344 11.261
14.7496 11.133
14.7648 11.483
14.7800 11.264
14.7951 11.447
14.8103 10.847
14.8255 10.977
14.8407 11.064
14.8558 11.032
14.8710 10.853
14.8862 11.143
14.9014 10.907
14.9165 11.108
14.9317 11.085
14.9469 10.681
14.9621 10.787
14.9772 10.555
14.9924 10.782
15.0076 10.714
15.0228 10.609
15.0379 10.525
15.0531 10.675
15.0683 10.574
15.0835 10.268
15.0986 10.117
15.1138 10.509
15.1290 10.138
15.1442 10.651
15.1593 10.681
15.1745 10.597
15.1897 10.020
15.2049 10.372
15.2200 10.311
15.2352 10.548
15.2504 10.586
15.2656 10.239
15.2807 10.090
15.2959 10.484
15.3111 10.406
15.3263 10.356
15.3414 10.444
15.3566 10.194
15.3718 10.166
15.3870 10.341
15.4021 10.145
15.4173 10.094
15.4325 10.297
15.4477 10.349
15.4628 10.567
15.4780 10.553
15.4932 10.547
15.5084 10.570
15.5235 10.247
15.5387 10.202
15.5539 10.552
15.5691 10.528
15.5842 10.399
15.5994 10.182
15.6146 10.335
15.6298 10.536
15.6449 10.035
15.6601 9.892
15.6753 10.095
15.6905 10.020
15.7056 10.090
15.7208 10.182
15.7360 9.660
15.7512 9.856
15.7663 9.777
15.7815 9.721
15.7967 9.682
15.8119 9.922
15.8270 10.215
15.8422 9.971
15.8574 9.967
15.8726 9.905
15.8877 9.810
15.9029 9.805
15.9181 9.818
15.9333 9.942
15.9484 10.000
15.9636 10.287
15.9788 10.031
15.9940 9.894
16.0091 9.666
16.0243 9.514
16.0395 10.046
16.0547 10.078
16.0698 9.847
16.0850 9.803
16.1002 9.520
16.1154 9.406
16.1305 9.680
16.1457 9.704
16.1609 9.858
16.1761 9.746
16.1912 9.741
16.2064 9.812
16.2216 9.775
16.2368 9.936
16.2519 9.890
16.2671 9.849
16.2823 9.754
16.2975 9.877
16.3126 10.115
16.3278 9.884
16.3430 10.043
16.3582 10.051
16.3733 9.794
16.3885 9.885
16.4037 10.095
16.4189 9.926
16.4340 9.845
16.4492 9.997
16.4644 10.066
16.4796 9.824
16.4947 9.886
16.5099 9.849
16.5251 9.797
16.5403 9.766
16.5554 9.778
16.5706 9.908
16.5858 9.795
16.6010 9.775
16.6161 9.826
16.6313 9.747
16.6465 9.831
16.6617 10.074
16.6768 10.028
16.6920 10.106
16.7072 10.239
16.7224 10.298
16.7375 10.280
16.7527 9.946
16.7679 9.889
16.7831 10.028
16.7982 10.084
16.8134 10.048
16.8286 9.918
16.8438 9.908
16.8589 9.950
16.8741 9.899
16.8893 9.923
16.9045 9.783
16.9196 9.775
16.9348 9.880
16.9500 9.792
16.9652 9.956
16.9803 9.954
16.9955 9.964
17.0107 10.166
17.0259 10.167
17.0410 10.107
17.0562 10.428
17.0714 10.587
17.0866 10.682
17.1017 10.802
17.1169 11.053
17.1321 11.333
17.1473 11.587
17.1624 12.025
17.1776 12.455
17.1928 13.123
17.2080 14.131
17.2231 15.119
17.2383 16.477
17.2535 17.817
17.2687 18.724
17.2838 18.809
17.2990 17.966
17.3142 16.969
17.3294 16.199
17.3445 16.154
17.3597 16.259
17.3749 15.748
17.3901 15.203
17.4052 14.427
17.4204 13.280
17.4356 12.423
17.4508 11.959
17.4659 11.695
17.4811 11.495
17.4963 11.132
17.5115 11.028
17.5266 11.138
17.5418 10.785
17.5570 10.540
17.5722 10.469
17.5873 10.371
17.6025 10.310
17.6177 10.171
17.6329 10.222
17.6480 10.353
17.6632 10.150
17.6784 10.112
17.6936 10.365
17.7087 10.378
17.7239 10.218
17.7391 10.137
17.7543 10.070
17.7694 10.107
17.7846 10.378
17.7998 10.536
17.8150 10.696
17.8301 10.902
17.8453 10.866
17.8605 11.078
17.8757 11.239
17.8908 11.313
17.9060 11.208
17.9212 11.008
17.9364 10.967
17.9515 10.577
17.9667 10.634
17.9819 10.854
17.9971 10.702
18.0122 10.580
18.0274 10.630
18.0426 10.417
18.0578 10.521
18.0729 10.497
18.0881 10.251
18.1033 10.179
18.1185 10.260
18.1336 10.301
18.1488 10.030
18.1640 9.914
18.1792 9.833
18.1943 9.729
18.2095 9.863
18.2247 10.079
18.2399 10.008
18.2550 10.038
18.2702 9.994
18.2854 9.953
18.3006 9.880
18.3157 9.846
18.3309 9.857
18.3461 9.908
18.3613 9.921
18.3764 10.196
18.3916 9.891
18.4068 9.628
18.4220 9.875
18.4371 9.925
18.4523 9.917
18.4675 10.076
18.4827 9.803
18.4978 9.793
18.5130 9.923
18.5282 9.913
18.5434 9.602
18.5585 9.666
18.5737 9.857
18.5889 9.832
18.6041 10.029
18.6192 9.987
18.6344 9.861
18.6496 9.775
18.6648 9.672
18.6799 9.810
18.6951 9.957
18.7103 9.828
18.7255 9.897
18.7406 9.936
18.7558 9.848
18.7710 9.926
18.7862 9.925
18.8013 9.755
18.8165 9.583
18.8317 9.689
18.8469 10.082
18.8620 9.993
18.8772 9.974
18.8924 10.133
18.9076 10.030
18.9227 9.994
18.9379 10.096
18.9531 9.996
18.9683 10.078
18.9834 10.136
18.9986 10.033
19.0138 10.088
19.0290 10.361
19.0441 10.216
19.0593 10.250
19.0745 10.311
19.0897 10.149
19.1048 10.361
19.1200 10.328
19.1352 10.191
19.1504 10.504
19.1655 10.710
19.1807 10.549
19.1959 10.656
19.2111 10.795
19.2262 10.809
19.2414 10.775
19.2566 10.662
19.2718 11.021
19.2869 11.081
19.3021 11.007
19.3173 11.128
19.3325 11.033
19.3476 10.948
19.3628 11.132
19.3780 11.188
19.3932 11.335
19.4083 11.533
19.4235 11.349
19.4387 11.212
19.4539 11.185
19.4690 11.206
19.4842 11.373
19.4994 11.642
19.5146 11.485
19.5297 11.372
19.5449 11.468
19.5601 11.535
19.5753 11.540
19.5904 11.594
19.6056 11.662
19.6208 11.587
19.6360 11.566
19.6511 11.634
19.6663 11.604
19.6815 11.521
19.6967 11.541
19.7118 11.676
19.7270 11.683
19.7422 11.733
19.7574 11.743
19.7725 11.887
19.7877 11.891
19.8029 11.832
19.8180 11.878
19.8332 11.802
19.8484 12.003
19.8636 12.412
19.8787 12.526
19.8939 12.723
19.9091 13.361
19.9243 13.722
19.9394 13.954
19.9546 14.175
19.9698 14.657
19.9850 14.846
20.0001 14.537
20.0153 14.164
20.0305 14.097
20.0457 14.031
20.0608 13.845
20.0760 13.656
20.0912 13.633
20.1064 13.879
20.1215 13.652
20.1367 13.259
20.1519 13.072
20.1671 12.873
20.1822 12.592
20.1974 12.780
20.2126 12.760
20.2278 12.421
20.2429 12.295
20.2581 12.152
20.2733 12.051
20.2885 11.757
20.3036 11.343
20.3188 11.634
20.3340 11.910
20.3492 11.532
20.3643 11.163
20.3795 11.059
20.3947 10.991
20.4099 11.018
20.4250 10.700
20.4402 10.466
20.4554 10.641
20.4706 10.690
20.4857 10.649
20.5009 10.694
20.5161 10.665
20.5313 10.468
20.5464 10.452
20.5616 10.586
20.5768 10.481
20.5920 10.706
20.6071 10.450
20.6223 10.374
20.6375 10.595
20.6527 10.531
20.6678 10.515
20.6830 10.320
20.6982 10.358
20.7134 10.391
20.7285 10.535
20.7437 10.584
20.7589 10.622
20.7741 10.449
20.7892 10.367
20.8044 10.434
20.8196 10.277
20.8348 10.610
20.8499 10.563
20.8651 10.159
20.8803 10.398
20.8955 10.519
20.9106 10.310
20.9258 10.469
20.9410 10.511
20.9562 10.407
20.9713 10.287
20.9865 10.266
21.0017 10.281
21.0169 10.528
21.0320 10.448
21.0472 10.247
21.0624 10.131
21.0776 10.028
21.0927 10.486
21.1079 10.136
21.1231 10.186
21.1383 9.996
21.1534 9.996
21.1686 9.902
21.1838 9.628
21.1990 9.778
21.2141 9.706
21.2293 9.763
21.2445 9.454
21.2597 9.538
21.2748 9.804
21.2900 9.644
21.3052 9.666
21.3204 9.518
21.3355 9.742
21.3507 9.608
21.3659 9.980
21.3811 9.526
21.3962 9.533
21.4114 9.377
21.4266 9.324
21.4418 9.548
21.4569 9.415
21.4721 9.300
21.4873 9.533
21.5025 9.624
21.5176 9.266
21.5328 9.353
21.5480 9.219
21.5632 9.116
21.5783 9.144
21.5935 9.290
21.6087 9.040
21.6239 9.191
21.6390 9.205
21.6542 9.068
21.6694 9.239
21.6846 9.424
21.6997 9.076
21.7149 9.120
21.7301 9.160
21.7453 9.115
21.7604 8.972
21.7756 9.181
21.7908 9.101
21.8060 8.900
21.8211 8.962
21.8363 9.045
21.8515 8.984
21.8667 9.006
21.8818 9.022
21.8970 8.889
21.9122 8.842
21.9274 8.858
21.9425 9.003
21.9577 9.016
21.9729 8.948
21.9881 9.104
22.0032 9.130
22.0184 9.042
22.0336 8.827
22.0488 8.682
22.0639 8.705
22.0791 8.708
22.0943 8.614
22.1095 8.519
22.1246 8.682
22.1398 8.707
22.1550 8.541
22.1702 8.538
22.1853 8.804
22.2005 8.805
22.2157 8.905
22.2309 8.921
22.2460 8.675
22.2612 8.465
22.2764 8.579
22.2916 8.750
22.3067 8.572
22.3219 8.594
22.3371 8.569
22.3523 8.805
22.3674 8.623
22.3826 8.415
22.3978 8.598
22.4130 8.438
22.4281 8.496
22.4433 8.574
22.4585 8.379
22.4737 8.473
22.4888 8.708
22.5040 8.667
22.5192 8.210
22.5344 8.558
22.5495 8.903
22.5647 8.758
22.5799 8.812
22.5951 8.546
22.6102 8.433
22.6254 8.609
22.6406 8.617
22.6558 8.472
22.6709 8.632
22.6861 8.443
22.7013 8.249
22.7165 7.885
22.7316 6.547
