'Id: "" Comment: "" Operator: "Lab Manager" Anode: "Mo" Scantype: "Still (Eiger2R_500K (1D mode))" TimePerStep: "300" X: "11.8" Y: "9.4" Z: "11.284" 
7.2532 18.945
7.2684 19.187
7.2836 18.870
7.2987 18.826
7.3139 19.317
7.3291 19.310
7.3443 19.481
7.3594 19.195
7.3746 19.023
7.3898 18.624
7.4050 19.072
7.4201 19.620
7.4353 19.492
7.4505 19.472
7.4657 19.335
7.4808 19.210
7.4960 19.213
7.5112 19.550
7.5264 19.822
7.5415 19.568
7.5567 19.543
7.5719 19.594
7.5871 20.043
7.6022 20.087
7.6174 20.107
7.6326 20.046
7.6478 20.377
7.6629 20.674
7.6781 20.490
7.6933 20.291
7.7085 20.079
7.7236 20.359
7.7388 20.463
7.7540 20.156
7.7692 20.499
7.7843 20.775
7.7995 20.565
7.8147 20.465
7.8299 20.679
7.8450 20.664
7.8602 20.410
7.8754 20.815
7.8905 20.958
7.9057 20.746
7.9209 20.923
7.9361 21.086
7.9512 21.017
7.9664 20.915
7.9816 20.841
7.9968 21.132
8.0119 21.388
8.0271 21.273
8.0423 21.374
8.0575 21.396
8.0726 21.562
8.0878 21.506
8.1030 21.443
8.1182 21.223
8.1333 21.383
8.1485 21.554
8.1637 21.716
8.1789 21.503
8.1940 21.592
8.2092 21.385
8.2244 21.191
8.2396 21.528
8.2547 21.631
8.2699 21.872
8.2851 21.671
8.3003 21.697
8.3154 21.332
8.3306 21.881
8.3458 21.945
8.3610 21.975
8.3761 22.250
8.3913 22.479
8.4065 22.131
8.4217 21.971
8.4368 21.927
8.4520 22.348
8.4672 22.257
8.4824 21.689
8.4975 21.771
8.5127 22.300
8.5279 22.335
8.5431 21.807
8.5582 22.321
8.5734 22.165
8.5886 22.209
8.6038 22.536
8.6189 22.189
8.6341 22.041
8.6493 22.286
8.6645 22.189
8.6796 22.717
8.6948 22.576
8.7100 22.903
8.7252 22.823
8.7403 22.729
8.7555 22.647
8.7707 22.818
8.7859 22.653
8.8010 22.834
8.8162 22.708
8.8314 23.124
8.8466 22.273
8.8617 22.259
8.8769 22.871
8.8921 22.643
8.9073 22.547
8.9224 22.739
8.9376 22.424
8.9528 22.648
8.9680 23.170
8.9831 22.742
8.9983 22.517
9.0135 22.894
9.0287 23.432
9.0438 22.793
9.0590 22.697
9.0742 23.006
9.0894 23.080
9.1045 23.129
9.1197 23.235
9.1349 22.740
9.1501 23.025
9.1652 23.260
9.1804 23.236
9.1956 23.261
9.2108 23.141
9.2259 22.999
9.2411 23.222
9.2563 22.738
9.2715 22.730
9.2866 22.901
9.3018 23.397
9.3170 23.405
9.3322 23.375
9.3473 23.157
9.3625 23.129
9.3777 23.262
9.3929 23.245
9.4080 23.073
9.4232 23.282
9.4384 22.977
9.4536 23.113
9.4687 23.357
9.4839 23.221
9.4991 23.308
9.5143 23.279
9.5294 23.234
9.5446 23.544
9.5598 23.334
9.5750 23.099
9.5901 23.383
9.6053 23.506
9.6205 23.585
9.6357 23.477
9.6508 23.305
9.6660 23.300
9.6812 23.258
9.6964 23.880
9.7115 24.191
9.7267 24.388
9.7419 24.416
9.7571 24.253
9.7722 24.076
9.7874 23.845
9.8026 23.885
9.8178 23.812
9.8329 23.723
9.8481 23.680
9.8633 23.786
9.8785 23.644
9.8936 23.222
9.9088 22.828
9.9240 23.070
9.9392 23.457
9.9543 23.442
9.9695 23.526
9.9847 23.552
9.9999 23.349
10.0150 23.167
10.0302 23.208
10.0454 23.340
10.0606 23.152
10.0757 23.068
10.0909 23.136
10.1061 22.942
10.1213 23.274
10.1364 23.374
10.1516 23.655
10.1668 23.453
10.1820 23.279
10.1971 23.420
10.2123 23.223
10.2275 23.400
10.2427 23.517
10.2578 23.564
10.2730 23.461
10.2882 23.187
10.3034 23.477
10.3185 23.659
10.3337 23.188
10.3489 22.862
10.3641 22.908
10.3792 22.779
10.3944 22.806
10.4096 22.832
10.4248 23.041
10.4399 23.291
10.4551 22.767
10.4703 22.576
10.4855 22.705
10.5006 22.788
10.5158 23.082
10.5310 22.896
10.5462 22.529
10.5613 22.590
10.5765 22.719
10.5917 23.001
10.6069 22.750
10.6220 22.425
10.6372 22.553
10.6524 22.333
10.6676 22.192
10.6827 22.376
10.6979 22.863
10.7131 22.743
10.7283 22.536
10.7434 22.760
10.7586 22.582
10.7738 22.661
10.7890 22.518
10.8041 22.118
10.8193 22.441
10.8345 22.596
10.8497 22.220
10.8648 22.110
10.8800 22.221
10.8952 22.211
10.9104 22.237
10.9255 22.131
10.9407 22.351
10.9559 22.107
10.9711 22.129
10.9862 22.322
11.0014 21.769
11.0166 21.947
11.0318 22.097
11.0469 21.870
11.0621 21.946
11.0773 21.905
11.0925 22.044
11.1076 21.817
11.1228 21.919
11.1380 22.349
11.1532 22.448
11.1683 21.875
11.1835 22.051
11.1987 22.173
11.2139 22.041
11.2290 21.749
11.2442 21.954
11.2594 21.771
11.2746 21.696
11.2897 21.724
11.3049 21.750
11.3201 21.942
11.3353 21.899
11.3504 21.723
11.3656 21.533
11.3808 21.360
11.3960 21.227
11.4111 21.336
11.4263 21.274
11.4415 21.680
11.4567 21.559
11.4718 21.764
11.4870 21.451
11.5022 21.210
11.5174 21.153
11.5325 21.078
11.5477 21.176
11.5629 21.222
11.5781 21.026
11.5932 20.778
11.6084 21.152
11.6236 21.242
11.6388 20.782
11.6539 20.646
11.6691 20.645
11.6843 20.923
11.6995 20.899
11.7146 20.921
11.7298 20.556
11.7450 20.498
11.7602 20.437
11.7753 20.230
11.7905 20.138
11.8057 20.303
11.8209 20.210
11.8360 19.911
11.8512 20.129
11.8664 19.940
11.8816 19.966
11.8967 19.913
11.9119 19.691
11.9271 19.642
11.9423 19.654
11.9574 19.412
11.9726 19.298
11.9878 19.189
12.0030 19.383
12.0181 19.345
12.0333 19.092
12.0485 18.804
12.0637 18.716
12.0788 18.815
12.0940 18.856
12.1092 18.524
12.1244 18.522
12.1395 18.760
12.1547 18.832
12.1699 18.463
12.1851 18.365
12.2002 18.053
12.2154 17.998
12.2306 17.860
12.2458 18.152
12.2609 18.068
12.2761 17.745
12.2913 17.503
12.3065 18.136
12.3216 18.123
12.3368 17.623
12.3520 17.159
12.3672 17.357
12.3823 17.496
12.3975 17.287
12.4127 17.005
12.4279 17.034
12.4430 17.275
12.4582 17.129
12.4734 17.050
12.4886 16.946
12.5037 16.792
12.5189 16.882
12.5341 17.022
12.5493 16.865
12.5644 16.728
12.5796 16.686
12.5948 16.482
12.6100 16.389
12.6251 16.284
12.6403 16.123
12.6555 16.205
12.6707 16.178
12.6858 15.732
12.7010 15.848
12.7162 15.819
12.7314 15.542
12.7465 15.604
12.7617 15.624
12.7769 15.557
12.7921 15.494
12.8072 15.189
12.8224 15.154
12.8376 15.129
12.8528 15.044
12.8679 15.005
12.8831 14.971
12.8983 15.053
12.9135 15.014
12.9286 14.868
12.9438 14.716
12.9590 14.457
12.9742 14.571
12.9893 14.545
13.0045 14.520
13.0197 14.450
13.0349 14.332
13.0500 14.311
13.0652 14.307
13.0804 14.227
13.0956 14.039
13.1107 13.873
13.1259 13.696
13.1411 13.694
13.1563 13.722
13.1714 13.847
13.1866 13.806
13.2018 13.607
13.2170 13.652
13.2321 13.600
13.2473 13.496
13.2625 13.600
13.2777 13.571
13.2928 13.321
13.3080 13.256
13.3232 13.422
13.3384 13.415
13.3535 13.275
13.3687 13.269
13.3839 13.182
13.3991 12.994
13.4142 12.997
13.4294 12.969
13.4446 12.865
13.4598 12.826
13.4749 12.878
13.4901 12.859
13.5053 12.779
13.5205 12.655
13.5356 12.716
13.5508 12.635
13.5660 12.410
13.5812 12.290
13.5963 12.554
13.6115 12.467
13.6267 12.269
13.6419 12.363
13.6570 12.342
13.6722 12.292
13.6874 12.224
13.7026 12.094
13.7177 12.164
13.7329 12.193
13.7481 12.054
13.7633 12.189
13.7784 12.234
13.7936 12.231
13.8088 12.423
13.8239 12.341
13.8391 12.470
13.8543 12.493
13.8695 12.354
13.8846 12.195
13.8998 12.309
13.9150 12.211
13.9302 12.211
13.9453 12.302
13.9605 12.251
13.9757 12.076
13.9909 12.055
14.0060 11.659
14.0212 11.463
14.0364 11.757
14.0516 11.684
14.0667 11.637
14.0819 11.602
14.0971 11.629
14.1123 11.435
14.1274 11.359
14.1426 11.387
14.1578 11.371
14.1730 11.511
14.1881 11.652
14.2033 11.599
14.2185 11.758
14.2337 11.630
14.2488 11.422
14.2640 11.942
14.2792 11.852
14.2944 12.003
14.3095 12.062
14.3247 12.232
14.3399 12.499
14.3551 12.214
14.3702 12.075
14.3854 12.665
14.4006 12.468
14.4158 12.492
14.4309 12.424
14.4461 12.361
14.4613 12.158
14.4765 12.064
14.4916 11.864
14.5068 11.803
14.5220 11.806
14.5372 11.462
14.5523 11.329
14.5675 11.150
14.5827 11.093
14.5979 11.242
14.6130 11.354
14.6282 11.001
14.6434 11.221
14.6586 11.049
14.6737 11.432
14.6889 11.098
14.7041 10.832
14.7193 11.033
14.7344 10.885
14.7496 10.920
14.7648 10.761
14.7800 10.912
14.7951 10.901
14.8103 10.721
14.8255 10.876
14.8407 10.625
14.8558 10.829
14.8710 10.570
14.8862 10.495
14.9014 10.836
14.9165 10.912
14.9317 11.103
14.9469 10.869
14.9621 10.679
14.9772 10.261
14.9924 10.551
15.0076 10.437
15.0228 10.331
15.0379 10.816
15.0531 10.873
15.0683 10.562
15.0835 10.774
15.0986 10.625
15.1138 10.493
15.1290 10.357
15.1442 10.711
15.1593 10.623
15.1745 10.425
15.1897 10.486
15.2049 10.372
15.2200 10.479
15.2352 10.322
15.2504 10.137
15.2656 10.302
15.2807 10.358
15.2959 10.261
15.3111 10.551
15.3263 10.492
15.3414 10.164
15.3566 10.391
15.3718 10.273
15.3870 10.404
15.4021 10.285
15.4173 10.705
15.4325 10.260
15.4477 10.245
15.4628 10.644
15.4780 10.736
15.4932 10.290
15.5084 10.414
15.5235 10.402
15.5387 10.371
15.5539 10.439
15.5691 10.409
15.5842 10.476
15.5994 10.291
15.6146 10.035
15.6298 9.831
15.6449 10.242
15.6601 10.111
15.6753 9.975
15.6905 9.796
15.7056 9.770
15.7208 9.924
15.7360 10.078
15.7512 9.785
15.7663 10.002
15.7815 9.924
15.7967 9.924
15.8119 10.070
15.8270 9.745
15.8422 9.988
15.8574 10.017
15.8726 9.859
15.8877 9.861
15.9029 9.770
15.9181 10.108
15.9333 10.008
15.9484 10.035
15.9636 9.869
15.9788 9.702
15.9940 9.804
16.0091 9.959
16.0243 9.843
16.0395 10.095
16.0547 9.726
16.0698 9.973
16.0850 9.857
16.1002 9.658
16.1154 9.835
16.1305 10.026
16.1457 10.122
16.1609 9.921
16.1761 9.939
16.1912 9.807
16.2064 9.897
16.2216 9.606
16.2368 9.529
16.2519 9.997
16.2671 9.996
16.2823 10.062
16.2975 10.036
16.3126 9.912
16.3278 10.141
16.3430 9.830
16.3582 9.910
16.3733 10.144
16.3885 10.161
16.4037 10.117
16.4189 10.005
16.4340 10.001
16.4492 10.008
16.4644 10.081
16.4796 9.866
16.4947 9.805
16.5099 10.089
16.5251 10.237
16.5403 10.010
16.5554 9.813
16.5706 9.938
16.5858 9.915
16.6010 9.863
16.6161 9.944
16.6313 9.924
16.6465 9.967
16.6617 9.816
16.6768 9.831
16.6920 9.962
16.7072 10.143
16.7224 10.109
16.7375 10.052
16.7527 10.059
16.7679 9.963
16.7831 9.961
16.7982 9.817
16.8134 9.765
16.8286 9.936
16.8438 10.171
16.8589 10.143
16.8741 10.000
16.8893 9.895
16.9045 9.769
16.9196 9.761
16.9348 9.804
16.9500 9.994
16.9652 9.946
16.9803 9.854
16.9955 9.905
17.0107 10.015
17.0259 9.967
17.0410 9.885
17.0562 9.889
17.0714 10.214
17.0866 10.383
17.1017 10.522
17.1169 10.841
17.1321 11.189
17.1473 11.644
17.1624 11.954
17.1776 12.329
17.1928 13.080
17.2080 14.116
17.2231 15.212
17.2383 16.375
17.2535 17.463
17.2687 18.603
17.2838 18.847
17.2990 18.070
17.3142 17.259
17.3294 16.620
17.3445 16.194
17.3597 16.090
17.3749 15.923
17.3901 15.241
17.4052 14.389
17.4204 13.384
17.4356 12.392
17.4508 12.063
17.4659 11.658
17.4811 11.185
17.4963 11.407
17.5115 11.416
17.5266 11.236
17.5418 11.133
17.5570 11.119
17.5722 11.019
17.5873 10.797
17.6025 10.879
17.6177 11.110
17.6329 11.017
17.6480 10.724
17.6632 10.654
17.6784 10.463
17.6936 10.337
17.7087 10.255
17.7239 10.421
17.7391 10.597
17.7543 10.344
17.7694 10.092
17.7846 9.999
17.7998 10.172
17.8150 10.234
17.8301 10.275
17.8453 10.293
17.8605 10.330
17.8757 10.500
17.8908 10.658
17.9060 10.679
17.9212 10.506
17.9364 10.364
17.9515 10.284
17.9667 10.169
17.9819 10.288
17.9971 10.337
18.0122 10.190
18.0274 10.243
18.0426 10.384
18.0578 10.194
18.0729 10.243
18.0881 10.234
18.1033 9.854
18.1185 9.900
18.1336 9.984
18.1488 10.085
18.1640 10.193
18.1792 10.124
18.1943 9.982
18.2095 9.768
18.2247 9.726
18.2399 10.174
18.2550 10.147
18.2702 9.874
18.2854 9.763
18.3006 9.810
18.3157 10.018
18.3309 9.908
18.3461 9.751
18.3613 9.813
18.3764 9.845
18.3916 9.894
18.4068 9.821
18.4220 9.745
18.4371 9.839
18.4523 9.671
18.4675 9.792
18.4827 9.835
18.4978 9.705
18.5130 9.620
18.5282 9.732
18.5434 9.914
18.5585 9.770
18.5737 9.697
18.5889 9.622
18.6041 9.741
18.6192 9.847
18.6344 9.846
18.6496 9.956
18.6648 9.955
18.6799 9.974
18.6951 9.908
18.7103 9.620
18.7255 9.693
18.7406 9.950
18.7558 9.739
18.7710 9.744
18.7862 10.013
18.8013 9.949
18.8165 9.660
18.8317 9.640
18.8469 9.832
18.8620 9.836
18.8772 10.112
18.8924 10.294
18.9076 10.137
18.9227 9.939
18.9379 10.042
18.9531 10.192
18.9683 10.150
18.9834 10.011
18.9986 9.918
19.0138 10.200
19.0290 10.137
19.0441 10.078
19.0593 10.254
19.0745 10.299
19.0897 10.054
19.1048 10.378
19.1200 10.482
19.1352 10.453
19.1504 10.490
19.1655 10.587
19.1807 10.828
19.1959 10.803
19.2111 10.690
19.2262 10.605
19.2414 10.997
19.2566 11.213
19.2718 11.031
19.2869 11.133
19.3021 11.193
19.3173 10.887
19.3325 10.872
19.3476 11.038
19.3628 11.050
19.3780 11.227
19.3932 11.250
19.4083 11.013
19.4235 11.106
19.4387 10.984
19.4539 11.128
19.4690 11.312
19.4842 11.137
19.4994 11.333
19.5146 11.663
19.5297 11.535
19.5449 11.538
19.5601 11.452
19.5753 11.228
19.5904 11.467
19.6056 11.650
19.6208 11.599
19.6360 11.558
19.6511 11.713
19.6663 11.510
19.6815 11.471
19.6967 11.676
19.7118 11.735
19.7270 11.681
19.7422 11.560
19.7574 11.661
19.7725 11.589
19.7877 11.699
19.8029 11.956
19.8180 11.968
19.8332 12.213
19.8484 12.292
19.8636 12.182
19.8787 12.401
19.8939 12.768
19.9091 13.254
19.9243 13.516
19.9394 13.693
19.9546 13.903
19.9698 14.196
19.9850 14.425
20.0001 14.097
20.0153 14.026
20.0305 13.739
20.0457 13.702
20.0608 13.820
20.0760 13.581
20.0912 13.601
20.1064 13.474
20.1215 13.481
20.1367 13.305
20.1519 13.158
20.1671 13.197
20.1822 12.968
20.1974 12.870
20.2126 12.789
20.2278 13.009
20.2429 12.908
20.2581 12.780
20.2733 12.145
20.2885 11.816
20.3036 11.685
20.3188 11.747
20.3340 11.837
20.3492 11.607
20.3643 11.580
20.3795 11.376
20.3947 11.082
20.4099 10.986
20.4250 11.007
20.4402 10.891
20.4554 10.800
20.4706 10.824
20.4857 10.694
20.5009 10.745
20.5161 10.685
20.5313 10.903
20.5464 10.757
20.5616 10.731
20.5768 10.548
20.5920 10.551
20.6071 10.551
20.6223 10.673
20.6375 10.778
20.6527 10.767
20.6678 10.586
20.6830 10.633
20.6982 10.581
20.7134 10.567
20.7285 10.336
20.7437 10.433
20.7589 10.690
20.7741 10.518
20.7892 10.324
20.8044 9.903
20.8196 10.226
20.8348 10.500
20.8499 10.304
20.8651 10.083
20.8803 10.216
20.8955 9.970
20.9106 10.505
20.9258 10.303
20.9410 10.037
20.9562 10.166
20.9713 9.957
20.9865 9.994
21.0017 9.688
21.0169 9.908
21.0320 10.223
21.0472 9.749
21.0624 9.918
21.0776 9.586
21.0927 10.157
21.1079 9.741
21.1231 9.780
21.1383 9.854
21.1534 9.473
21.1686 9.798
21.1838 9.768
21.1990 9.762
21.2141 9.417
21.2293 9.635
21.2445 9.712
21.2597 9.688
21.2748 9.430
21.2900 9.636
21.3052 9.459
21.3204 9.753
21.3355 9.632
21.3507 9.769
21.3659 9.649
21.3811 9.551
21.3962 9.403
21.4114 9.360
21.4266 9.626
21.4418 9.330
21.4569 9.716
21.4721 9.224
21.4873 9.230
21.5025 9.463
21.5176 9.398
21.5328 9.407
21.5480 9.158
21.5632 9.326
21.5783 9.554
21.5935 9.158
21.6087 9.230
21.6239 9.150
21.6390 9.517
21.6542 9.263
21.6694 9.242
21.6846 9.189
21.6997 9.327
21.7149 9.262
21.7301 9.237
21.7453 9.229
21.7604 9.166
21.7756 9.072
21.7908 8.967
21.8060 9.035
21.8211 9.139
21.8363 9.075
21.8515 9.090
21.8667 9.188
21.8818 8.971
21.8970 8.848
21.9122 8.952
21.9274 9.023
21.9425 8.897
21.9577 8.680
21.9729 8.576
21.9881 8.709
22.0032 8.819
22.0184 8.926
22.0336 8.888
22.0488 8.752
22.0639 8.500
22.0791 8.721
22.0943 8.829
22.1095 8.803
22.1246 8.740
22.1398 8.743
22.1550 8.861
22.1702 8.835
22.1853 8.580
22.2005 8.668
22.2157 8.599
22.2309 8.551
22.2460 8.637
22.2612 8.488
22.2764 8.474
22.2916 8.567
22.3067 8.465
22.3219 8.760
22.3371 8.824
22.3523 8.561
22.3674 8.287
22.3826 8.707
22.3978 8.369
22.4130 8.343
22.4281 8.489
22.4433 8.552
22.4585 8.624
22.4737 8.577
22.4888 8.423
22.5040 8.568
22.5192 8.243
22.5344 8.345
22.5495 8.476
22.5647 8.423
22.5799 8.379
22.5951 7.994
22.6102 8.800
22.6254 8.719
22.6406 8.591
22.6558 8.579
22.6709 8.533
22.6861 8.341
22.7013 8.293
22.7165 7.966
22.7316 6.697
