'Id: "" Comment: "" Operator: "Lab Manager" Anode: "Mo" Scantype: "Still (Eiger2R_500K (1D mode))" TimePerStep: "300" X: "11.8" Y: "9.4" Z: "11.284" 
7.2532 19.002
7.2684 18.501
7.2836 18.616
7.2987 18.715
7.3139 18.794
7.3291 19.015
7.3443 18.712
7.3594 19.088
7.3746 18.763
7.3898 19.248
7.4050 19.284
7.4201 19.144
7.4353 19.344
7.4505 19.177
7.4657 19.346
7.4808 19.572
7.4960 19.661
7.5112 19.579
7.5264 19.434
7.5415 19.402
7.5567 19.504
7.5719 19.678
7.5871 19.371
7.6022 19.620
7.6174 19.927
7.6326 19.903
7.6478 20.178
7.6629 20.421
7.6781 20.309
7.6933 20.230
7.7085 20.583
7.7236 20.359
7.7388 20.380
7.7540 20.386
7.7692 20.334
7.7843 20.395
7.7995 20.260
7.8147 20.388
7.8299 20.353
7.8450 20.333
7.8602 20.548
7.8754 20.499
7.8905 20.580
7.9057 20.681
7.9209 20.566
7.9361 20.566
7.9512 20.817
7.9664 20.729
7.9816 20.620
7.9968 20.919
8.0119 20.732
8.0271 20.855
8.0423 20.953
8.0575 20.857
8.0726 21.073
8.0878 21.158
8.1030 21.312
8.1182 21.263
8.1333 20.735
8.1485 20.811
8.1637 21.067
8.1789 21.207
8.1940 21.403
8.2092 21.525
8.2244 21.355
8.2396 21.279
8.2547 21.830
8.2699 21.346
8.2851 21.120
8.3003 21.595
8.3154 21.472
8.3306 21.775
8.3458 21.799
8.3610 21.547
8.3761 21.994
8.3913 21.845
8.4065 21.563
8.4217 21.640
8.4368 21.885
8.4520 21.927
8.4672 21.638
8.4824 21.595
8.4975 21.282
8.5127 21.689
8.5279 21.620
8.5431 21.651
8.5582 21.697
8.5734 22.038
8.5886 22.013
8.6038 21.699
8.6189 21.913
8.6341 22.401
8.6493 22.091
8.6645 21.949
8.6796 22.150
8.6948 22.386
8.7100 22.453
8.7252 22.322
8.7403 22.092
8.7555 22.003
8.7707 22.228
8.7859 22.350
8.8010 21.904
8.8162 21.983
8.8314 22.261
8.8466 22.168
8.8617 22.440
8.8769 22.676
8.8921 22.854
8.9073 22.482
8.9224 22.405
8.9376 22.994
8.9528 22.426
8.9680 22.381
8.9831 22.908
8.9983 22.812
9.0135 22.577
9.0287 22.344
9.0438 22.313
9.0590 22.596
9.0742 22.404
9.0894 22.637
9.1045 22.773
9.1197 22.658
9.1349 22.710
9.1501 22.588
9.1652 22.515
9.1804 22.835
9.1956 22.772
9.2108 22.558
9.2259 23.017
9.2411 22.977
9.2563 22.381
9.2715 22.236
9.2866 22.384
9.3018 22.347
9.3170 22.794
9.3322 22.753
9.3473 22.708
9.3625 22.871
9.3777 23.117
9.3929 23.343
9.4080 23.132
9.4232 23.144
9.4384 23.034
9.4536 22.970
9.4687 22.789
9.4839 22.386
9.4991 22.703
9.5143 23.197
9.5294 23.383
9.5446 23.114
9.5598 23.238
9.5750 23.191
9.5901 23.118
9.6053 23.154
9.6205 23.305
9.6357 23.132
9.6508 23.276
9.6660 23.715
9.6812 23.968
9.6964 24.083
9.7115 24.066
9.7267 23.554
9.7419 23.411
9.7571 23.631
9.7722 23.595
9.7874 23.661
9.8026 23.611
9.8178 23.773
9.8329 23.577
9.8481 23.123
9.8633 23.303
9.8785 23.545
9.8936 23.165
9.9088 23.063
9.9240 23.250
9.9392 22.906
9.9543 23.095
9.9695 23.385
9.9847 22.964
9.9999 23.062
10.0150 23.203
10.0302 23.060
10.0454 23.163
10.0606 23.082
10.0757 23.089
10.0909 23.171
10.1061 23.215
10.1213 23.301
10.1364 23.186
10.1516 23.295
10.1668 23.440
10.1820 23.059
10.1971 23.007
10.2123 22.882
10.2275 22.924
10.2427 23.069
10.2578 22.845
10.2730 22.821
10.2882 22.719
10.3034 22.592
10.3185 22.648
10.3337 22.840
10.3489 22.809
10.3641 22.850
10.3792 22.531
10.3944 22.798
10.4096 22.860
10.4248 22.630
10.4399 22.618
10.4551 22.369
10.4703 22.600
10.4855 22.530
10.5006 22.787
10.5158 22.736
10.5310 22.509
10.5462 22.854
10.5613 22.543
10.5765 22.575
10.5917 22.570
10.6069 22.378
10.6220 22.567
10.6372 22.530
10.6524 22.664
10.6676 22.462
10.6827 22.310
10.6979 22.329
10.7131 22.454
10.7283 22.768
10.7434 22.761
10.7586 22.311
10.7738 22.291
10.7890 22.416
10.8041 22.279
10.8193 22.438
10.8345 22.448
10.8497 22.166
10.8648 22.369
10.8800 22.574
10.8952 22.255
10.9104 21.884
10.9255 21.864
10.9407 22.045
10.9559 22.105
10.9711 21.868
10.9862 21.912
11.0014 22.035
11.0166 22.010
11.0318 22.062
11.0469 21.815
11.0621 21.927
11.0773 21.790
11.0925 21.800
11.1076 22.231
11.1228 21.733
11.1380 21.490
11.1532 21.484
11.1683 21.516
11.1835 21.556
11.1987 21.918
11.2139 21.753
11.2290 21.324
11.2442 21.266
11.2594 21.140
11.2746 21.102
11.2897 21.078
11.3049 21.251
11.3201 21.603
11.3353 21.283
11.3504 21.137
11.3656 21.408
11.3808 21.263
11.3960 21.391
11.4111 21.294
11.4263 20.999
11.4415 21.062
11.4567 20.521
11.4718 20.405
11.4870 20.855
11.5022 20.940
11.5174 21.082
11.5325 20.828
11.5477 20.985
11.5629 20.962
11.5781 21.031
11.5932 21.169
11.6084 20.646
11.6236 20.573
11.6388 20.717
11.6539 20.539
11.6691 20.581
11.6843 20.611
11.6995 20.490
11.7146 20.486
11.7298 20.707
11.7450 20.178
11.7602 19.962
11.7753 20.050
11.7905 20.154
11.8057 20.276
11.8209 20.178
11.8360 20.245
11.8512 19.959
11.8664 19.799
11.8816 20.117
11.8967 19.818
11.9119 19.514
11.9271 19.628
11.9423 19.597
11.9574 19.209
11.9726 19.316
11.9878 19.270
12.0030 19.124
12.0181 19.135
12.0333 19.000
12.0485 19.369
12.0637 19.004
12.0788 18.836
12.0940 18.726
12.1092 18.680
12.1244 18.343
12.1395 18.347
12.1547 18.539
12.1699 18.812
12.1851 18.575
12.2002 18.044
12.2154 18.018
12.2306 18.189
12.2458 18.041
12.2609 18.035
12.2761 18.035
12.2913 17.882
12.3065 17.400
12.3216 17.500
12.3368 17.587
12.3520 17.469
12.3672 17.202
12.3823 17.070
12.3975 17.111
12.4127 17.341
12.4279 17.270
12.4430 16.791
12.4582 16.819
12.4734 16.965
12.4886 16.748
12.5037 16.604
12.5189 16.434
12.5341 16.397
12.5493 16.129
12.5644 16.224
12.5796 16.284
12.5948 15.907
12.6100 15.870
12.6251 16.111
12.6403 15.981
12.6555 15.766
12.6707 15.933
12.6858 15.852
12.7010 15.667
12.7162 15.679
12.7314 15.640
12.7465 15.262
12.7617 15.057
12.7769 15.306
12.7921 15.501
12.8072 15.173
12.8224 14.897
12.8376 14.949
12.8528 14.813
12.8679 14.816
12.8831 14.762
12.8983 14.645
12.9135 14.605
12.9286 14.582
12.9438 14.630
12.9590 14.421
12.9742 14.470
12.9893 14.460
13.0045 14.474
13.0197 14.460
13.0349 14.144
13.0500 14.125
13.0652 14.305
13.0804 14.060
13.0956 13.826
13.1107 13.865
13.1259 13.825
13.1411 13.823
13.1563 13.697
13.1714 13.501
13.1866 13.457
13.2018 13.518
13.2170 13.484
13.2321 13.293
13.2473 13.227
13.2625 13.350
13.2777 13.336
13.2928 13.165
13.3080 13.265
13.3232 13.316
13.3384 13.317
13.3535 13.209
13.3687 12.895
13.3839 13.068
13.3991 12.956
13.4142 12.692
13.4294 12.591
13.4446 12.682
13.4598 12.779
13.4749 12.560
13.4901 12.568
13.5053 12.598
13.5205 12.354
13.5356 12.416
13.5508 12.607
13.5660 12.352
13.5812 12.371
13.5963 12.273
13.6115 12.021
13.6267 12.244
13.6419 12.249
13.6570 12.325
13.6722 12.221
13.6874 12.164
13.7026 11.985
13.7177 11.981
13.7329 12.110
13.7481 12.056
13.7633 11.984
13.7784 11.979
13.7936 12.199
13.8088 12.154
13.8239 12.173
13.8391 12.212
13.8543 12.194
13.8695 11.994
13.8846 12.197
13.8998 12.522
13.9150 12.222
13.9302 12.104
13.9453 12.015
13.9605 11.771
13.9757 11.679
13.9909 11.525
14.0060 11.595
14.0212 11.372
14.0364 11.453
14.0516 11.664
14.0667 11.762
14.0819 11.720
14.0971 11.566
14.1123 11.586
14.1274 11.749
14.1426 11.798
14.1578 11.803
14.1730 11.596
14.1881 11.540
14.2033 11.962
14.2185 11.941
14.2337 11.848
14.2488 11.774
14.2640 11.859
14.2792 11.828
14.2944 11.957
14.3095 12.122
14.3247 12.241
14.3399 12.312
14.3551 12.299
14.3702 12.694
14.3854 12.604
14.4006 12.995
14.4158 13.095
14.4309 13.083
14.4461 12.553
14.4613 12.691
14.4765 12.237
14.4916 12.157
14.5068 12.065
14.5220 11.538
14.5372 11.350
14.5523 11.431
14.5675 10.895
14.5827 10.953
14.5979 11.001
14.6130 10.970
14.6282 10.892
14.6434 10.714
14.6586 10.720
14.6737 10.840
14.6889 10.753
14.7041 10.508
14.7193 10.857
14.7344 10.743
14.7496 10.628
14.7648 10.601
14.7800 10.524
14.7951 10.815
14.8103 10.384
14.8255 10.432
14.8407 10.584
14.8558 10.255
14.8710 10.681
14.8862 10.440
14.9014 10.264
14.9165 10.984
14.9317 10.673
14.9469 10.439
14.9621 10.562
14.9772 10.215
14.9924 10.051
15.0076 10.320
15.0228 10.482
15.0379 10.038
15.0531 10.374
15.0683 10.290
15.0835 10.245
15.0986 10.244
15.1138 10.211
15.1290 10.122
15.1442 10.571
15.1593 9.946
15.1745 10.378
15.1897 9.967
15.2049 10.181
15.2200 10.047
15.2352 10.147
15.2504 10.052
15.2656 10.047
15.2807 10.369
15.2959 10.260
15.3111 10.051
15.3263 10.337
15.3414 9.923
15.3566 10.062
15.3718 10.345
15.3870 10.171
15.4021 10.149
15.4173 10.147
15.4325 10.189
15.4477 10.215
15.4628 9.992
15.4780 10.086
15.4932 9.885
15.5084 10.189
15.5235 10.125
15.5387 9.910
15.5539 9.809
15.5691 9.973
15.5842 10.209
15.5994 10.030
15.6146 9.856
15.6298 9.518
15.6449 9.720
15.6601 9.585
15.6753 9.845
15.6905 10.174
15.7056 9.804
15.7208 9.884
15.7360 9.714
15.7512 9.679
15.7663 9.889
15.7815 9.762
15.7967 9.791
15.8119 9.746
15.8270 9.667
15.8422 9.732
15.8574 9.600
15.8726 9.650
15.8877 9.361
15.9029 9.249
15.9181 9.441
15.9333 9.377
15.9484 9.705
15.9636 9.564
15.9788 9.578
15.9940 9.722
16.0091 9.872
16.0243 9.656
16.0395 9.572
16.0547 9.604
16.0698 9.514
16.0850 9.842
16.1002 9.480
16.1154 9.707
16.1305 9.664
16.1457 9.617
16.1609 9.605
16.1761 9.727
16.1912 9.453
16.2064 9.489
16.2216 9.401
16.2368 9.479
16.2519 9.549
16.2671 9.716
16.2823 9.487
16.2975 9.398
16.3126 9.673
16.3278 9.604
16.3430 9.629
16.3582 9.580
16.3733 9.819
16.3885 9.681
16.4037 9.663
16.4189 9.882
16.4340 9.796
16.4492 9.692
16.4644 9.655
16.4796 9.709
16.4947 9.628
16.5099 9.557
16.5251 9.738
16.5403 9.878
16.5554 9.897
16.5706 9.514
16.5858 9.314
16.6010 9.373
16.6161 9.612
16.6313 9.619
16.6465 9.623
16.6617 9.647
16.6768 9.605
16.6920 9.631
16.7072 9.859
16.7224 10.003
16.7375 10.054
16.7527 9.966
16.7679 9.953
16.7831 9.780
16.7982 9.675
16.8134 9.809
16.8286 9.741
16.8438 9.836
16.8589 9.844
16.8741 9.712
16.8893 9.888
16.9045 9.844
16.9196 9.535
16.9348 9.473
16.9500 9.640
16.9652 9.803
16.9803 9.839
16.9955 9.749
17.0107 9.850
17.0259 10.057
17.0410 10.030
17.0562 10.143
17.0714 10.163
17.0866 10.206
17.1017 10.350
17.1169 10.531
17.1321 10.714
17.1473 11.149
17.1624 11.885
17.1776 12.633
17.1928 13.454
17.2080 14.213
17.2231 15.163
17.2383 16.388
17.2535 17.430
17.2687 18.116
17.2838 18.361
17.2990 17.884
17.3142 16.918
17.3294 16.345
17.3445 16.087
17.3597 16.111
17.3749 16.031
17.3901 15.325
17.4052 14.307
17.4204 13.483
17.4356 12.891
17.4508 12.205
17.4659 11.684
17.4811 11.547
17.4963 11.595
17.5115 11.428
17.5266 11.236
17.5418 11.109
17.5570 11.073
17.5722 10.773
17.5873 10.721
17.6025 11.248
17.6177 11.324
17.6329 11.261
17.6480 11.344
17.6632 11.521
17.6784 11.590
17.6936 11.444
17.7087 11.417
17.7239 11.382
17.7391 11.287
17.7543 11.121
17.7694 10.759
17.7846 10.722
17.7998 10.892
17.8150 10.688
17.8301 10.463
17.8453 10.504
17.8605 10.306
17.8757 10.269
17.8908 10.418
17.9060 10.400
17.9212 10.386
17.9364 10.263
17.9515 10.084
17.9667 9.982
17.9819 9.996
17.9971 9.930
18.0122 10.081
18.0274 10.008
18.0426 10.027
18.0578 9.946
18.0729 9.894
18.0881 10.195
18.1033 10.263
18.1185 10.074
18.1336 9.984
18.1488 10.011
18.1640 9.959
18.1792 9.914
18.1943 9.872
18.2095 10.107
18.2247 10.167
18.2399 10.098
18.2550 9.902
18.2702 9.818
18.2854 9.903
18.3006 9.865
18.3157 9.771
18.3309 9.981
18.3461 10.043
18.3613 9.940
18.3764 9.838
18.3916 9.705
18.4068 9.887
18.4220 9.808
18.4371 9.923
18.4523 9.851
18.4675 9.743
18.4827 9.741
18.4978 9.854
18.5130 9.833
18.5282 9.904
18.5434 9.850
18.5585 9.568
18.5737 9.784
18.5889 9.830
18.6041 9.824
18.6192 9.699
18.6344 9.752
18.6496 9.862
18.6648 9.711
18.6799 9.718
18.6951 9.877
18.7103 9.726
18.7255 9.762
18.7406 9.944
18.7558 9.966
18.7710 9.937
18.7862 9.602
18.8013 9.471
18.8165 9.651
18.8317 9.835
18.8469 9.942
18.8620 10.167
18.8772 10.123
18.8924 9.818
18.9076 9.959
18.9227 9.927
18.9379 9.872
18.9531 9.883
18.9683 9.855
18.9834 10.079
18.9986 10.189
19.0138 10.112
19.0290 10.297
19.0441 10.123
19.0593 10.183
19.0745 10.283
19.0897 10.238
19.1048 10.273
19.1200 10.361
19.1352 10.566
19.1504 10.576
19.1655 10.755
19.1807 10.851
19.1959 10.842
19.2111 10.675
19.2262 10.542
19.2414 10.822
19.2566 10.863
19.2718 10.766
19.2869 10.783
19.3021 10.581
19.3173 10.621
19.3325 11.124
19.3476 11.236
19.3628 11.132
19.3780 11.063
19.3932 11.001
19.4083 10.767
19.4235 10.883
19.4387 11.278
19.4539 11.114
19.4690 11.135
19.4842 11.349
19.4994 11.333
19.5146 11.327
19.5297 11.560
19.5449 11.719
19.5601 11.685
19.5753 11.613
19.5904 11.502
19.6056 11.646
19.6208 11.538
19.6360 11.456
19.6511 11.487
19.6663 11.527
19.6815 11.485
19.6967 11.642
19.7118 11.708
19.7270 11.534
19.7422 11.700
19.7574 11.729
19.7725 11.707
19.7877 11.787
19.8029 11.856
19.8180 12.076
19.8332 12.255
19.8484 12.361
19.8636 12.474
19.8787 12.623
19.8939 13.051
19.9091 13.218
19.9243 13.491
19.9394 13.963
19.9546 14.314
19.9698 14.594
19.9850 14.833
20.0001 14.692
20.0153 14.495
20.0305 14.030
20.0457 13.682
20.0608 13.776
20.0760 13.414
20.0912 13.340
20.1064 13.372
20.1215 13.562
20.1367 13.435
20.1519 13.182
20.1671 13.164
20.1822 13.212
20.1974 13.359
20.2126 13.005
20.2278 12.861
20.2429 12.583
20.2581 12.405
20.2733 12.165
20.2885 11.951
20.3036 11.930
20.3188 12.041
20.3340 12.057
20.3492 11.909
20.3643 11.895
20.3795 11.872
20.3947 11.948
20.4099 11.896
20.4250 11.759
20.4402 11.657
20.4554 11.559
20.4706 11.569
20.4857 11.752
20.5009 11.807
20.5161 11.503
20.5313 11.620
20.5464 11.521
20.5616 11.281
20.5768 11.052
20.5920 11.266
20.6071 10.984
20.6223 10.864
20.6375 10.766
20.6527 10.671
20.6678 10.717
20.6830 10.728
20.6982 10.866
20.7134 10.585
20.7285 10.551
20.7437 10.312
20.7589 10.372
20.7741 10.396
20.7892 10.039
20.8044 10.275
20.8196 10.183
20.8348 10.471
20.8499 10.214
20.8651 10.194
20.8803 10.348
20.8955 10.127
20.9106 10.577
20.9258 10.443
20.9410 10.200
20.9562 10.260
20.9713 10.071
20.9865 10.017
21.0017 10.466
21.0169 9.951
21.0320 10.068
21.0472 10.065
21.0624 10.047
21.0776 10.013
21.0927 10.248
21.1079 10.105
21.1231 10.126
21.1383 9.774
21.1534 9.736
21.1686 9.731
21.1838 9.812
21.1990 10.001
21.2141 10.052
21.2293 9.949
21.2445 9.632
21.2597 9.704
21.2748 9.579
21.2900 9.158
21.3052 9.522
21.3204 9.776
21.3355 9.631
21.3507 9.532
21.3659 9.691
21.3811 9.531
21.3962 9.712
21.4114 9.576
21.4266 9.765
21.4418 9.463
21.4569 9.524
21.4721 9.365
21.4873 9.265
21.5025 9.336
21.5176 9.227
21.5328 9.300
21.5480 9.158
21.5632 8.909
21.5783 8.944
21.5935 8.991
21.6087 9.073
21.6239 9.105
21.6390 9.082
21.6542 8.891
21.6694 9.035
21.6846 9.294
21.6997 9.325
21.7149 8.915
21.7301 8.847
21.7453 8.897
21.7604 9.154
21.7756 9.145
21.7908 9.111
21.8060 9.098
21.8211 8.931
21.8363 9.155
21.8515 9.044
21.8667 9.027
21.8818 8.771
21.8970 9.058
21.9122 9.117
21.9274 9.049
21.9425 8.824
21.9577 8.692
21.9729 8.817
21.9881 8.814
22.0032 8.996
22.0184 8.965
22.0336 8.805
22.0488 8.887
22.0639 8.851
22.0791 8.850
22.0943 8.820
22.1095 8.629
22.1246 8.892
22.1398 8.919
22.1550 8.781
22.1702 8.713
22.1853 8.674
22.2005 8.594
22.2157 8.595
22.2309 8.520
22.2460 8.609
22.2612 8.585
22.2764 8.785
22.2916 8.622
22.3067 8.337
22.3219 8.324
22.3371 8.346
22.3523 8.156
22.3674 8.331
22.3826 8.312
22.3978 8.301
22.4130 8.455
22.4281 8.424
22.4433 8.548
22.4585 8.339
22.4737 8.662
22.4888 8.544
22.5040 8.369
22.5192 8.467
22.5344 8.473
22.5495 8.455
22.5647 8.513
22.5799 8.451
22.5951 8.505
22.6102 8.638
22.6254 8.251
22.6406 8.325
22.6558 8.347
22.6709 8.334
22.6861 8.247
22.7013 8.515
22.7165 8.085
22.7316 6.460
