'Id: "" Comment: "" Operator: "Lab Manager" Anode: "Mo" Scantype: "Still (Eiger2R_500K (1D mode))" TimePerStep: "300" X: "11.8" Y: "9.4" Z: "11.284" 
7.2532 18.971
7.2684 19.739
7.2836 19.562
7.2987 19.694
7.3139 19.289
7.3291 19.575
7.3443 19.598
7.3594 19.887
7.3746 19.651
7.3898 19.770
7.4050 20.084
7.4201 19.775
7.4353 19.695
7.4505 19.663
7.4657 19.672
7.4808 19.970
7.4960 20.146
7.5112 19.929
7.5264 20.153
7.5415 20.409
7.5567 20.373
7.5719 20.206
7.5871 20.452
7.6022 20.796
7.6174 20.712
7.6326 20.699
7.6478 20.267
7.6629 20.358
7.6781 20.860
7.6933 20.911
7.7085 20.709
7.7236 20.712
7.7388 20.912
7.7540 20.932
7.7692 20.742
7.7843 20.746
7.7995 20.901
7.8147 20.882
7.8299 20.842
7.8450 21.098
7.8602 21.007
7.8754 21.163
7.8905 21.389
7.9057 21.207
7.9209 21.326
7.9361 21.557
7.9512 21.610
7.9664 21.509
7.9816 21.522
7.9968 21.414
8.0119 21.591
8.0271 21.890
8.0423 21.875
8.0575 21.891
8.0726 21.739
8.0878 22.031
8.1030 22.152
8.1182 21.799
8.1333 21.904
8.1485 22.288
8.1637 22.520
8.1789 22.341
8.1940 21.780
8.2092 22.172
8.2244 22.138
8.2396 22.039
8.2547 22.431
8.2699 22.302
8.2851 22.607
8.3003 22.441
8.3154 21.944
8.3306 22.263
8.3458 22.184
8.3610 22.107
8.3761 22.300
8.3913 22.674
8.4065 22.269
8.4217 22.556
8.4368 22.310
8.4520 22.344
8.4672 22.417
8.4824 22.527
8.4975 22.422
8.5127 22.424
8.5279 22.894
8.5431 22.534
8.5582 23.245
8.5734 22.662
8.5886 23.067
8.6038 22.957
8.6189 22.688
8.6341 22.606
8.6493 22.475
8.6645 22.407
8.6796 22.715
8.6948 22.733
8.7100 22.958
8.7252 23.132
8.7403 22.513
8.7555 22.730
8.7707 22.495
8.7859 23.016
8.8010 22.560
8.8162 23.149
8.8314 23.212
8.8466 22.792
8.8617 22.861
8.8769 22.895
8.8921 23.237
8.9073 23.319
8.9224 22.874
8.9376 23.005
8.9528 23.398
8.9680 22.943
8.9831 23.134
8.9983 22.578
9.0135 23.080
9.0287 23.139
9.0438 23.361
9.0590 23.055
9.0742 22.828
9.0894 23.141
9.1045 23.126
9.1197 23.186
9.1349 23.096
9.1501 23.233
9.1652 23.439
9.1804 23.342
9.1956 23.558
9.2108 23.552
9.2259 23.631
9.2411 23.611
9.2563 23.648
9.2715 23.629
9.2866 23.479
9.3018 23.697
9.3170 23.187
9.3322 23.131
9.3473 23.587
9.3625 23.596
9.3777 23.624
9.3929 23.841
9.4080 23.677
9.4232 23.420
9.4384 23.566
9.4536 23.834
9.4687 23.625
9.4839 23.483
9.4991 23.343
9.5143 23.723
9.5294 23.860
9.5446 24.024
9.5598 24.012
9.5750 23.821
9.5901 23.763
9.6053 23.890
9.6205 24.041
9.6357 24.143
9.6508 23.923
9.6660 23.933
9.6812 24.144
9.6964 24.454
9.7115 24.535
9.7267 24.634
9.7419 25.044
9.7571 25.086
9.7722 24.727
9.7874 24.473
9.8026 24.449
9.8178 24.511
9.8329 24.643
9.8481 24.603
9.8633 24.759
9.8785 24.942
9.8936 24.838
9.9088 24.888
9.9240 24.807
9.9392 24.805
9.9543 24.771
9.9695 24.776
9.9847 24.822
9.9999 24.625
10.0150 24.235
10.0302 24.175
10.0454 24.131
10.0606 23.839
10.0757 23.930
10.0909 24.065
10.1061 24.339
10.1213 24.468
10.1364 24.525
10.1516 24.593
10.1668 24.614
10.1820 24.555
10.1971 24.354
10.2123 24.454
10.2275 24.187
10.2427 23.685
10.2578 23.563
10.2730 23.998
10.2882 23.680
10.3034 23.908
10.3185 24.010
10.3337 23.955
10.3489 23.469
10.3641 23.268
10.3792 23.317
10.3944 23.630
10.4096 23.863
10.4248 23.730
10.4399 23.683
10.4551 23.587
10.4703 23.577
10.4855 23.467
10.5006 23.450
10.5158 23.458
10.5310 23.288
10.5462 23.547
10.5613 23.266
10.5765 23.225
10.5917 23.041
10.6069 23.268
10.6220 23.360
10.6372 23.251
10.6524 22.792
10.6676 22.853
10.6827 22.922
10.6979 23.109
10.7131 23.072
10.7283 23.194
10.7434 23.008
10.7586 22.993
10.7738 22.939
10.7890 22.575
10.8041 22.429
10.8193 22.775
10.8345 22.598
10.8497 22.503
10.8648 22.787
10.8800 22.860
10.8952 22.965
10.9104 22.467
10.9255 22.266
10.9407 22.348
10.9559 22.916
10.9711 22.735
10.9862 22.489
11.0014 22.875
11.0166 23.107
11.0318 22.997
11.0469 22.073
11.0621 22.201
11.0773 22.198
11.0925 22.591
11.1076 22.318
11.1228 21.922
11.1380 21.961
11.1532 21.982
11.1683 22.146
11.1835 22.490
11.1987 22.123
11.2139 22.333
11.2290 22.177
11.2442 21.843
11.2594 21.991
11.2746 21.791
11.2897 21.801
11.3049 21.664
11.3201 22.500
11.3353 22.399
11.3504 22.117
11.3656 21.737
11.3808 21.256
11.3960 21.541
11.4111 21.857
11.4263 21.919
11.4415 21.801
11.4567 21.620
11.4718 21.816
11.4870 21.735
11.5022 21.648
11.5174 21.658
11.5325 21.539
11.5477 21.396
11.5629 21.601
11.5781 21.733
11.5932 21.747
11.6084 21.019
11.6236 21.358
11.6388 21.449
11.6539 20.819
11.6691 21.080
11.6843 20.895
11.6995 20.591
11.7146 20.854
11.7298 20.740
11.7450 20.323
11.7602 20.426
11.7753 20.667
11.7905 20.405
11.8057 20.249
11.8209 20.413
11.8360 20.472
11.8512 20.296
11.8664 20.433
11.8816 20.245
11.8967 20.130
11.9119 19.652
11.9271 19.522
11.9423 19.868
11.9574 19.818
11.9726 19.494
11.9878 19.462
12.0030 19.419
12.0181 19.477
12.0333 19.556
12.0485 19.479
12.0637 19.159
12.0788 18.826
12.0940 19.030
12.1092 18.923
12.1244 18.850
12.1395 18.737
12.1547 18.965
12.1699 19.030
12.1851 18.926
12.2002 18.765
12.2154 18.380
12.2306 18.025
12.2458 17.735
12.2609 18.199
12.2761 18.045
12.2913 18.113
12.3065 18.273
12.3216 17.801
12.3368 17.670
12.3520 17.895
12.3672 17.538
12.3823 17.501
12.3975 17.512
12.4127 17.571
12.4279 17.285
12.4430 17.403
12.4582 17.283
12.4734 17.356
12.4886 17.234
12.5037 17.017
12.5189 16.741
12.5341 16.416
12.5493 16.571
12.5644 16.648
12.5796 16.587
12.5948 16.408
12.6100 16.327
12.6251 16.436
12.6403 16.350
12.6555 16.484
12.6707 16.131
12.6858 16.218
12.7010 16.232
12.7162 15.908
12.7314 15.726
12.7465 15.740
12.7617 15.686
12.7769 15.388
12.7921 15.075
12.8072 15.142
12.8224 15.354
12.8376 15.185
12.8528 15.015
12.8679 15.040
12.8831 14.969
12.8983 14.805
12.9135 14.780
12.9286 14.814
12.9438 14.817
12.9590 14.617
12.9742 14.717
12.9893 14.734
13.0045 14.710
13.0197 14.505
13.0349 14.508
13.0500 14.283
13.0652 13.870
13.0804 14.031
13.0956 14.324
13.1107 14.133
13.1259 13.610
13.1411 13.641
13.1563 13.716
13.1714 13.606
13.1866 13.629
13.2018 13.561
13.2170 13.375
13.2321 13.363
13.2473 13.591
13.2625 13.791
13.2777 13.633
13.2928 13.276
13.3080 13.071
13.3232 13.281
13.3384 13.336
13.3535 13.162
13.3687 13.104
13.3839 13.128
13.3991 13.397
13.4142 13.315
13.4294 13.100
13.4446 13.036
13.4598 13.175
13.4749 13.119
13.4901 13.071
13.5053 12.825
13.5205 12.634
13.5356 12.572
13.5508 12.462
13.5660 12.643
13.5812 12.579
13.5963 12.416
13.6115 12.468
13.6267 12.313
13.6419 12.546
13.6570 12.504
13.6722 12.173
13.6874 12.252
13.7026 12.108
13.7177 12.240
13.7329 12.031
13.7481 12.129
13.7633 12.361
13.7784 12.096
13.7936 12.454
13.8088 12.657
13.8239 12.540
13.8391 12.514
13.8543 12.356
13.8695 12.070
13.8846 11.953
13.8998 12.245
13.9150 12.246
13.9302 12.120
13.9453 12.063
13.9605 12.207
13.9757 11.974
13.9909 11.775
14.0060 11.351
14.0212 11.251
14.0364 11.212
14.0516 11.506
14.0667 11.724
14.0819 11.704
14.0971 11.550
14.1123 11.462
14.1274 11.497
14.1426 11.876
14.1578 11.719
14.1730 11.766
14.1881 11.516
14.2033 11.354
14.2185 11.406
14.2337 11.159
14.2488 11.627
14.2640 11.780
14.2792 11.675
14.2944 11.748
14.3095 12.024
14.3247 12.273
14.3399 12.449
14.3551 12.813
14.3702 13.502
14.3854 14.226
14.4006 14.694
14.4158 15.200
14.4309 15.294
14.4461 14.822
14.4613 14.719
14.4765 13.794
14.4916 13.794
14.5068 13.900
14.5220 13.513
14.5372 12.812
14.5523 12.140
14.5675 11.725
14.5827 11.397
14.5979 11.366
14.6130 11.071
14.6282 11.219
14.6434 11.263
14.6586 11.152
14.6737 10.794
14.6889 11.035
14.7041 11.255
14.7193 11.143
14.7344 11.336
14.7496 11.209
14.7648 11.447
14.7800 11.337
14.7951 11.254
14.8103 10.818
14.8255 11.381
14.8407 11.301
14.8558 11.247
14.8710 10.901
14.8862 11.146
14.9014 11.031
14.9165 11.323
14.9317 11.233
14.9469 11.060
14.9621 11.395
14.9772 10.855
14.9924 10.965
15.0076 10.836
15.0228 10.805
15.0379 11.058
15.0531 10.944
15.0683 10.746
15.0835 10.505
15.0986 10.711
15.1138 10.735
15.1290 10.609
15.1442 10.549
15.1593 10.927
15.1745 10.748
15.1897 10.689
15.2049 10.789
15.2200 10.622
15.2352 10.660
15.2504 10.741
15.2656 10.301
15.2807 10.674
15.2959 10.562
15.3111 10.483
15.3263 10.173
15.3414 10.446
15.3566 10.886
15.3718 10.495
15.3870 10.507
15.4021 10.446
15.4173 10.725
15.4325 10.543
15.4477 10.504
15.4628 10.575
15.4780 10.742
15.4932 10.586
15.5084 10.616
15.5235 10.801
15.5387 10.594
15.5539 10.695
15.5691 10.455
15.5842 10.382
15.5994 10.430
15.6146 9.933
15.6298 10.397
15.6449 10.384
15.6601 10.438
15.6753 10.078
15.6905 9.844
15.7056 10.042
15.7208 9.941
15.7360 9.941
15.7512 10.069
15.7663 10.269
15.7815 10.187
15.7967 10.051
15.8119 9.922
15.8270 9.899
15.8422 10.123
15.8574 9.925
15.8726 9.688
15.8877 10.001
15.9029 9.861
15.9181 9.790
15.9333 9.724
15.9484 9.924
15.9636 9.695
15.9788 9.628
15.9940 9.875
16.0091 9.861
16.0243 9.750
16.0395 9.818
16.0547 9.951
16.0698 9.668
16.0850 9.796
16.1002 9.807
16.1154 9.751
16.1305 9.830
16.1457 9.775
16.1609 10.013
16.1761 9.699
16.1912 9.872
16.2064 9.885
16.2216 10.093
16.2368 10.255
16.2519 10.170
16.2671 10.194
16.2823 10.072
16.2975 10.253
16.3126 10.203
16.3278 10.175
16.3430 10.182
16.3582 10.294
16.3733 10.456
16.3885 10.433
16.4037 10.325
16.4189 10.454
16.4340 10.409
16.4492 10.206
16.4644 10.108
16.4796 10.172
16.4947 10.035
16.5099 10.179
16.5251 10.003
16.5403 9.987
16.5554 9.730
16.5706 9.826
16.5858 9.921
16.6010 10.035
16.6161 9.887
16.6313 9.682
16.6465 9.807
16.6617 10.023
16.6768 10.106
16.6920 10.195
16.7072 10.191
16.7224 10.299
16.7375 10.143
16.7527 10.119
16.7679 10.299
16.7831 10.226
16.7982 10.416
16.8134 10.283
16.8286 9.965
16.8438 10.000
16.8589 10.076
16.8741 9.943
16.8893 9.929
16.9045 10.113
16.9196 9.980
16.9348 10.023
16.9500 10.194
16.9652 10.052
16.9803 9.996
16.9955 10.108
17.0107 10.151
17.0259 10.239
17.0410 10.397
17.0562 10.310
17.0714 10.390
17.0866 10.510
17.1017 10.718
17.1169 11.108
17.1321 11.490
17.1473 11.764
17.1624 11.916
17.1776 12.301
17.1928 13.177
17.2080 13.946
17.2231 14.924
17.2383 16.521
17.2535 17.891
17.2687 18.406
17.2838 18.518
17.2990 18.167
17.3142 17.173
17.3294 16.488
17.3445 16.187
17.3597 16.030
17.3749 15.871
17.3901 15.130
17.4052 14.043
17.4204 13.136
17.4356 12.378
17.4508 11.950
17.4659 11.667
17.4811 11.411
17.4963 11.299
17.5115 11.074
17.5266 10.940
17.5418 10.838
17.5570 10.683
17.5722 10.771
17.5873 10.995
17.6025 11.106
17.6177 11.276
17.6329 11.527
17.6480 11.979
17.6632 12.576
17.6784 12.755
17.6936 12.934
17.7087 13.494
17.7239 13.517
17.7391 12.637
17.7543 12.077
17.7694 12.267
17.7846 12.521
17.7998 12.802
17.8150 12.892
17.8301 12.369
17.8453 12.070
17.8605 12.022
17.8757 11.792
17.8908 11.841
17.9060 11.889
17.9212 11.587
17.9364 11.498
17.9515 11.263
17.9667 10.961
17.9819 10.965
17.9971 10.965
18.0122 10.918
18.0274 10.650
18.0426 10.386
18.0578 10.306
18.0729 10.311
18.0881 10.155
18.1033 10.249
18.1185 10.306
18.1336 10.406
18.1488 10.483
18.1640 10.104
18.1792 9.967
18.1943 10.088
18.2095 10.270
18.2247 10.301
18.2399 10.112
18.2550 10.003
18.2702 10.000
18.2854 9.967
18.3006 10.117
18.3157 10.078
18.3309 10.108
18.3461 10.042
18.3613 9.953
18.3764 10.225
18.3916 10.008
18.4068 9.884
18.4220 9.997
18.4371 10.067
18.4523 10.092
18.4675 10.145
18.4827 10.105
18.4978 10.072
18.5130 9.919
18.5282 9.793
18.5434 9.919
18.5585 10.033
18.5737 10.198
18.5889 9.947
18.6041 9.834
18.6192 9.876
18.6344 10.103
18.6496 10.032
18.6648 9.924
18.6799 10.060
18.6951 10.219
18.7103 10.285
18.7255 10.352
18.7406 10.197
18.7558 9.972
18.7710 9.871
18.7862 9.883
18.8013 9.783
18.8165 9.658
18.8317 9.871
18.8469 9.822
18.8620 9.990
18.8772 10.271
18.8924 10.183
18.9076 10.090
18.9227 10.302
18.9379 10.201
18.9531 9.958
18.9683 10.093
18.9834 10.099
18.9986 9.968
19.0138 10.016
19.0290 10.274
19.0441 10.477
19.0593 10.407
19.0745 10.310
19.0897 10.366
19.1048 10.380
19.1200 10.601
19.1352 10.720
19.1504 10.688
19.1655 10.765
19.1807 10.748
19.1959 10.745
19.2111 10.741
19.2262 10.734
19.2414 10.867
19.2566 10.969
19.2718 11.069
19.2869 11.033
19.3021 11.002
19.3173 11.262
19.3325 11.227
19.3476 11.001
19.3628 11.158
19.3780 11.515
19.3932 11.381
19.4083 11.233
19.4235 11.255
19.4387 11.374
19.4539 11.435
19.4690 11.459
19.4842 11.345
19.4994 11.452
19.5146 11.718
19.5297 11.849
19.5449 11.793
19.5601 11.789
19.5753 11.781
19.5904 11.775
19.6056 11.631
19.6208 11.793
19.6360 11.879
19.6511 11.847
19.6663 11.916
19.6815 11.757
19.6967 11.701
19.7118 11.759
19.7270 11.666
19.7422 11.816
19.7574 11.808
19.7725 11.840
19.7877 11.841
19.8029 11.791
19.8180 12.007
19.8332 12.359
19.8484 12.546
19.8636 12.473
19.8787 12.477
19.8939 12.708
19.9091 13.085
19.9243 13.686
19.9394 13.931
19.9546 14.145
19.9698 14.552
19.9850 14.617
20.0001 14.610
20.0153 14.516
20.0305 14.198
20.0457 14.070
20.0608 14.004
20.0760 13.824
20.0912 13.730
20.1064 13.931
20.1215 13.596
20.1367 13.360
20.1519 12.975
20.1671 12.908
20.1822 12.938
20.1974 12.781
20.2126 12.787
20.2278 12.686
20.2429 12.348
20.2581 12.134
20.2733 11.913
20.2885 11.790
20.3036 11.846
20.3188 11.742
20.3340 11.584
20.3492 11.841
20.3643 11.735
20.3795 11.736
20.3947 11.595
20.4099 11.817
20.4250 11.905
20.4402 12.113
20.4554 12.805
20.4706 13.081
20.4857 13.124
20.5009 12.820
20.5161 12.089
20.5313 11.741
20.5464 11.475
20.5616 11.682
20.5768 12.159
20.5920 12.253
20.6071 12.034
20.6223 11.563
20.6375 11.198
20.6527 10.964
20.6678 10.787
20.6830 10.693
20.6982 10.714
20.7134 10.386
20.7285 10.477
20.7437 10.594
20.7589 10.515
20.7741 10.652
20.7892 10.513
20.8044 10.285
20.8196 10.416
20.8348 10.404
20.8499 10.591
20.8651 10.710
20.8803 10.478
20.8955 10.632
20.9106 10.733
20.9258 10.623
20.9410 10.710
20.9562 10.940
20.9713 10.794
20.9865 10.784
21.0017 10.824
21.0169 10.659
21.0320 10.801
21.0472 10.626
21.0624 10.602
21.0776 10.701
21.0927 10.655
21.1079 10.392
21.1231 10.271
21.1383 10.608
21.1534 10.237
21.1686 10.085
21.1838 9.880
21.1990 10.204
21.2141 10.056
21.2293 9.712
21.2445 9.704
21.2597 9.446
21.2748 9.856
21.2900 9.854
21.3052 9.904
21.3204 9.862
21.3355 9.860
21.3507 9.481
21.3659 9.474
21.3811 9.514
21.3962 9.365
21.4114 9.265
21.4266 9.310
21.4418 9.435
21.4569 9.668
21.4721 9.399
21.4873 9.555
21.5025 9.475
21.5176 9.307
21.5328 9.414
21.5480 9.273
21.5632 9.552
21.5783 9.352
21.5935 9.314
21.6087 9.182
21.6239 9.166
21.6390 9.185
21.6542 9.226
21.6694 9.469
21.6846 9.322
21.6997 9.391
21.7149 9.365
21.7301 9.397
21.7453 9.194
21.7604 9.159
21.7756 9.210
21.7908 9.259
21.8060 9.207
21.8211 9.016
21.8363 9.070
21.8515 9.156
21.8667 9.002
21.8818 9.200
21.8970 9.480
21.9122 9.350
21.9274 9.220
21.9425 9.017
21.9577 8.840
21.9729 8.912
21.9881 9.133
22.0032 9.111
22.0184 8.869
22.0336 8.959
22.0488 8.996
22.0639 8.925
22.0791 8.740
22.0943 8.745
22.1095 8.836
22.1246 8.759
22.1398 8.752
22.1550 9.000
22.1702 8.937
22.1853 8.657
22.2005 8.783
22.2157 8.703
22.2309 8.711
22.2460 8.784
22.2612 8.688
22.2764 8.717
22.2916 8.656
22.3067 8.658
22.3219 8.594
22.3371 8.682
22.3523 8.872
22.3674 8.697
22.3826 8.618
22.3978 8.774
22.4130 8.829
22.4281 8.460
22.4433 8.787
22.4585 8.511
22.4737 8.566
22.4888 8.508
22.5040 8.623
22.5192 8.914
22.5344 8.559
22.5495 8.547
22.5647 8.725
22.5799 8.541
22.5951 8.396
22.6102 8.449
22.6254 8.388
22.6406 8.658
22.6558 8.865
22.6709 8.861
22.6861 8.566
22.7013 8.559
22.7165 7.995
22.7316 6.381
