'Id: "" Comment: "" Operator: "Lab Manager" Anode: "Mo" Scantype: "Still (Eiger2R_500K (1D mode))" TimePerStep: "300" X: "11.8" Y: "9.4" Z: "11.284" 
7.2532 18.396
7.2684 18.936
7.2836 19.447
7.2987 18.700
7.3139 18.844
7.3291 19.109
7.3443 19.186
7.3594 19.316
7.3746 19.023
7.3898 19.664
7.4050 19.580
7.4201 19.791
7.4353 19.559
7.4505 19.464
7.4657 19.434
7.4808 19.475
7.4960 19.452
7.5112 19.565
7.5264 19.770
7.5415 19.588
7.5567 19.741
7.5719 19.646
7.5871 19.707
7.6022 20.180
7.6174 19.979
7.6326 20.016
7.6478 19.965
7.6629 19.922
7.6781 20.278
7.6933 20.470
7.7085 20.289
7.7236 20.101
7.7388 20.312
7.7540 20.444
7.7692 20.185
7.7843 20.024
7.7995 20.077
7.8147 20.387
7.8299 20.584
7.8450 20.458
7.8602 20.560
7.8754 20.462
7.8905 20.780
7.9057 20.926
7.9209 20.888
7.9361 20.745
7.9512 20.747
7.9664 20.766
7.9816 20.672
7.9968 20.952
8.0119 21.003
8.0271 20.931
8.0423 21.053
8.0575 20.856
8.0726 20.841
8.0878 21.337
8.1030 20.958
8.1182 20.858
8.1333 21.369
8.1485 21.267
8.1637 21.565
8.1789 21.913
8.1940 21.899
8.2092 21.153
8.2244 21.592
8.2396 21.644
8.2547 21.299
8.2699 21.428
8.2851 21.685
8.3003 21.572
8.3154 21.887
8.3306 21.755
8.3458 21.537
8.3610 21.863
8.3761 21.468
8.3913 21.557
8.4065 21.621
8.4217 21.820
8.4368 22.004
8.4520 21.527
8.4672 22.157
8.4824 22.356
8.4975 22.096
8.5127 22.238
8.5279 22.058
8.5431 22.295
8.5582 22.106
8.5734 22.501
8.5886 22.016
8.6038 22.023
8.6189 22.061
8.6341 22.064
8.6493 22.084
8.6645 21.754
8.6796 21.720
8.6948 22.460
8.7100 21.985
8.7252 22.501
8.7403 22.529
8.7555 22.204
8.7707 22.194
8.7859 22.449
8.8010 22.020
8.8162 22.402
8.8314 22.595
8.8466 22.922
8.8617 22.446
8.8769 22.455
8.8921 22.226
8.9073 22.950
8.9224 22.935
8.9376 22.646
8.9528 22.733
8.9680 22.684
8.9831 22.686
8.9983 22.892
9.0135 23.087
9.0287 23.094
9.0438 22.576
9.0590 22.445
9.0742 22.448
9.0894 22.781
9.1045 23.206
9.1197 22.846
9.1349 22.725
9.1501 22.856
9.1652 22.956
9.1804 23.029
9.1956 22.490
9.2108 22.518
9.2259 22.755
9.2411 23.119
9.2563 23.371
9.2715 23.142
9.2866 23.057
9.3018 22.932
9.3170 22.946
9.3322 22.724
9.3473 22.298
9.3625 22.972
9.3777 23.003
9.3929 22.933
9.4080 23.218
9.4232 23.159
9.4384 22.853
9.4536 22.990
9.4687 23.151
9.4839 23.326
9.4991 23.126
9.5143 22.816
9.5294 22.986
9.5446 23.123
9.5598 23.099
9.5750 23.033
9.5901 23.248
9.6053 23.408
9.6205 23.327
9.6357 23.542
9.6508 23.594
9.6660 23.494
9.6812 23.462
9.6964 23.769
9.7115 24.203
9.7267 24.228
9.7419 24.279
9.7571 24.177
9.7722 23.714
9.7874 23.729
9.8026 23.817
9.8178 23.492
9.8329 23.313
9.8481 23.626
9.8633 23.548
9.8785 23.492
9.8936 23.568
9.9088 23.338
9.9240 23.140
9.9392 23.154
9.9543 23.193
9.9695 23.460
9.9847 23.270
9.9999 23.248
10.0150 23.393
10.0302 23.452
10.0454 23.712
10.0606 23.485
10.0757 23.263
10.0909 23.171
10.1061 23.218
10.1213 23.496
10.1364 23.244
10.1516 23.456
10.1668 23.210
10.1820 22.787
10.1971 23.100
10.2123 23.546
10.2275 22.875
10.2427 22.805
10.2578 23.125
10.2730 22.981
10.2882 22.817
10.3034 22.677
10.3185 22.822
10.3337 22.493
10.3489 22.763
10.3641 23.172
10.3792 22.924
10.3944 22.925
10.4096 23.025
10.4248 23.091
10.4399 22.556
10.4551 22.788
10.4703 22.676
10.4855 22.415
10.5006 22.669
10.5158 22.390
10.5310 22.665
10.5462 22.679
10.5613 22.525
10.5765 22.470
10.5917 22.619
10.6069 22.830
10.6220 22.548
10.6372 22.466
10.6524 22.792
10.6676 22.365
10.6827 21.999
10.6979 22.235
10.7131 22.396
10.7283 22.082
10.7434 22.509
10.7586 22.818
10.7738 22.567
10.7890 22.417
10.8041 22.129
10.8193 22.011
10.8345 22.435
10.8497 22.385
10.8648 22.126
10.8800 22.351
10.8952 22.521
10.9104 22.228
10.9255 22.206
10.9407 21.901
10.9559 21.933
10.9711 22.036
10.9862 21.894
11.0014 21.895
11.0166 21.863
11.0318 21.788
11.0469 21.934
11.0621 21.967
11.0773 22.081
11.0925 21.880
11.1076 22.098
11.1228 21.870
11.1380 21.677
11.1532 21.477
11.1683 21.593
11.1835 21.647
11.1987 22.036
11.2139 22.148
11.2290 21.805
11.2442 21.452
11.2594 21.295
11.2746 21.792
11.2897 21.862
11.3049 21.336
11.3201 21.203
11.3353 21.270
11.3504 21.834
11.3656 21.642
11.3808 21.418
11.3960 21.318
11.4111 21.389
11.4263 21.519
11.4415 21.389
11.4567 20.928
11.4718 21.006
11.4870 21.232
11.5022 21.155
11.5174 21.390
11.5325 21.046
11.5477 21.023
11.5629 20.974
11.5781 20.760
11.5932 20.967
11.6084 21.019
11.6236 20.656
11.6388 20.568
11.6539 20.814
11.6691 20.640
11.6843 20.693
11.6995 20.885
11.7146 20.500
11.7298 20.367
11.7450 20.288
11.7602 20.474
11.7753 20.325
11.7905 20.267
11.8057 20.124
11.8209 20.232
11.8360 20.090
11.8512 19.992
11.8664 19.701
11.8816 19.546
11.8967 19.461
11.9119 19.517
11.9271 19.704
11.9423 19.437
11.9574 19.231
11.9726 19.129
11.9878 19.240
12.0030 19.105
12.0181 19.141
12.0333 19.362
12.0485 19.116
12.0637 18.748
12.0788 18.579
12.0940 18.194
12.1092 18.554
12.1244 18.788
12.1395 18.647
12.1547 18.418
12.1699 18.538
12.1851 18.642
12.2002 18.495
12.2154 18.468
12.2306 18.305
12.2458 18.221
12.2609 17.808
12.2761 17.594
12.2913 17.821
12.3065 17.709
12.3216 17.860
12.3368 17.415
12.3520 17.220
12.3672 17.399
12.3823 17.501
12.3975 17.459
12.4127 17.250
12.4279 17.066
12.4430 16.880
12.4582 16.931
12.4734 16.676
12.4886 16.566
12.5037 16.621
12.5189 16.372
12.5341 16.301
12.5493 16.577
12.5644 16.703
12.5796 16.380
12.5948 16.103
12.6100 16.333
12.6251 16.222
12.6403 15.891
12.6555 15.928
12.6707 15.835
12.6858 15.843
12.7010 15.542
12.7162 15.358
12.7314 15.433
12.7465 15.363
12.7617 15.376
12.7769 15.400
12.7921 15.215
12.8072 15.213
12.8224 15.145
12.8376 14.838
12.8528 14.959
12.8679 15.011
12.8831 14.774
12.8983 14.721
12.9135 14.530
12.9286 14.559
12.9438 14.686
12.9590 14.547
12.9742 14.286
12.9893 14.259
13.0045 14.439
13.0197 14.381
13.0349 14.051
13.0500 14.149
13.0652 14.193
13.0804 14.032
13.0956 13.975
13.1107 13.886
13.1259 13.672
13.1411 13.452
13.1563 13.696
13.1714 13.695
13.1866 13.473
13.2018 13.502
13.2170 13.456
13.2321 13.482
13.2473 13.644
13.2625 13.611
13.2777 13.281
13.2928 13.162
13.3080 13.138
13.3232 13.109
13.3384 13.179
13.3535 13.225
13.3687 13.326
13.3839 12.902
13.3991 12.694
13.4142 12.935
13.4294 12.974
13.4446 12.808
13.4598 12.817
13.4749 12.910
13.4901 12.770
13.5053 12.669
13.5205 12.556
13.5356 12.462
13.5508 12.555
13.5660 12.785
13.5812 12.733
13.5963 12.600
13.6115 12.456
13.6267 12.305
13.6419 12.301
13.6570 12.216
13.6722 12.268
13.6874 12.131
13.7026 11.928
13.7177 11.738
13.7329 11.973
13.7481 12.144
13.7633 11.999
13.7784 12.115
13.7936 12.365
13.8088 12.566
13.8239 12.624
13.8391 12.540
13.8543 12.387
13.8695 12.260
13.8846 12.130
13.8998 12.267
13.9150 12.075
13.9302 12.232
13.9453 11.990
13.9605 12.123
13.9757 11.765
13.9909 11.797
14.0060 11.854
14.0212 11.633
14.0364 11.551
14.0516 11.453
14.0667 11.570
14.0819 11.429
14.0971 11.657
14.1123 11.574
14.1274 11.713
14.1426 11.737
14.1578 11.766
14.1730 11.427
14.1881 11.623
14.2033 11.933
14.2185 11.793
14.2337 11.560
14.2488 11.656
14.2640 11.580
14.2792 11.866
14.2944 11.858
14.3095 12.042
14.3247 12.225
14.3399 12.344
14.3551 12.644
14.3702 12.730
14.3854 12.810
14.4006 12.925
14.4158 13.373
14.4309 13.212
14.4461 12.862
14.4613 12.592
14.4765 12.434
14.4916 12.181
14.5068 11.762
14.5220 11.640
14.5372 12.076
14.5523 11.496
14.5675 11.462
14.5827 11.148
14.5979 10.926
14.6130 10.909
14.6282 10.639
14.6434 10.905
14.6586 10.991
14.6737 10.830
14.6889 10.807
14.7041 10.631
14.7193 10.861
14.7344 10.846
14.7496 10.530
14.7648 10.878
14.7800 11.015
14.7951 10.876
14.8103 10.475
14.8255 10.784
14.8407 10.675
14.8558 10.781
14.8710 10.217
14.8862 10.488
14.9014 10.326
14.9165 10.624
14.9317 10.520
14.9469 10.535
14.9621 10.632
14.9772 10.361
14.9924 10.254
15.0076 10.329
15.0228 10.631
15.0379 10.587
15.0531 10.297
15.0683 10.362
15.0835 10.453
15.0986 10.121
15.1138 10.267
15.1290 10.193
15.1442 9.801
15.1593 10.307
15.1745 10.247
15.1897 10.138
15.2049 9.997
15.2200 10.154
15.2352 10.188
15.2504 10.164
15.2656 10.004
15.2807 10.446
15.2959 10.370
15.3111 10.672
15.3263 10.123
15.3414 10.321
15.3566 9.965
15.3718 9.897
15.3870 10.051
15.4021 9.706
15.4173 10.228
15.4325 10.629
15.4477 10.256
15.4628 10.452
15.4780 10.034
15.4932 10.049
15.5084 10.135
15.5235 10.040
15.5387 10.307
15.5539 9.900
15.5691 10.012
15.5842 10.073
15.5994 9.511
15.6146 9.934
15.6298 10.158
15.6449 9.888
15.6601 9.844
15.6753 9.769
15.6905 9.837
15.7056 9.939
15.7208 10.239
15.7360 10.016
15.7512 9.796
15.7663 9.569
15.7815 9.808
15.7967 9.784
15.8119 9.753
15.8270 9.820
15.8422 9.646
15.8574 9.707
15.8726 9.762
15.8877 9.495
15.9029 9.472
15.9181 9.510
15.9333 9.935
15.9484 9.982
15.9636 9.884
15.9788 9.571
15.9940 9.506
16.0091 9.722
16.0243 9.697
16.0395 9.811
16.0547 9.671
16.0698 9.752
16.0850 9.700
16.1002 9.586
16.1154 9.657
16.1305 9.544
16.1457 9.720
16.1609 9.710
16.1761 9.663
16.1912 9.764
16.2064 9.735
16.2216 9.755
16.2368 9.689
16.2519 9.629
16.2671 9.807
16.2823 10.065
16.2975 10.058
16.3126 9.824
16.3278 9.816
16.3430 9.714
16.3582 9.877
16.3733 10.103
16.3885 10.131
16.4037 10.192
16.4189 9.908
16.4340 9.667
16.4492 9.733
16.4644 9.728
16.4796 9.848
16.4947 9.853
16.5099 9.554
16.5251 9.666
16.5403 9.870
16.5554 9.874
16.5706 9.760
16.5858 9.685
16.6010 9.763
16.6161 9.945
16.6313 9.810
16.6465 9.552
16.6617 9.473
16.6768 9.754
16.6920 9.863
16.7072 9.829
16.7224 10.055
16.7375 10.130
16.7527 10.031
16.7679 10.003
16.7831 9.872
16.7982 9.803
16.8134 9.892
16.8286 9.985
16.8438 9.738
16.8589 9.551
16.8741 9.477
16.8893 9.646
16.9045 9.749
16.9196 9.613
16.9348 9.794
16.9500 9.729
16.9652 9.721
16.9803 9.816
16.9955 9.885
17.0107 9.956
17.0259 10.183
17.0410 10.254
17.0562 10.112
17.0714 9.980
17.0866 10.146
17.1017 10.455
17.1169 10.586
17.1321 10.871
17.1473 11.271
17.1624 11.673
17.1776 12.282
17.1928 13.152
17.2080 13.908
17.2231 14.737
17.2383 16.297
17.2535 17.818
17.2687 18.702
17.2838 18.783
17.2990 18.034
17.3142 16.950
17.3294 16.111
17.3445 15.891
17.3597 16.183
17.3749 16.070
17.3901 15.289
17.4052 14.391
17.4204 13.346
17.4356 12.488
17.4508 12.027
17.4659 11.662
17.4811 11.567
17.4963 11.570
17.5115 11.227
17.5266 11.008
17.5418 11.135
17.5570 11.157
17.5722 11.186
17.5873 11.258
17.6025 11.033
17.6177 10.916
17.6329 11.091
17.6480 11.284
17.6632 11.448
17.6784 11.615
17.6936 11.651
17.7087 11.466
17.7239 11.315
17.7391 11.275
17.7543 11.060
17.7694 10.818
17.7846 10.863
17.7998 10.852
17.8150 10.608
17.8301 10.586
17.8453 10.410
17.8605 10.293
17.8757 10.302
17.8908 10.198
17.9060 10.031
17.9212 10.080
17.9364 10.293
17.9515 10.302
17.9667 10.082
17.9819 10.155
17.9971 10.123
18.0122 10.241
18.0274 10.390
18.0426 10.416
18.0578 10.131
18.0729 9.892
18.0881 9.737
18.1033 9.847
18.1185 10.078
18.1336 10.149
18.1488 9.945
18.1640 9.822
18.1792 10.044
18.1943 10.000
18.2095 9.797
18.2247 9.919
18.2399 9.864
18.2550 9.760
18.2702 9.742
18.2854 9.762
18.3006 9.895
18.3157 10.065
18.3309 9.861
18.3461 9.851
18.3613 10.100
18.3764 9.877
18.3916 9.831
18.4068 9.812
18.4220 9.929
18.4371 9.826
18.4523 9.813
18.4675 9.876
18.4827 9.788
18.4978 9.867
18.5130 9.998
18.5282 9.940
18.5434 9.970
18.5585 9.976
18.5737 9.740
18.5889 9.607
18.6041 9.812
18.6192 9.752
18.6344 9.855
18.6496 9.826
18.6648 9.916
18.6799 9.810
18.6951 9.507
18.7103 9.578
18.7255 9.860
18.7406 9.826
18.7558 9.811
18.7710 9.951
18.7862 9.995
18.8013 9.778
18.8165 9.724
18.8317 9.874
18.8469 9.899
18.8620 9.960
18.8772 9.792
18.8924 9.870
18.9076 9.832
18.9227 9.900
18.9379 9.855
18.9531 9.937
18.9683 9.969
18.9834 9.792
18.9986 9.874
19.0138 10.085
19.0290 10.107
19.0441 10.125
19.0593 10.307
19.0745 10.331
19.0897 10.511
19.1048 10.540
19.1200 10.336
19.1352 10.362
19.1504 10.393
19.1655 10.506
19.1807 10.483
19.1959 10.458
19.2111 10.617
19.2262 10.642
19.2414 10.608
19.2566 10.776
19.2718 10.747
19.2869 10.771
19.3021 10.845
19.3173 10.740
19.3325 10.848
19.3476 10.901
19.3628 11.176
19.3780 11.272
19.3932 11.330
19.4083 11.091
19.4235 10.895
19.4387 11.211
19.4539 11.188
19.4690 11.297
19.4842 11.193
19.4994 11.229
19.5146 11.452
19.5297 11.552
19.5449 11.487
19.5601 11.386
19.5753 11.604
19.5904 11.808
19.6056 11.425
19.6208 11.319
19.6360 11.400
19.6511 11.429
19.6663 11.670
19.6815 11.677
19.6967 11.754
19.7118 11.869
19.7270 11.812
19.7422 11.596
19.7574 11.589
19.7725 11.495
19.7877 11.528
19.8029 11.877
19.8180 11.769
19.8332 11.772
19.8484 12.049
19.8636 12.411
19.8787 12.618
19.8939 12.800
19.9091 12.896
19.9243 12.996
19.9394 13.420
19.9546 13.894
19.9698 14.110
19.9850 14.459
20.0001 14.671
20.0153 14.191
20.0305 14.027
20.0457 14.003
20.0608 13.909
20.0760 14.040
20.0912 13.808
20.1064 13.583
20.1215 13.481
20.1367 13.249
20.1519 13.101
20.1671 12.943
20.1822 13.035
20.1974 12.954
20.2126 12.823
20.2278 12.564
20.2429 12.548
20.2581 12.354
20.2733 12.218
20.2885 12.204
20.3036 11.927
20.3188 12.004
20.3340 12.095
20.3492 12.273
20.3643 12.173
20.3795 11.711
20.3947 11.661
20.4099 11.486
20.4250 11.774
20.4402 11.824
20.4554 11.525
20.4706 11.689
20.4857 11.671
20.5009 11.666
20.5161 11.592
20.5313 11.304
20.5464 11.290
20.5616 11.171
20.5768 11.307
20.5920 11.039
20.6071 10.957
20.6223 10.927
20.6375 10.843
20.6527 10.704
20.6678 10.578
20.6830 10.727
20.6982 10.713
20.7134 10.415
20.7285 10.578
20.7437 10.674
20.7589 10.339
20.7741 10.393
20.7892 10.253
20.8044 10.693
20.8196 10.494
20.8348 10.247
20.8499 10.162
20.8651 10.220
20.8803 10.414
20.8955 10.016
20.9106 9.857
20.9258 10.077
20.9410 10.286
20.9562 10.095
20.9713 10.100
20.9865 9.835
21.0017 10.010
21.0169 10.457
21.0320 10.067
21.0472 10.070
21.0624 10.063
21.0776 10.006
21.0927 9.896
21.1079 9.610
21.1231 10.012
21.1383 9.950
21.1534 9.863
21.1686 9.639
21.1838 9.826
21.1990 9.543
21.2141 9.509
21.2293 9.716
21.2445 9.594
21.2597 9.629
21.2748 9.778
21.2900 9.599
21.3052 9.543
21.3204 9.838
21.3355 9.549
21.3507 9.447
21.3659 9.446
21.3811 9.470
21.3962 9.376
21.4114 9.234
21.4266 9.301
21.4418 9.470
21.4569 9.387
21.4721 9.405
21.4873 9.712
21.5025 9.632
21.5176 9.273
21.5328 9.216
21.5480 9.163
21.5632 9.418
21.5783 9.298
21.5935 9.290
21.6087 9.458
21.6239 9.193
21.6390 9.244
21.6542 9.224
21.6694 9.109
21.6846 9.164
21.6997 8.934
21.7149 9.070
21.7301 9.122
21.7453 9.083
21.7604 9.110
21.7756 9.124
21.7908 9.034
21.8060 9.003
21.8211 8.867
21.8363 9.097
21.8515 9.117
21.8667 8.910
21.8818 9.185
21.8970 9.376
21.9122 9.169
21.9274 8.962
21.9425 8.903
21.9577 8.858
21.9729 8.910
21.9881 8.963
22.0032 8.856
22.0184 8.846
22.0336 8.845
22.0488 8.813
22.0639 8.690
22.0791 8.787
22.0943 8.772
22.1095 8.795
22.1246 8.771
22.1398 8.734
22.1550 8.449
22.1702 8.676
22.1853 8.643
22.2005 8.407
22.2157 8.525
22.2309 8.718
22.2460 8.623
22.2612 8.503
22.2764 8.685
22.2916 8.477
22.3067 8.396
22.3219 8.224
22.3371 8.253
22.3523 8.551
22.3674 8.697
22.3826 8.461
22.3978 8.423
22.4130 8.461
22.4281 8.639
22.4433 8.445
22.4585 8.375
22.4737 8.255
22.4888 8.413
22.5040 8.536
22.5192 8.590
22.5344 8.407
22.5495 8.291
22.5647 8.246
22.5799 8.547
22.5951 8.284
22.6102 8.501
22.6254 8.428
22.6406 8.307
22.6558 8.533
22.6709 8.521
22.6861 8.029
22.7013 8.112
22.7165 7.784
22.7316 6.139
