'Id: "" Comment: "" Operator: "Lab Manager" Anode: "Mo" Scantype: "Still (Eiger2R_500K (1D mode))" TimePerStep: "300" X: "11.8" Y: "9.4" Z: "11.284" 
7.2532 18.862
7.2684 18.740
7.2836 18.606
7.2987 18.872
7.3139 18.725
7.3291 18.997
7.3443 19.411
7.3594 18.889
7.3746 19.320
7.3898 19.137
7.4050 19.321
7.4201 19.099
7.4353 19.309
7.4505 19.628
7.4657 19.574
7.4808 19.634
7.4960 19.767
7.5112 19.337
7.5264 19.589
7.5415 19.713
7.5567 19.781
7.5719 19.988
7.5871 20.194
7.6022 20.232
7.6174 19.926
7.6326 19.816
7.6478 19.940
7.6629 20.311
7.6781 20.622
7.6933 20.461
7.7085 20.204
7.7236 20.324
7.7388 20.309
7.7540 20.066
7.7692 20.332
7.7843 20.336
7.7995 20.203
7.8147 20.516
7.8299 20.304
7.8450 20.441
7.8602 20.513
7.8754 20.356
7.8905 20.555
7.9057 20.650
7.9209 20.871
7.9361 20.958
7.9512 20.954
7.9664 21.021
7.9816 21.277
7.9968 21.149
8.0119 20.694
8.0271 20.797
8.0423 21.229
8.0575 21.097
8.0726 20.960
8.0878 21.281
8.1030 21.091
8.1182 21.010
8.1333 21.328
8.1485 21.090
8.1637 21.240
8.1789 21.187
8.1940 21.603
8.2092 21.463
8.2244 21.399
8.2396 21.089
8.2547 21.550
8.2699 21.798
8.2851 21.681
8.3003 21.812
8.3154 21.728
8.3306 21.270
8.3458 21.838
8.3610 22.149
8.3761 21.917
8.3913 21.655
8.4065 21.222
8.4217 21.408
8.4368 21.902
8.4520 22.077
8.4672 22.201
8.4824 22.220
8.4975 22.070
8.5127 22.259
8.5279 22.253
8.5431 22.155
8.5582 22.195
8.5734 21.721
8.5886 22.239
8.6038 21.903
8.6189 21.696
8.6341 21.744
8.6493 21.799
8.6645 21.909
8.6796 22.750
8.6948 22.103
8.7100 22.495
8.7252 22.281
8.7403 22.466
8.7555 22.174
8.7707 22.449
8.7859 22.658
8.8010 22.492
8.8162 22.546
8.8314 22.643
8.8466 22.845
8.8617 22.731
8.8769 22.666
8.8921 22.326
8.9073 22.270
8.9224 22.302
8.9376 22.692
8.9528 22.413
8.9680 22.896
8.9831 22.567
8.9983 22.426
9.0135 22.604
9.0287 23.114
9.0438 23.337
9.0590 22.760
9.0742 22.649
9.0894 22.626
9.1045 22.649
9.1197 22.896
9.1349 22.803
9.1501 22.608
9.1652 22.826
9.1804 22.858
9.1956 22.837
9.2108 22.533
9.2259 23.202
9.2411 23.028
9.2563 22.707
9.2715 23.054
9.2866 23.017
9.3018 22.856
9.3170 23.017
9.3322 22.892
9.3473 23.018
9.3625 23.078
9.3777 23.245
9.3929 23.042
9.4080 22.949
9.4232 23.023
9.4384 22.889
9.4536 22.881
9.4687 23.326
9.4839 23.541
9.4991 23.329
9.5143 23.128
9.5294 23.097
9.5446 22.944
9.5598 23.102
9.5750 23.001
9.5901 23.081
9.6053 23.249
9.6205 22.999
9.6357 23.222
9.6508 23.502
9.6660 23.390
9.6812 23.409
9.6964 23.656
9.7115 23.847
9.7267 23.867
9.7419 23.773
9.7571 23.670
9.7722 23.744
9.7874 23.894
9.8026 23.944
9.8178 23.840
9.8329 23.606
9.8481 23.309
9.8633 23.221
9.8785 23.194
9.8936 23.118
9.9088 23.218
9.9240 23.329
9.9392 23.126
9.9543 23.099
9.9695 23.183
9.9847 23.387
9.9999 23.360
10.0150 22.952
10.0302 22.904
10.0454 23.121
10.0606 23.254
10.0757 23.131
10.0909 22.971
10.1061 23.000
10.1213 23.062
10.1364 22.985
10.1516 23.267
10.1668 23.580
10.1820 23.569
10.1971 23.146
10.2123 22.971
10.2275 22.728
10.2427 22.746
10.2578 22.814
10.2730 22.490
10.2882 22.563
10.3034 22.847
10.3185 22.767
10.3337 22.892
10.3489 22.655
10.3641 22.075
10.3792 22.465
10.3944 22.841
10.4096 22.813
10.4248 22.823
10.4399 22.665
10.4551 22.619
10.4703 22.694
10.4855 22.736
10.5006 22.691
10.5158 22.392
10.5310 22.356
10.5462 22.355
10.5613 22.709
10.5765 22.347
10.5917 22.481
10.6069 22.855
10.6220 22.517
10.6372 22.186
10.6524 22.290
10.6676 22.445
10.6827 22.383
10.6979 22.604
10.7131 22.514
10.7283 22.417
10.7434 22.346
10.7586 22.512
10.7738 22.093
10.7890 21.856
10.8041 21.942
10.8193 22.007
10.8345 22.367
10.8497 22.591
10.8648 22.444
10.8800 22.602
10.8952 22.420
10.9104 22.133
10.9255 21.983
10.9407 22.156
10.9559 22.175
10.9711 22.076
10.9862 22.292
11.0014 22.079
11.0166 22.066
11.0318 22.130
11.0469 21.925
11.0621 21.780
11.0773 21.950
11.0925 21.835
11.1076 21.959
11.1228 21.838
11.1380 21.449
11.1532 21.587
11.1683 21.609
11.1835 21.604
11.1987 22.017
11.2139 22.015
11.2290 21.434
11.2442 21.503
11.2594 21.837
11.2746 21.462
11.2897 21.523
11.3049 21.571
11.3201 21.411
11.3353 21.262
11.3504 21.199
11.3656 21.512
11.3808 21.359
11.3960 21.476
11.4111 21.121
11.4263 21.108
11.4415 21.367
11.4567 21.059
11.4718 21.033
11.4870 20.706
11.5022 20.811
11.5174 21.469
11.5325 20.953
11.5477 20.799
11.5629 20.882
11.5781 20.739
11.5932 20.659
11.6084 20.727
11.6236 20.965
11.6388 20.949
11.6539 20.880
11.6691 20.736
11.6843 20.498
11.6995 20.331
11.7146 20.496
11.7298 20.465
11.7450 20.635
11.7602 20.461
11.7753 20.658
11.7905 19.982
11.8057 19.835
11.8209 19.811
11.8360 19.871
11.8512 20.080
11.8664 19.977
11.8816 20.006
11.8967 19.801
11.9119 19.458
11.9271 19.345
11.9423 19.167
11.9574 19.620
11.9726 19.486
11.9878 19.165
12.0030 18.982
12.0181 19.152
12.0333 19.076
12.0485 19.099
12.0637 19.091
12.0788 19.206
12.0940 18.879
12.1092 18.950
12.1244 18.910
12.1395 18.502
12.1547 18.306
12.1699 18.217
12.1851 18.169
12.2002 18.018
12.2154 18.017
12.2306 18.145
12.2458 18.075
12.2609 18.007
12.2761 18.083
12.2913 18.005
12.3065 17.892
12.3216 18.029
12.3368 17.887
12.3520 17.657
12.3672 17.657
12.3823 17.538
12.3975 17.306
12.4127 17.151
12.4279 17.001
12.4430 16.779
12.4582 16.778
12.4734 16.884
12.4886 16.639
12.5037 16.534
12.5189 16.522
12.5341 16.488
12.5493 16.512
12.5644 16.440
12.5796 16.361
12.5948 16.419
12.6100 16.145
12.6251 15.807
12.6403 15.966
12.6555 16.042
12.6707 15.648
12.6858 15.494
12.7010 15.828
12.7162 15.783
12.7314 15.365
12.7465 15.534
12.7617 15.519
12.7769 15.131
12.7921 15.290
12.8072 15.360
12.8224 15.316
12.8376 15.132
12.8528 14.905
12.8679 14.716
12.8831 14.627
12.8983 14.841
12.9135 14.755
12.9286 14.460
12.9438 14.605
12.9590 14.600
12.9742 14.510
12.9893 14.607
13.0045 14.455
13.0197 14.168
13.0349 14.035
13.0500 13.898
13.0652 13.950
13.0804 13.909
13.0956 13.661
13.1107 13.889
13.1259 14.188
13.1411 13.920
13.1563 13.699
13.1714 13.748
13.1866 13.553
13.2018 13.619
13.2170 13.776
13.2321 13.479
13.2473 13.227
13.2625 13.158
13.2777 13.252
13.2928 13.248
13.3080 13.105
13.3232 13.225
13.3384 13.022
13.3535 12.821
13.3687 13.215
13.3839 13.299
13.3991 13.131
13.4142 12.925
13.4294 12.815
13.4446 12.904
13.4598 12.925
13.4749 12.898
13.4901 12.654
13.5053 12.438
13.5205 12.346
13.5356 12.462
13.5508 12.449
13.5660 12.371
13.5812 12.275
13.5963 12.237
13.6115 12.452
13.6267 12.312
13.6419 12.285
13.6570 12.239
13.6722 12.265
13.6874 12.300
13.7026 12.196
13.7177 12.241
13.7329 12.110
13.7481 12.116
13.7633 11.995
13.7784 11.798
13.7936 12.179
13.8088 12.202
13.8239 12.269
13.8391 12.498
13.8543 12.535
13.8695 12.208
13.8846 11.990
13.8998 12.079
13.9150 12.012
13.9302 12.131
13.9453 12.150
13.9605 12.091
13.9757 12.050
13.9909 11.658
14.0060 11.796
14.0212 11.672
14.0364 11.830
14.0516 11.426
14.0667 11.329
14.0819 11.484
14.0971 11.846
14.1123 11.773
14.1274 11.685
14.1426 11.591
14.1578 11.584
14.1730 11.938
14.1881 11.697
14.2033 11.603
14.2185 11.680
14.2337 11.816
14.2488 11.767
14.2640 11.800
14.2792 11.658
14.2944 11.787
14.3095 12.060
14.3247 12.083
14.3399 12.412
14.3551 12.493
14.3702 12.586
14.3854 13.108
14.4006 12.898
14.4158 13.024
14.4309 13.190
14.4461 12.879
14.4613 12.647
14.4765 12.313
14.4916 12.278
14.5068 11.808
14.5220 11.359
14.5372 11.261
14.5523 11.097
14.5675 11.057
14.5827 10.892
14.5979 10.695
14.6130 11.076
14.6282 10.930
14.6434 11.093
14.6586 10.730
14.6737 10.556
14.6889 10.919
14.7041 10.498
14.7193 10.537
14.7344 10.434
14.7496 10.762
14.7648 10.213
14.7800 10.515
14.7951 10.364
14.8103 10.638
14.8255 10.342
14.8407 10.581
14.8558 10.606
14.8710 10.718
14.8862 10.748
14.9014 10.634
14.9165 10.766
14.9317 10.773
14.9469 10.532
14.9621 10.766
14.9772 10.373
14.9924 10.216
15.0076 10.247
15.0228 10.407
15.0379 10.154
15.0531 10.081
15.0683 10.293
15.0835 10.099
15.0986 10.331
15.1138 10.308
15.1290 10.613
15.1442 10.038
15.1593 10.152
15.1745 9.780
15.1897 10.335
15.2049 10.176
15.2200 10.096
15.2352 10.244
15.2504 10.415
15.2656 10.127
15.2807 10.233
15.2959 9.841
15.3111 9.905
15.3263 10.208
15.3414 10.078
15.3566 10.097
15.3718 10.274
15.3870 10.069
15.4021 9.892
15.4173 10.125
15.4325 10.539
15.4477 10.154
15.4628 10.348
15.4780 10.404
15.4932 10.056
15.5084 10.278
15.5235 10.080
15.5387 10.227
15.5539 10.025
15.5691 10.186
15.5842 10.010
15.5994 9.707
15.6146 9.920
15.6298 9.546
15.6449 9.636
15.6601 9.818
15.6753 9.857
15.6905 9.991
15.7056 9.751
15.7208 9.829
15.7360 9.810
15.7512 9.596
15.7663 9.869
15.7815 9.847
15.7967 9.951
15.8119 10.124
15.8270 10.064
15.8422 9.779
15.8574 9.807
15.8726 9.651
15.8877 9.383
15.9029 9.587
15.9181 9.496
15.9333 9.580
15.9484 9.760
15.9636 9.612
15.9788 9.686
15.9940 9.580
16.0091 9.903
16.0243 9.869
16.0395 9.754
16.0547 9.735
16.0698 9.945
16.0850 9.719
16.1002 9.716
16.1154 9.738
16.1305 9.644
16.1457 9.713
16.1609 9.764
16.1761 9.435
16.1912 9.586
16.2064 9.566
16.2216 9.768
16.2368 9.899
16.2519 9.778
16.2671 9.643
16.2823 9.924
16.2975 9.984
16.3126 9.906
16.3278 9.672
16.3430 9.676
16.3582 9.798
16.3733 9.736
16.3885 9.879
16.4037 10.158
16.4189 9.877
16.4340 9.938
16.4492 9.909
16.4644 9.751
16.4796 9.887
16.4947 9.852
16.5099 9.665
16.5251 9.538
16.5403 9.790
16.5554 9.665
16.5706 9.370
16.5858 9.362
16.6010 9.495
16.6161 9.871
16.6313 9.889
16.6465 9.615
16.6617 9.631
16.6768 9.633
16.6920 9.675
16.7072 9.938
16.7224 10.106
16.7375 10.072
16.7527 9.985
16.7679 9.883
16.7831 9.778
16.7982 10.010
16.8134 10.226
16.8286 9.905
16.8438 9.830
16.8589 9.773
16.8741 9.838
16.8893 9.793
16.9045 9.783
16.9196 9.591
16.9348 9.655
16.9500 9.878
16.9652 9.957
16.9803 9.892
16.9955 9.969
17.0107 9.948
17.0259 10.077
17.0410 10.250
17.0562 10.224
17.0714 10.239
17.0866 10.433
17.1017 10.586
17.1169 10.650
17.1321 10.831
17.1473 11.223
17.1624 11.661
17.1776 12.230
17.1928 12.985
17.2080 13.827
17.2231 15.040
17.2383 16.410
17.2535 17.821
17.2687 18.754
17.2838 18.882
17.2990 18.168
17.3142 17.073
17.3294 16.265
17.3445 16.213
17.3597 16.308
17.3749 16.091
17.3901 15.255
17.4052 14.105
17.4204 13.474
17.4356 12.784
17.4508 12.310
17.4659 11.949
17.4811 11.638
17.4963 11.671
17.5115 11.448
17.5266 11.078
17.5418 10.983
17.5570 10.962
17.5722 11.027
17.5873 11.289
17.6025 11.138
17.6177 10.826
17.6329 11.230
17.6480 11.578
17.6632 11.510
17.6784 11.409
17.6936 11.557
17.7087 11.446
17.7239 11.131
17.7391 11.150
17.7543 11.003
17.7694 10.900
17.7846 11.008
17.7998 11.086
17.8150 10.787
17.8301 10.487
17.8453 10.584
17.8605 10.430
17.8757 10.230
17.8908 10.351
17.9060 10.313
17.9212 10.126
17.9364 9.897
17.9515 10.045
17.9667 10.351
17.9819 10.376
17.9971 10.352
18.0122 10.260
18.0274 10.094
18.0426 10.234
18.0578 10.389
18.0729 10.251
18.0881 10.000
18.1033 9.975
18.1185 9.974
18.1336 9.764
18.1488 9.658
18.1640 9.943
18.1792 9.995
18.1943 9.905
18.2095 9.880
18.2247 9.928
18.2399 9.768
18.2550 9.865
18.2702 9.743
18.2854 9.756
18.3006 9.787
18.3157 9.632
18.3309 9.715
18.3461 9.839
18.3613 9.852
18.3764 9.810
18.3916 9.864
18.4068 9.819
18.4220 9.835
18.4371 9.895
18.4523 9.632
18.4675 9.607
18.4827 9.803
18.4978 9.919
18.5130 9.951
18.5282 9.900
18.5434 9.792
18.5585 9.458
18.5737 9.411
18.5889 9.740
18.6041 9.801
18.6192 9.912
18.6344 9.818
18.6496 9.727
18.6648 9.754
18.6799 9.829
18.6951 9.625
18.7103 9.723
18.7255 9.965
18.7406 9.731
18.7558 9.588
18.7710 9.740
18.7862 9.847
18.8013 9.795
18.8165 9.819
18.8317 10.055
18.8469 10.153
18.8620 10.000
18.8772 9.999
18.8924 10.084
18.9076 9.959
18.9227 10.214
18.9379 10.206
18.9531 9.983
18.9683 10.122
18.9834 10.217
18.9986 10.102
19.0138 9.971
19.0290 9.941
19.0441 9.927
19.0593 10.021
19.0745 10.215
19.0897 10.306
19.1048 10.284
19.1200 10.410
19.1352 10.388
19.1504 10.376
19.1655 10.452
19.1807 10.623
19.1959 10.589
19.2111 10.574
19.2262 10.500
19.2414 10.672
19.2566 10.695
19.2718 10.552
19.2869 10.786
19.3021 10.720
19.3173 10.506
19.3325 10.781
19.3476 11.068
19.3628 11.371
19.3780 11.301
19.3932 11.000
19.4083 11.094
19.4235 11.435
19.4387 11.172
19.4539 10.999
19.4690 11.182
19.4842 11.241
19.4994 11.305
19.5146 11.498
19.5297 11.420
19.5449 11.357
19.5601 11.465
19.5753 11.495
19.5904 11.602
19.6056 11.773
19.6208 11.597
19.6360 11.618
19.6511 11.834
19.6663 11.653
19.6815 11.610
19.6967 11.402
19.7118 11.502
19.7270 11.659
19.7422 11.729
19.7574 11.748
19.7725 11.684
19.7877 11.565
19.8029 11.797
19.8180 12.245
19.8332 12.263
19.8484 12.165
19.8636 12.299
19.8787 12.474
19.8939 12.758
19.9091 12.964
19.9243 13.176
19.9394 13.665
19.9546 13.831
19.9698 14.061
19.9850 14.516
20.0001 14.426
20.0153 14.278
20.0305 14.188
20.0457 13.910
20.0608 13.574
20.0760 13.690
20.0912 13.881
20.1064 13.708
20.1215 13.551
20.1367 13.351
20.1519 13.307
20.1671 13.176
20.1822 12.813
20.1974 12.943
20.2126 12.974
20.2278 12.826
20.2429 12.720
20.2581 12.587
20.2733 12.136
20.2885 12.175
20.3036 12.098
20.3188 11.798
20.3340 11.725
20.3492 12.005
20.3643 12.049
20.3795 12.151
20.3947 12.064
20.4099 12.013
20.4250 12.000
20.4402 11.761
20.4554 12.163
20.4706 11.925
20.4857 11.613
20.5009 11.684
20.5161 11.773
20.5313 11.653
20.5464 11.656
20.5616 11.360
20.5768 11.200
20.5920 10.805
20.6071 11.277
20.6223 11.142
20.6375 10.876
20.6527 11.059
20.6678 10.678
20.6830 10.501
20.6982 10.328
20.7134 10.190
20.7285 10.521
20.7437 10.281
20.7589 10.233
20.7741 10.361
20.7892 10.363
20.8044 10.326
20.8196 10.532
20.8348 10.489
20.8499 10.388
20.8651 10.226
20.8803 9.995
20.8955 10.031
20.9106 10.149
20.9258 10.050
20.9410 9.734
20.9562 10.042
20.9713 10.011
20.9865 9.855
21.0017 10.293
21.0169 10.150
21.0320 10.374
21.0472 10.106
21.0624 9.919
21.0776 9.592
21.0927 10.150
21.1079 9.819
21.1231 9.878
21.1383 9.809
21.1534 9.883
21.1686 9.634
21.1838 9.556
21.1990 9.870
21.2141 9.461
21.2293 9.730
21.2445 9.888
21.2597 9.547
21.2748 9.788
21.2900 9.685
21.3052 9.515
21.3204 9.737
21.3355 10.016
21.3507 9.557
21.3659 9.700
21.3811 9.680
21.3962 9.225
21.4114 9.466
21.4266 9.716
21.4418 9.305
21.4569 9.373
21.4721 9.559
21.4873 9.513
21.5025 9.878
21.5176 9.444
21.5328 9.221
21.5480 9.076
21.5632 9.145
21.5783 9.305
21.5935 9.295
21.6087 9.121
21.6239 9.314
21.6390 9.187
21.6542 9.043
21.6694 9.091
21.6846 9.277
21.6997 8.872
21.7149 8.982
21.7301 9.192
21.7453 9.255
21.7604 9.092
21.7756 8.705
21.7908 8.741
21.8060 8.958
21.8211 9.065
21.8363 8.854
21.8515 9.127
21.8667 9.180
21.8818 9.117
21.8970 8.910
21.9122 9.067
21.9274 9.090
21.9425 8.791
21.9577 8.813
21.9729 9.010
21.9881 8.769
22.0032 8.782
22.0184 8.999
22.0336 8.781
22.0488 8.690
22.0639 8.689
22.0791 8.522
22.0943 8.417
22.1095 8.614
22.1246 8.679
22.1398 8.760
22.1550 8.648
22.1702 8.605
22.1853 8.647
22.2005 8.531
22.2157 8.337
22.2309 8.441
22.2460 8.359
22.2612 8.473
22.2764 8.474
22.2916 8.616
22.3067 8.578
22.3219 8.637
22.3371 8.436
22.3523 8.571
22.3674 8.400
22.3826 8.319
22.3978 8.546
22.4130 8.355
22.4281 8.170
22.4433 8.354
22.4585 8.400
22.4737 8.298
22.4888 8.324
22.5040 8.097
22.5192 8.491
22.5344 8.333
22.5495 8.559
22.5647 8.464
22.5799 8.405
22.5951 8.319
22.6102 8.411
22.6254 8.694
22.6406 8.279
22.6558 8.672
22.6709 8.116
22.6861 8.546
22.7013 7.986
22.7165 8.035
22.7316 6.286
