'Id: "" Comment: "" Operator: "Lab Manager" Anode: "Mo" Scantype: "Still (Eiger2R_500K (1D mode))" TimePerStep: "300" X: "11.8" Y: "9.4" Z: "11.284" 
7.2532 18.842
7.2684 18.416
7.2836 19.102
7.2987 19.064
7.3139 19.051
7.3291 19.309
7.3443 18.971
7.3594 18.913
7.3746 18.842
7.3898 18.938
7.4050 18.995
7.4201 19.499
7.4353 19.272
7.4505 19.137
7.4657 19.425
7.4808 19.810
7.4960 19.847
7.5112 19.706
7.5264 19.701
7.5415 19.442
7.5567 19.687
7.5719 20.141
7.5871 20.043
7.6022 19.919
7.6174 20.145
7.6326 20.055
7.6478 19.785
7.6629 20.049
7.6781 20.026
7.6933 20.147
7.7085 20.385
7.7236 20.703
7.7388 20.685
7.7540 20.560
7.7692 20.605
7.7843 20.611
7.7995 20.633
7.8147 20.453
7.8299 20.136
7.8450 20.502
7.8602 20.887
7.8754 20.530
7.8905 20.539
7.9057 20.717
7.9209 20.551
7.9361 20.775
7.9512 20.953
7.9664 20.960
7.9816 20.830
7.9968 20.720
8.0119 20.650
8.0271 20.615
8.0423 21.018
8.0575 21.194
8.0726 21.212
8.0878 21.310
8.1030 21.302
8.1182 20.975
8.1333 21.207
8.1485 20.742
8.1637 21.304
8.1789 21.396
8.1940 21.590
8.2092 21.058
8.2244 21.173
8.2396 21.704
8.2547 21.542
8.2699 21.052
8.2851 21.299
8.3003 21.429
8.3154 21.651
8.3306 21.883
8.3458 21.759
8.3610 21.461
8.3761 21.576
8.3913 21.894
8.4065 22.084
8.4217 22.090
8.4368 22.111
8.4520 22.019
8.4672 21.957
8.4824 21.945
8.4975 21.857
8.5127 21.686
8.5279 21.963
8.5431 21.877
8.5582 22.179
8.5734 21.807
8.5886 21.815
8.6038 22.241
8.6189 21.687
8.6341 22.568
8.6493 22.561
8.6645 22.033
8.6796 21.951
8.6948 22.351
8.7100 22.232
8.7252 21.982
8.7403 22.106
8.7555 22.530
8.7707 22.435
8.7859 22.267
8.8010 21.638
8.8162 22.149
8.8314 22.383
8.8466 22.300
8.8617 22.179
8.8769 22.576
8.8921 22.665
8.9073 22.209
8.9224 22.550
8.9376 22.207
8.9528 22.286
8.9680 22.427
8.9831 22.607
8.9983 22.851
9.0135 22.819
9.0287 22.924
9.0438 22.925
9.0590 22.564
9.0742 22.504
9.0894 22.757
9.1045 22.385
9.1197 22.615
9.1349 22.997
9.1501 23.040
9.1652 22.919
9.1804 22.860
9.1956 22.390
9.2108 22.709
9.2259 23.388
9.2411 23.266
9.2563 22.583
9.2715 22.656
9.2866 23.178
9.3018 22.836
9.3170 22.641
9.3322 22.455
9.3473 22.797
9.3625 23.207
9.3777 23.332
9.3929 22.922
9.4080 22.621
9.4232 22.694
9.4384 23.019
9.4536 22.946
9.4687 22.886
9.4839 23.223
9.4991 23.023
9.5143 23.249
9.5294 23.510
9.5446 23.342
9.5598 22.895
9.5750 22.807
9.5901 22.666
9.6053 22.948
9.6205 23.439
9.6357 23.337
9.6508 23.262
9.6660 23.361
9.6812 23.490
9.6964 23.720
9.7115 23.976
9.7267 24.024
9.7419 23.778
9.7571 23.560
9.7722 23.293
9.7874 23.323
9.8026 23.690
9.8178 23.559
9.8329 23.378
9.8481 23.508
9.8633 23.502
9.8785 23.277
9.8936 23.344
9.9088 23.344
9.9240 23.236
9.9392 23.456
9.9543 23.706
9.9695 23.191
9.9847 22.840
9.9999 23.108
10.0150 23.354
10.0302 23.501
10.0454 23.493
10.0606 23.232
10.0757 23.147
10.0909 23.198
10.1061 23.275
10.1213 23.372
10.1364 23.081
10.1516 23.497
10.1668 23.409
10.1820 23.031
10.1971 23.422
10.2123 23.303
10.2275 22.862
10.2427 22.760
10.2578 22.886
10.2730 22.923
10.2882 22.871
10.3034 22.725
10.3185 22.434
10.3337 22.721
10.3489 22.416
10.3641 22.153
10.3792 22.384
10.3944 22.401
10.4096 22.609
10.4248 22.449
10.4399 22.528
10.4551 22.528
10.4703 22.681
10.4855 22.902
10.5006 22.845
10.5158 22.655
10.5310 22.472
10.5462 22.257
10.5613 22.489
10.5765 22.658
10.5917 22.580
10.6069 22.496
10.6220 22.337
10.6372 22.590
10.6524 22.568
10.6676 22.539
10.6827 22.504
10.6979 22.553
10.7131 22.734
10.7283 22.495
10.7434 22.420
10.7586 22.690
10.7738 22.227
10.7890 22.588
10.8041 22.527
10.8193 21.791
10.8345 22.035
10.8497 22.014
10.8648 21.956
10.8800 22.350
10.8952 21.915
10.9104 22.095
10.9255 21.798
10.9407 22.435
10.9559 22.313
10.9711 22.376
10.9862 22.325
11.0014 22.062
11.0166 21.854
11.0318 22.188
11.0469 21.563
11.0621 21.826
11.0773 21.907
11.0925 21.647
11.1076 21.208
11.1228 21.184
11.1380 21.751
11.1532 21.804
11.1683 21.953
11.1835 21.762
11.1987 21.426
11.2139 21.496
11.2290 21.517
11.2442 21.552
11.2594 21.701
11.2746 21.683
11.2897 21.735
11.3049 21.608
11.3201 21.633
11.3353 21.928
11.3504 21.531
11.3656 21.077
11.3808 21.112
11.3960 21.013
11.4111 21.232
11.4263 21.105
11.4415 21.233
11.4567 21.352
11.4718 21.155
11.4870 20.838
11.5022 21.261
11.5174 21.476
11.5325 21.256
11.5477 21.354
11.5629 20.964
11.5781 20.785
11.5932 20.925
11.6084 20.453
11.6236 20.635
11.6388 20.720
11.6539 20.803
11.6691 20.863
11.6843 20.366
11.6995 20.054
11.7146 19.996
11.7298 20.373
11.7450 20.683
11.7602 20.290
11.7753 20.039
11.7905 20.388
11.8057 20.348
11.8209 20.501
11.8360 20.177
11.8512 19.730
11.8664 19.749
11.8816 19.489
11.8967 19.942
11.9119 20.019
11.9271 19.612
11.9423 19.514
11.9574 19.315
11.9726 19.285
11.9878 19.215
12.0030 19.160
12.0181 19.237
12.0333 18.965
12.0485 18.761
12.0637 18.961
12.0788 19.077
12.0940 18.568
12.1092 18.537
12.1244 18.365
12.1395 18.256
12.1547 18.424
12.1699 18.568
12.1851 18.248
12.2002 18.140
12.2154 18.067
12.2306 18.189
12.2458 18.008
12.2609 18.093
12.2761 18.168
12.2913 17.915
12.3065 17.853
12.3216 17.613
12.3368 17.788
12.3520 17.145
12.3672 17.163
12.3823 17.080
12.3975 17.015
12.4127 16.995
12.4279 16.873
12.4430 16.883
12.4582 16.964
12.4734 17.144
12.4886 16.770
12.5037 16.306
12.5189 16.555
12.5341 16.670
12.5493 16.542
12.5644 16.388
12.5796 16.161
12.5948 16.227
12.6100 16.128
12.6251 16.140
12.6403 16.079
12.6555 15.913
12.6707 15.928
12.6858 15.649
12.7010 15.548
12.7162 15.422
12.7314 15.527
12.7465 15.702
12.7617 15.474
12.7769 15.025
12.7921 14.814
12.8072 14.881
12.8224 15.077
12.8376 14.970
12.8528 14.758
12.8679 14.821
12.8831 14.746
12.8983 14.627
12.9135 14.644
12.9286 14.579
12.9438 14.327
12.9590 14.221
12.9742 14.318
12.9893 14.215
13.0045 14.304
13.0197 14.138
13.0349 13.940
13.0500 14.137
13.0652 13.985
13.0804 13.914
13.0956 13.831
13.1107 13.851
13.1259 13.950
13.1411 13.567
13.1563 13.426
13.1714 13.513
13.1866 13.606
13.2018 13.756
13.2170 13.516
13.2321 13.302
13.2473 13.363
13.2625 13.481
13.2777 13.502
13.2928 13.143
13.3080 12.999
13.3232 13.098
13.3384 13.063
13.3535 13.154
13.3687 13.033
13.3839 12.796
13.3991 12.815
13.4142 12.796
13.4294 12.838
13.4446 12.825
13.4598 12.852
13.4749 12.637
13.4901 12.249
13.5053 12.370
13.5205 12.464
13.5356 12.540
13.5508 12.349
13.5660 12.362
13.5812 12.370
13.5963 12.252
13.6115 12.331
13.6267 12.414
13.6419 12.423
13.6570 12.216
13.6722 12.192
13.6874 12.168
13.7026 12.142
13.7177 12.104
13.7329 12.203
13.7481 12.137
13.7633 12.090
13.7784 12.120
13.7936 12.073
13.8088 12.313
13.8239 12.331
13.8391 12.177
13.8543 12.017
13.8695 12.084
13.8846 12.114
13.8998 12.256
13.9150 12.001
13.9302 11.950
13.9453 11.925
13.9605 11.998
13.9757 12.060
13.9909 11.741
14.0060 11.515
14.0212 11.738
14.0364 11.856
14.0516 11.464
14.0667 11.605
14.0819 11.700
14.0971 11.779
14.1123 11.712
14.1274 11.793
14.1426 11.978
14.1578 11.831
14.1730 11.791
14.1881 11.774
14.2033 12.036
14.2185 11.783
14.2337 11.808
14.2488 11.531
14.2640 11.677
14.2792 11.708
14.2944 11.818
14.3095 11.954
14.3247 11.560
14.3399 12.296
14.3551 12.416
14.3702 12.627
14.3854 13.290
14.4006 13.119
14.4158 13.147
14.4309 13.112
14.4461 12.801
14.4613 12.516
14.4765 12.707
14.4916 12.423
14.5068 11.918
14.5220 11.692
14.5372 11.425
14.5523 11.439
14.5675 11.107
14.5827 10.943
14.5979 10.789
14.6130 10.767
14.6282 10.769
14.6434 10.765
14.6586 10.799
14.6737 10.549
14.6889 10.642
14.7041 10.496
14.7193 10.592
14.7344 10.675
14.7496 10.692
14.7648 10.781
14.7800 10.443
14.7951 10.541
14.8103 10.382
14.8255 10.419
14.8407 10.568
14.8558 10.446
14.8710 10.382
14.8862 10.861
14.9014 10.251
14.9165 10.472
14.9317 10.442
14.9469 10.659
14.9621 10.257
14.9772 10.274
14.9924 10.204
15.0076 10.024
15.0228 10.639
15.0379 9.971
15.0531 9.936
15.0683 10.265
15.0835 10.204
15.0986 10.564
15.1138 10.064
15.1290 10.217
15.1442 10.356
15.1593 10.519
15.1745 10.225
15.1897 10.615
15.2049 10.019
15.2200 9.865
15.2352 10.159
15.2504 10.336
15.2656 10.264
15.2807 10.233
15.2959 9.553
15.3111 10.180
15.3263 9.977
15.3414 10.512
15.3566 10.423
15.3718 10.191
15.3870 9.991
15.4021 10.187
15.4173 10.400
15.4325 10.444
15.4477 10.034
15.4628 10.179
15.4780 9.925
15.4932 10.200
15.5084 10.442
15.5235 10.207
15.5387 9.944
15.5539 10.066
15.5691 10.156
15.5842 9.729
15.5994 9.714
15.6146 9.888
15.6298 9.870
15.6449 9.896
15.6601 10.033
15.6753 9.764
15.6905 9.965
15.7056 9.733
15.7208 9.876
15.7360 9.693
15.7512 9.689
15.7663 9.702
15.7815 9.849
15.7967 9.694
15.8119 9.665
15.8270 9.637
15.8422 9.918
15.8574 9.527
15.8726 9.678
15.8877 9.400
15.9029 9.533
15.9181 9.688
15.9333 9.618
15.9484 9.740
15.9636 9.692
15.9788 9.635
15.9940 9.792
16.0091 9.486
16.0243 9.601
16.0395 9.483
16.0547 9.582
16.0698 9.603
16.0850 9.647
16.1002 9.532
16.1154 9.426
16.1305 9.430
16.1457 9.569
16.1609 9.512
16.1761 9.429
16.1912 9.631
16.2064 9.611
16.2216 9.767
16.2368 9.717
16.2519 9.523
16.2671 9.596
16.2823 9.526
16.2975 9.756
16.3126 9.836
16.3278 9.868
16.3430 9.861
16.3582 9.726
16.3733 9.819
16.3885 9.835
16.4037 9.898
16.4189 10.043
16.4340 9.832
16.4492 9.712
16.4644 9.794
16.4796 9.404
16.4947 9.436
16.5099 9.506
16.5251 9.655
16.5403 9.583
16.5554 9.641
16.5706 9.620
16.5858 9.662
16.6010 9.638
16.6161 9.492
16.6313 9.519
16.6465 9.453
16.6617 9.530
16.6768 9.608
16.6920 9.621
16.7072 9.763
16.7224 9.771
16.7375 9.969
16.7527 10.005
16.7679 10.040
16.7831 10.073
16.7982 9.994
16.8134 9.913
16.8286 9.859
16.8438 9.903
16.8589 9.788
16.8741 9.578
16.8893 9.697
16.9045 9.721
16.9196 9.776
16.9348 9.904
16.9500 9.859
16.9652 9.783
16.9803 9.848
16.9955 9.673
17.0107 9.749
17.0259 10.010
17.0410 9.945
17.0562 10.041
17.0714 10.244
17.0866 10.317
17.1017 10.549
17.1169 10.633
17.1321 10.817
17.1473 11.159
17.1624 11.496
17.1776 12.253
17.1928 13.128
17.2080 13.885
17.2231 14.840
17.2383 16.279
17.2535 17.600
17.2687 18.407
17.2838 18.889
17.2990 18.375
17.3142 17.116
17.3294 16.458
17.3445 16.279
17.3597 16.195
17.3749 15.854
17.3901 15.205
17.4052 14.378
17.4204 13.516
17.4356 12.718
17.4508 12.011
17.4659 11.809
17.4811 11.698
17.4963 11.382
17.5115 11.279
17.5266 11.264
17.5418 11.178
17.5570 11.166
17.5722 11.024
17.5873 11.060
17.6025 11.083
17.6177 11.093
17.6329 11.269
17.6480 11.458
17.6632 11.559
17.6784 11.446
17.6936 11.483
17.7087 11.460
17.7239 11.022
17.7391 10.790
17.7543 11.043
17.7694 11.000
17.7846 10.869
17.7998 11.062
17.8150 11.045
17.8301 10.626
17.8453 10.405
17.8605 10.260
17.8757 10.142
17.8908 10.127
17.9060 10.149
17.9212 10.291
17.9364 10.110
17.9515 10.095
17.9667 10.333
17.9819 10.409
17.9971 10.321
18.0122 10.294
18.0274 10.260
18.0426 10.014
18.0578 9.907
18.0729 10.103
18.0881 10.157
18.1033 10.086
18.1185 9.815
18.1336 9.656
18.1488 9.753
18.1640 9.886
18.1792 10.024
18.1943 10.137
18.2095 9.896
18.2247 9.715
18.2399 9.641
18.2550 9.771
18.2702 9.758
18.2854 9.750
18.3006 9.913
18.3157 9.994
18.3309 9.963
18.3461 9.809
18.3613 9.674
18.3764 9.838
18.3916 9.644
18.4068 9.640
18.4220 9.734
18.4371 9.760
18.4523 9.798
18.4675 9.842
18.4827 9.867
18.4978 9.797
18.5130 9.929
18.5282 9.736
18.5434 9.716
18.5585 9.744
18.5737 9.825
18.5889 9.688
18.6041 9.755
18.6192 9.847
18.6344 9.729
18.6496 9.827
18.6648 10.162
18.6799 9.994
18.6951 9.924
18.7103 9.818
18.7255 9.829
18.7406 9.760
18.7558 9.796
18.7710 9.706
18.7862 9.852
18.8013 9.729
18.8165 9.604
18.8317 9.811
18.8469 9.684
18.8620 9.761
18.8772 10.042
18.8924 10.040
18.9076 10.040
18.9227 10.105
18.9379 9.995
18.9531 9.953
18.9683 9.861
18.9834 10.110
18.9986 10.060
19.0138 10.072
19.0290 10.235
19.0441 10.198
19.0593 10.211
19.0745 10.246
19.0897 10.224
19.1048 10.380
19.1200 10.571
19.1352 10.645
19.1504 10.574
19.1655 10.632
19.1807 10.558
19.1959 10.754
19.2111 10.640
19.2262 10.566
19.2414 10.718
19.2566 10.639
19.2718 10.872
19.2869 10.796
19.3021 10.682
19.3173 10.938
19.3325 11.041
19.3476 11.123
19.3628 11.009
19.3780 10.970
19.3932 11.013
19.4083 11.292
19.4235 11.407
19.4387 11.379
19.4539 11.446
19.4690 11.534
19.4842 11.328
19.4994 11.555
19.5146 11.745
19.5297 11.663
19.5449 11.242
19.5601 11.237
19.5753 11.578
19.5904 11.661
19.6056 11.551
19.6208 11.524
19.6360 11.542
19.6511 11.650
19.6663 11.766
19.6815 11.588
19.6967 11.621
19.7118 11.761
19.7270 11.709
19.7422 11.577
19.7574 11.852
19.7725 12.118
19.7877 11.882
19.8029 11.953
19.8180 12.288
19.8332 12.139
19.8484 12.053
19.8636 12.444
19.8787 12.660
19.8939 12.875
19.9091 13.100
19.9243 13.283
19.9394 13.881
19.9546 14.365
19.9698 14.522
19.9850 14.486
20.0001 14.508
20.0153 14.424
20.0305 14.265
20.0457 14.106
20.0608 14.016
20.0760 13.896
20.0912 13.856
20.1064 13.522
20.1215 13.394
20.1367 13.327
20.1519 13.152
20.1671 13.139
20.1822 13.125
20.1974 12.852
20.2126 12.774
20.2278 12.648
20.2429 12.603
20.2581 12.325
20.2733 12.156
20.2885 12.254
20.3036 11.932
20.3188 12.036
20.3340 12.077
20.3492 12.117
20.3643 12.057
20.3795 11.985
20.3947 12.038
20.4099 11.757
20.4250 11.815
20.4402 12.083
20.4554 11.762
20.4706 11.584
20.4857 11.955
20.5009 11.672
20.5161 11.749
20.5313 11.629
20.5464 11.466
20.5616 11.291
20.5768 11.272
20.5920 11.022
20.6071 11.057
20.6223 10.868
20.6375 10.926
20.6527 10.826
20.6678 10.748
20.6830 10.614
20.6982 10.629
20.7134 10.576
20.7285 10.479
20.7437 10.590
20.7589 10.372
20.7741 10.351
20.7892 10.256
20.8044 10.360
20.8196 10.299
20.8348 10.352
20.8499 10.249
20.8651 10.294
20.8803 10.382
20.8955 10.358
20.9106 10.395
20.9258 10.242
20.9410 9.787
20.9562 10.066
20.9713 10.202
20.9865 10.219
21.0017 10.190
21.0169 10.049
21.0320 10.221
21.0472 9.884
21.0624 9.988
21.0776 9.845
21.0927 10.209
21.1079 9.978
21.1231 9.702
21.1383 9.928
21.1534 9.744
21.1686 9.915
21.1838 9.472
21.1990 9.383
21.2141 9.702
21.2293 9.702
21.2445 9.601
21.2597 9.550
21.2748 9.536
21.2900 9.620
21.3052 9.434
21.3204 9.616
21.3355 9.371
21.3507 9.507
21.3659 9.492
21.3811 9.708
21.3962 9.686
21.4114 9.540
21.4266 9.573
21.4418 9.549
21.4569 9.284
21.4721 9.268
21.4873 9.293
21.5025 9.416
21.5176 9.187
21.5328 9.381
21.5480 9.100
21.5632 9.438
21.5783 9.427
21.5935 9.278
21.6087 9.308
21.6239 9.474
21.6390 9.477
21.6542 9.259
21.6694 9.012
21.6846 9.272
21.6997 9.196
21.7149 8.832
21.7301 9.068
21.7453 8.882
21.7604 8.856
21.7756 9.077
21.7908 9.020
21.8060 8.804
21.8211 9.256
21.8363 9.175
21.8515 9.136
21.8667 9.118
21.8818 9.121
21.8970 9.087
21.9122 9.044
21.9274 8.910
21.9425 9.025
21.9577 9.155
21.9729 8.877
21.9881 8.825
22.0032 8.673
22.0184 8.737
22.0336 8.899
22.0488 8.785
22.0639 8.774
22.0791 8.802
22.0943 8.739
22.1095 8.645
22.1246 8.666
22.1398 8.551
22.1550 8.656
22.1702 8.640
22.1853 8.562
22.2005 8.659
22.2157 8.472
22.2309 8.225
22.2460 8.531
22.2612 8.729
22.2764 8.437
22.2916 8.265
22.3067 8.515
22.3219 8.510
22.3371 8.320
22.3523 8.261
22.3674 8.320
22.3826 8.588
22.3978 8.447
22.4130 8.443
22.4281 8.489
22.4433 8.546
22.4585 8.568
22.4737 8.604
22.4888 8.477
22.5040 8.790
22.5192 8.397
22.5344 8.489
22.5495 8.639
22.5647 8.430
22.5799 8.184
22.5951 8.357
22.6102 8.530
22.6254 8.490
22.6406 8.398
22.6558 8.192
22.6709 8.700
22.6861 8.552
22.7013 8.390
22.7165 8.075
22.7316 6.554
