'Id: "" Comment: "" Operator: "Lab Manager" Anode: "Mo" Scantype: "Still (Eiger2R_500K (1D mode))" TimePerStep: "300" X: "11.8" Y: "9.4" Z: "11.284" 
7.2532 19.004
7.2684 18.960
7.2836 18.946
7.2987 19.269
7.3139 18.932
7.3291 19.143
7.3443 18.936
7.3594 19.169
7.3746 19.552
7.3898 19.630
7.4050 19.326
7.4201 19.274
7.4353 19.192
7.4505 19.643
7.4657 19.528
7.4808 19.632
7.4960 19.661
7.5112 19.542
7.5264 19.475
7.5415 19.619
7.5567 19.418
7.5719 19.757
7.5871 19.993
7.6022 19.802
7.6174 19.939
7.6326 19.900
7.6478 20.133
7.6629 20.202
7.6781 20.372
7.6933 20.598
7.7085 20.507
7.7236 20.370
7.7388 20.339
7.7540 20.256
7.7692 20.484
7.7843 20.402
7.7995 20.536
7.8147 20.784
7.8299 20.797
7.8450 20.882
7.8602 20.886
7.8754 20.765
7.8905 21.151
7.9057 21.031
7.9209 21.041
7.9361 21.167
7.9512 20.855
7.9664 20.755
7.9816 20.915
7.9968 20.991
8.0119 21.371
8.0271 21.255
8.0423 21.269
8.0575 21.350
8.0726 21.363
8.0878 21.461
8.1030 21.329
8.1182 21.623
8.1333 21.439
8.1485 21.423
8.1637 21.543
8.1789 21.699
8.1940 21.457
8.2092 21.695
8.2244 21.447
8.2396 21.816
8.2547 21.660
8.2699 21.687
8.2851 22.001
8.3003 21.746
8.3154 22.015
8.3306 21.352
8.3458 21.880
8.3610 22.017
8.3761 21.558
8.3913 21.317
8.4065 21.688
8.4217 22.097
8.4368 22.314
8.4520 22.324
8.4672 22.182
8.4824 21.875
8.4975 22.033
8.5127 22.190
8.5279 22.055
8.5431 22.425
8.5582 22.409
8.5734 22.321
8.5886 22.574
8.6038 22.292
8.6189 22.692
8.6341 22.865
8.6493 22.929
8.6645 22.563
8.6796 22.042
8.6948 22.422
8.7100 22.607
8.7252 22.556
8.7403 21.986
8.7555 22.081
8.7707 22.233
8.7859 22.307
8.8010 22.591
8.8162 22.815
8.8314 22.900
8.8466 22.669
8.8617 22.606
8.8769 22.939
8.8921 22.006
8.9073 22.608
8.9224 22.787
8.9376 22.724
8.9528 22.943
8.9680 22.735
8.9831 22.557
8.9983 22.548
9.0135 22.795
9.0287 22.847
9.0438 23.023
9.0590 22.984
9.0742 22.564
9.0894 22.499
9.1045 23.036
9.1197 23.164
9.1349 22.796
9.1501 23.445
9.1652 22.994
9.1804 22.829
9.1956 22.551
9.2108 22.847
9.2259 22.497
9.2411 22.939
9.2563 22.813
9.2715 22.885
9.2866 22.727
9.3018 22.905
9.3170 23.136
9.3322 22.813
9.3473 22.995
9.3625 22.963
9.3777 23.446
9.3929 23.177
9.4080 22.984
9.4232 23.105
9.4384 23.255
9.4536 23.207
9.4687 23.148
9.4839 23.147
9.4991 23.103
9.5143 22.940
9.5294 22.954
9.5446 22.890
9.5598 23.237
9.5750 23.469
9.5901 23.359
9.6053 23.166
9.6205 23.293
9.6357 23.537
9.6508 23.670
9.6660 23.757
9.6812 23.834
9.6964 23.744
9.7115 23.736
9.7267 24.289
9.7419 24.590
9.7571 24.629
9.7722 24.420
9.7874 23.928
9.8026 23.735
9.8178 23.767
9.8329 23.654
9.8481 23.571
9.8633 23.667
9.8785 23.559
9.8936 23.504
9.9088 23.839
9.9240 23.726
9.9392 23.600
9.9543 23.564
9.9695 23.496
9.9847 23.634
9.9999 23.314
10.0150 23.130
10.0302 23.012
10.0454 23.128
10.0606 23.346
10.0757 23.232
10.0909 23.283
10.1061 23.236
10.1213 23.175
10.1364 23.021
10.1516 22.998
10.1668 23.108
10.1820 23.156
10.1971 22.921
10.2123 23.172
10.2275 23.548
10.2427 23.138
10.2578 22.653
10.2730 22.994
10.2882 23.127
10.3034 22.915
10.3185 22.629
10.3337 22.670
10.3489 22.913
10.3641 22.927
10.3792 23.056
10.3944 23.202
10.4096 23.381
10.4248 23.065
10.4399 23.084
10.4551 22.885
10.4703 22.674
10.4855 22.729
10.5006 22.802
10.5158 22.886
10.5310 22.753
10.5462 22.540
10.5613 22.179
10.5765 22.465
10.5917 22.707
10.6069 23.043
10.6220 23.133
10.6372 22.839
10.6524 22.734
10.6676 22.703
10.6827 22.649
10.6979 22.971
10.7131 22.565
10.7283 22.214
10.7434 22.286
10.7586 22.865
10.7738 22.561
10.7890 22.344
10.8041 22.565
10.8193 22.578
10.8345 22.491
10.8497 22.162
10.8648 22.044
10.8800 22.431
10.8952 22.267
10.9104 22.349
10.9255 22.185
10.9407 22.334
10.9559 22.191
10.9711 21.973
10.9862 21.996
11.0014 21.830
11.0166 21.845
11.0318 22.269
11.0469 22.155
11.0621 22.204
11.0773 22.041
11.0925 21.616
11.1076 21.764
11.1228 21.877
11.1380 21.654
11.1532 21.836
11.1683 22.051
11.1835 21.925
11.1987 21.866
11.2139 21.791
11.2290 21.844
11.2442 22.019
11.2594 21.979
11.2746 21.359
11.2897 21.652
11.3049 21.785
11.3201 21.759
11.3353 21.651
11.3504 21.591
11.3656 21.484
11.3808 21.491
11.3960 21.090
11.4111 21.506
11.4263 21.466
11.4415 21.104
11.4567 21.266
11.4718 21.423
11.4870 21.343
11.5022 21.250
11.5174 21.315
11.5325 21.249
11.5477 21.238
11.5629 21.387
11.5781 20.924
11.5932 21.106
11.6084 21.088
11.6236 20.912
11.6388 20.938
11.6539 20.856
11.6691 20.892
11.6843 20.735
11.6995 20.617
11.7146 20.520
11.7298 20.323
11.7450 20.549
11.7602 20.526
11.7753 20.417
11.7905 19.923
11.8057 19.967
11.8209 19.921
11.8360 20.254
11.8512 20.219
11.8664 20.166
11.8816 20.082
11.8967 20.029
11.9119 19.852
11.9271 19.743
11.9423 19.657
11.9574 19.786
11.9726 19.755
11.9878 19.184
12.0030 19.349
12.0181 19.493
12.0333 19.335
12.0485 19.222
12.0637 19.058
12.0788 19.110
12.0940 19.071
12.1092 18.785
12.1244 18.926
12.1395 18.807
12.1547 18.551
12.1699 18.689
12.1851 18.773
12.2002 18.461
12.2154 18.171
12.2306 17.956
12.2458 18.062
12.2609 18.079
12.2761 17.740
12.2913 17.759
12.3065 17.601
12.3216 17.429
12.3368 17.609
12.3520 17.584
12.3672 17.583
12.3823 17.362
12.3975 17.364
12.4127 17.283
12.4279 17.345
12.4430 17.197
12.4582 17.277
12.4734 17.042
12.4886 16.788
12.5037 17.027
12.5189 16.535
12.5341 16.393
12.5493 16.535
12.5644 16.457
12.5796 16.611
12.5948 16.258
12.6100 16.030
12.6251 16.127
12.6403 16.310
12.6555 16.228
12.6707 16.120
12.6858 15.866
12.7010 15.750
12.7162 15.788
12.7314 15.834
12.7465 15.718
12.7617 15.185
12.7769 14.902
12.7921 15.025
12.8072 15.260
12.8224 15.296
12.8376 15.129
12.8528 14.985
12.8679 14.771
12.8831 14.989
12.8983 15.071
12.9135 14.896
12.9286 14.822
12.9438 14.436
12.9590 14.492
12.9742 14.554
12.9893 14.445
13.0045 14.301
13.0197 14.197
13.0349 14.229
13.0500 14.098
13.0652 14.150
13.0804 14.033
13.0956 13.965
13.1107 14.137
13.1259 13.990
13.1411 13.851
13.1563 13.709
13.1714 13.677
13.1866 13.832
13.2018 13.789
13.2170 13.638
13.2321 13.375
13.2473 13.443
13.2625 13.707
13.2777 13.520
13.2928 13.370
13.3080 13.375
13.3232 13.290
13.3384 13.151
13.3535 13.170
13.3687 13.218
13.3839 13.120
13.3991 13.018
13.4142 12.876
13.4294 12.912
13.4446 12.854
13.4598 12.844
13.4749 12.754
13.4901 12.708
13.5053 12.541
13.5205 12.633
13.5356 12.667
13.5508 12.396
13.5660 12.457
13.5812 12.496
13.5963 12.370
13.6115 12.513
13.6267 12.460
13.6419 12.182
13.6570 12.192
13.6722 12.275
13.6874 12.249
13.7026 12.125
13.7177 12.212
13.7329 12.211
13.7481 11.876
13.7633 11.949
13.7784 12.107
13.7936 12.311
13.8088 12.348
13.8239 12.449
13.8391 12.723
13.8543 12.499
13.8695 12.415
13.8846 12.333
13.8998 12.258
13.9150 12.131
13.9302 12.060
13.9453 11.964
13.9605 11.995
13.9757 11.972
13.9909 11.498
14.0060 11.666
14.0212 11.859
14.0364 11.865
14.0516 11.733
14.0667 11.584
14.0819 11.277
14.0971 11.152
14.1123 11.368
14.1274 11.347
14.1426 11.522
14.1578 11.102
14.1730 11.546
14.1881 11.513
14.2033 11.476
14.2185 11.399
14.2337 11.113
14.2488 11.402
14.2640 11.731
14.2792 11.586
14.2944 11.399
14.3095 11.446
14.3247 11.729
14.3399 11.890
14.3551 11.926
14.3702 11.955
14.3854 12.454
14.4006 12.455
14.4158 12.549
14.4309 12.787
14.4461 12.747
14.4613 12.385
14.4765 11.885
14.4916 12.044
14.5068 11.859
14.5220 11.676
14.5372 11.492
14.5523 11.598
14.5675 11.924
14.5827 11.342
14.5979 11.088
14.6130 11.090
14.6282 11.349
14.6434 11.353
14.6586 10.831
14.6737 11.039
14.6889 10.822
14.7041 10.883
14.7193 10.982
14.7344 10.936
14.7496 11.266
14.7648 11.135
14.7800 11.099
14.7951 10.997
14.8103 10.691
14.8255 11.240
14.8407 10.773
14.8558 10.841
14.8710 11.400
14.8862 11.058
14.9014 10.914
14.9165 10.808
14.9317 10.654
14.9469 10.653
14.9621 10.753
14.9772 10.601
14.9924 10.742
15.0076 10.817
15.0228 10.678
15.0379 10.754
15.0531 10.571
15.0683 10.667
15.0835 10.611
15.0986 10.458
15.1138 10.273
15.1290 10.419
15.1442 10.320
15.1593 10.503
15.1745 10.336
15.1897 10.260
15.2049 10.449
15.2200 10.325
15.2352 10.409
15.2504 10.377
15.2656 10.179
15.2807 10.434
15.2959 10.515
15.3111 10.325
15.3263 10.380
15.3414 10.035
15.3566 10.320
15.3718 10.510
15.3870 10.301
15.4021 10.363
15.4173 10.498
15.4325 10.491
15.4477 10.525
15.4628 10.600
15.4780 10.510
15.4932 10.437
15.5084 10.427
15.5235 10.554
15.5387 10.481
15.5539 10.258
15.5691 10.548
15.5842 10.005
15.5994 10.437
15.6146 10.259
15.6298 10.293
15.6449 10.392
15.6601 10.009
15.6753 10.115
15.6905 10.269
15.7056 10.052
15.7208 10.035
15.7360 10.195
15.7512 10.148
15.7663 9.744
15.7815 9.956
15.7967 9.884
15.8119 9.966
15.8270 10.039
15.8422 10.090
15.8574 9.924
15.8726 9.839
15.8877 9.727
15.9029 9.918
15.9181 10.021
15.9333 9.925
15.9484 10.003
15.9636 10.083
15.9788 9.877
15.9940 9.817
16.0091 9.877
16.0243 9.951
16.0395 9.890
16.0547 9.749
16.0698 9.799
16.0850 9.555
16.1002 9.749
16.1154 9.671
16.1305 9.342
16.1457 9.627
16.1609 9.586
16.1761 9.971
16.1912 9.810
16.2064 9.805
16.2216 9.844
16.2368 10.303
16.2519 9.920
16.2671 9.832
16.2823 9.833
16.2975 10.001
16.3126 9.931
16.3278 9.894
16.3430 9.810
16.3582 9.759
16.3733 10.144
16.3885 10.300
16.4037 10.114
16.4189 9.970
16.4340 9.830
16.4492 9.911
16.4644 10.106
16.4796 10.025
16.4947 9.920
16.5099 9.827
16.5251 9.924
16.5403 9.988
16.5554 10.062
16.5706 9.957
16.5858 9.841
16.6010 9.820
16.6161 9.756
16.6313 9.721
16.6465 9.886
16.6617 9.882
16.6768 10.033
16.6920 10.156
16.7072 10.033
16.7224 10.248
16.7375 10.361
16.7527 10.312
16.7679 10.158
16.7831 10.177
16.7982 9.931
16.8134 9.825
16.8286 9.975
16.8438 9.954
16.8589 9.692
16.8741 9.941
16.8893 10.119
16.9045 9.870
16.9196 9.666
16.9348 9.908
16.9500 10.047
16.9652 9.802
16.9803 9.888
16.9955 9.954
17.0107 9.972
17.0259 10.083
17.0410 10.282
17.0562 10.446
17.0714 10.446
17.0866 10.565
17.1017 10.725
17.1169 10.951
17.1321 11.004
17.1473 11.257
17.1624 11.973
17.1776 12.483
17.1928 13.148
17.2080 14.212
17.2231 15.178
17.2383 16.254
17.2535 17.539
17.2687 18.745
17.2838 19.017
17.2990 18.448
17.3142 17.503
17.3294 16.446
17.3445 16.135
17.3597 15.999
17.3749 15.835
17.3901 15.470
17.4052 14.145
17.4204 12.821
17.4356 12.166
17.4508 11.657
17.4659 11.236
17.4811 11.253
17.4963 11.219
17.5115 11.052
17.5266 11.019
17.5418 10.571
17.5570 10.196
17.5722 10.304
17.5873 10.639
17.6025 10.701
17.6177 10.308
17.6329 10.437
17.6480 10.482
17.6632 10.191
17.6784 10.131
17.6936 10.187
17.7087 10.381
17.7239 10.150
17.7391 10.107
17.7543 10.442
17.7694 10.396
17.7846 10.396
17.7998 10.641
17.8150 10.812
17.8301 11.075
17.8453 11.017
17.8605 10.972
17.8757 11.051
17.8908 11.075
17.9060 10.979
17.9212 10.755
17.9364 10.686
17.9515 10.603
17.9667 10.567
17.9819 10.571
17.9971 10.608
18.0122 10.574
18.0274 10.274
18.0426 10.342
18.0578 10.453
18.0729 10.210
18.0881 9.962
18.1033 9.981
18.1185 10.142
18.1336 9.924
18.1488 9.834
18.1640 9.946
18.1792 10.048
18.1943 10.035
18.2095 10.101
18.2247 10.064
18.2399 10.038
18.2550 9.975
18.2702 9.836
18.2854 10.031
18.3006 10.047
18.3157 9.836
18.3309 9.759
18.3461 9.763
18.3613 9.817
18.3764 9.675
18.3916 9.665
18.4068 9.833
18.4220 9.780
18.4371 9.829
18.4523 9.965
18.4675 9.809
18.4827 9.760
18.4978 9.691
18.5130 9.852
18.5282 9.660
18.5434 9.837
18.5585 9.964
18.5737 9.903
18.5889 9.636
18.6041 9.631
18.6192 9.744
18.6344 9.887
18.6496 9.970
18.6648 9.903
18.6799 9.704
18.6951 9.635
18.7103 9.796
18.7255 9.841
18.7406 9.904
18.7558 9.762
18.7710 9.856
18.7862 9.807
18.8013 9.717
18.8165 9.604
18.8317 9.579
18.8469 9.907
18.8620 10.035
18.8772 10.086
18.8924 10.128
18.9076 10.073
18.9227 9.897
18.9379 9.799
18.9531 9.948
18.9683 10.214
18.9834 10.295
18.9986 10.144
19.0138 10.246
19.0290 10.017
19.0441 10.008
19.0593 10.229
19.0745 10.225
19.0897 10.361
19.1048 10.525
19.1200 10.506
19.1352 10.301
19.1504 10.536
19.1655 10.728
19.1807 10.566
19.1959 10.417
19.2111 10.687
19.2262 10.790
19.2414 10.556
19.2566 10.664
19.2718 10.719
19.2869 10.727
19.3021 10.995
19.3173 11.034
19.3325 11.260
19.3476 11.148
19.3628 10.975
19.3780 11.063
19.3932 11.306
19.4083 11.367
19.4235 11.295
19.4387 11.219
19.4539 11.222
19.4690 11.326
19.4842 11.468
19.4994 11.572
19.5146 11.695
19.5297 11.796
19.5449 11.474
19.5601 11.198
19.5753 11.399
19.5904 11.574
19.6056 11.571
19.6208 11.617
19.6360 11.486
19.6511 11.531
19.6663 11.607
19.6815 11.618
19.6967 11.715
19.7118 11.673
19.7270 11.756
19.7422 11.665
19.7574 11.659
19.7725 11.784
19.7877 11.957
19.8029 11.943
19.8180 11.972
19.8332 12.254
19.8484 12.366
19.8636 12.400
19.8787 12.715
19.8939 12.926
19.9091 12.917
19.9243 13.352
19.9394 13.918
19.9546 14.130
19.9698 14.643
19.9850 14.681
20.0001 14.421
20.0153 14.320
20.0305 14.062
20.0457 13.922
20.0608 13.999
20.0760 14.018
20.0912 13.831
20.1064 13.701
20.1215 13.777
20.1367 13.398
20.1519 13.220
20.1671 13.125
20.1822 12.993
20.1974 12.824
20.2126 12.774
20.2278 12.591
20.2429 12.438
20.2581 11.965
20.2733 11.834
20.2885 11.724
20.3036 11.614
20.3188 11.807
20.3340 11.787
20.3492 11.621
20.3643 11.573
20.3795 11.195
20.3947 10.897
20.4099 11.002
20.4250 10.741
20.4402 10.855
20.4554 10.875
20.4706 10.738
20.4857 10.832
20.5009 10.800
20.5161 10.519
20.5313 10.437
20.5464 10.600
20.5616 10.411
20.5768 10.418
20.5920 10.716
20.6071 10.716
20.6223 10.493
20.6375 10.638
20.6527 10.468
20.6678 10.184
20.6830 10.123
20.6982 10.580
20.7134 10.481
20.7285 10.523
20.7437 10.404
20.7589 10.198
20.7741 9.977
20.7892 10.321
20.8044 10.377
20.8196 10.326
20.8348 10.362
20.8499 10.465
20.8651 10.225
20.8803 10.528
20.8955 10.179
20.9106 10.257
20.9258 10.209
20.9410 10.196
20.9562 10.106
20.9713 10.201
20.9865 10.268
21.0017 10.283
21.0169 10.124
21.0320 10.189
21.0472 10.132
21.0624 10.421
21.0776 10.081
21.0927 9.836
21.1079 9.973
21.1231 10.179
21.1383 10.083
21.1534 10.159
21.1686 10.336
21.1838 9.752
21.1990 9.912
21.2141 9.880
21.2293 9.866
21.2445 9.755
21.2597 9.424
21.2748 9.539
21.2900 9.638
21.3052 9.855
21.3204 9.649
21.3355 9.621
21.3507 9.336
21.3659 9.669
21.3811 9.852
21.3962 9.628
21.4114 9.505
21.4266 9.422
21.4418 9.429
21.4569 9.446
21.4721 9.266
21.4873 9.169
21.5025 9.296
21.5176 9.549
21.5328 9.449
21.5480 9.309
21.5632 9.185
21.5783 9.124
21.5935 9.272
21.6087 9.162
21.6239 9.278
21.6390 9.196
21.6542 9.213
21.6694 9.242
21.6846 9.311
21.6997 9.092
21.7149 9.035
21.7301 9.049
21.7453 8.968
21.7604 8.997
21.7756 8.974
21.7908 8.881
21.8060 8.859
21.8211 8.829
21.8363 9.135
21.8515 9.135
21.8667 9.161
21.8818 9.280
21.8970 9.166
21.9122 9.021
21.9274 8.963
21.9425 8.872
21.9577 8.840
21.9729 8.783
21.9881 8.934
22.0032 8.952
22.0184 8.903
22.0336 8.900
22.0488 8.852
22.0639 8.834
22.0791 9.009
22.0943 8.989
22.1095 8.787
22.1246 8.644
22.1398 8.598
22.1550 8.561
22.1702 8.692
22.1853 8.731
22.2005 8.550
22.2157 8.620
22.2309 8.656
22.2460 8.712
22.2612 8.612
22.2764 8.472
22.2916 8.354
22.3067 8.370
22.3219 8.506
22.3371 8.508
22.3523 8.517
22.3674 8.400
22.3826 8.584
22.3978 8.692
22.4130 8.876
22.4281 8.559
22.4433 8.887
22.4585 8.539
22.4737 8.520
22.4888 8.462
22.5040 8.541
22.5192 8.350
22.5344 8.693
22.5495 8.470
22.5647 8.597
22.5799 8.491
22.5951 8.681
22.6102 8.780
22.6254 8.203
22.6406 8.674
22.6558 8.336
22.6709 8.535
22.6861 8.448
22.7013 8.263
22.7165 7.997
22.7316 6.420
