'Id: "" Comment: "" Operator: "Lab Manager" Anode: "Mo" Scantype: "Still (Eiger2R_500K (1D mode))" TimePerStep: "300" X: "11.8" Y: "9.4" Z: "11.284" 
7.2532 18.679
7.2684 18.933
7.2836 18.781
7.2987 19.195
7.3139 18.870
7.3291 19.115
7.3443 19.266
7.3594 18.871
7.3746 18.992
7.3898 19.159
7.4050 19.216
7.4201 19.242
7.4353 19.266
7.4505 19.195
7.4657 19.596
7.4808 19.709
7.4960 19.523
7.5112 19.683
7.5264 19.885
7.5415 19.995
7.5567 19.587
7.5719 19.606
7.5871 19.916
7.6022 20.041
7.6174 20.176
7.6326 20.096
7.6478 20.314
7.6629 20.207
7.6781 20.136
7.6933 20.273
7.7085 20.175
7.7236 19.885
7.7388 20.153
7.7540 20.210
7.7692 20.401
7.7843 20.357
7.7995 20.196
7.8147 20.300
7.8299 20.411
7.8450 20.518
7.8602 20.766
7.8754 20.597
7.8905 20.872
7.9057 20.976
7.9209 20.725
7.9361 20.472
7.9512 20.733
7.9664 21.132
7.9816 20.907
7.9968 20.827
8.0119 20.741
8.0271 21.214
8.0423 20.964
8.0575 20.906
8.0726 21.156
8.0878 21.240
8.1030 21.122
8.1182 21.073
8.1333 21.062
8.1485 20.993
8.1637 21.269
8.1789 21.331
8.1940 21.642
8.2092 21.474
8.2244 21.530
8.2396 21.233
8.2547 21.214
8.2699 21.430
8.2851 21.431
8.3003 21.484
8.3154 21.519
8.3306 21.592
8.3458 21.270
8.3610 21.526
8.3761 21.429
8.3913 21.860
8.4065 21.851
8.4217 21.866
8.4368 21.886
8.4520 21.912
8.4672 21.958
8.4824 22.115
8.4975 21.768
8.5127 21.633
8.5279 21.388
8.5431 21.787
8.5582 22.265
8.5734 22.182
8.5886 21.890
8.6038 22.643
8.6189 22.343
8.6341 22.431
8.6493 21.731
8.6645 22.027
8.6796 22.073
8.6948 22.364
8.7100 22.635
8.7252 22.663
8.7403 21.818
8.7555 22.492
8.7707 22.390
8.7859 22.457
8.8010 22.355
8.8162 21.869
8.8314 22.387
8.8466 22.656
8.8617 22.497
8.8769 21.883
8.8921 22.453
8.9073 22.468
8.9224 22.792
8.9376 22.820
8.9528 22.513
8.9680 22.459
8.9831 22.739
8.9983 22.507
9.0135 22.719
9.0287 22.319
9.0438 22.937
9.0590 22.588
9.0742 22.686
9.0894 22.789
9.1045 22.750
9.1197 22.567
9.1349 22.691
9.1501 22.390
9.1652 22.705
9.1804 22.715
9.1956 22.735
9.2108 22.906
9.2259 23.058
9.2411 23.001
9.2563 22.660
9.2715 23.043
9.2866 22.911
9.3018 22.904
9.3170 23.186
9.3322 23.046
9.3473 23.018
9.3625 23.160
9.3777 23.287
9.3929 23.014
9.4080 22.693
9.4232 23.203
9.4384 23.110
9.4536 23.206
9.4687 23.114
9.4839 22.751
9.4991 22.933
9.5143 23.062
9.5294 23.047
9.5446 22.817
9.5598 22.800
9.5750 22.895
9.5901 23.503
9.6053 23.539
9.6205 23.228
9.6357 23.300
9.6508 23.387
9.6660 23.252
9.6812 23.476
9.6964 23.727
9.7115 23.738
9.7267 23.670
9.7419 23.705
9.7571 23.741
9.7722 23.650
9.7874 23.775
9.8026 24.050
9.8178 23.593
9.8329 23.209
9.8481 23.408
9.8633 23.499
9.8785 23.606
9.8936 23.530
9.9088 23.350
9.9240 22.958
9.9392 22.792
9.9543 22.988
9.9695 23.110
9.9847 23.104
9.9999 23.085
10.0150 23.156
10.0302 23.337
10.0454 22.904
10.0606 23.076
10.0757 23.335
10.0909 23.540
10.1061 23.642
10.1213 23.276
10.1364 23.049
10.1516 23.232
10.1668 23.127
10.1820 23.271
10.1971 23.347
10.2123 23.424
10.2275 22.999
10.2427 22.480
10.2578 22.503
10.2730 22.876
10.2882 22.939
10.3034 22.830
10.3185 22.983
10.3337 22.599
10.3489 22.476
10.3641 22.922
10.3792 23.016
10.3944 22.935
10.4096 22.707
10.4248 22.997
10.4399 23.179
10.4551 22.506
10.4703 22.558
10.4855 22.515
10.5006 22.896
10.5158 22.675
10.5310 22.556
10.5462 22.411
10.5613 22.824
10.5765 22.766
10.5917 22.550
10.6069 22.507
10.6220 22.710
10.6372 22.385
10.6524 22.269
10.6676 22.496
10.6827 22.694
10.6979 22.441
10.7131 22.461
10.7283 22.563
10.7434 22.504
10.7586 22.275
10.7738 22.239
10.7890 22.287
10.8041 21.966
10.8193 21.985
10.8345 22.185
10.8497 22.333
10.8648 22.383
10.8800 22.204
10.8952 22.072
10.9104 21.664
10.9255 21.973
10.9407 21.866
10.9559 22.039
10.9711 21.707
10.9862 22.055
11.0014 22.203
11.0166 22.064
11.0318 22.557
11.0469 22.329
11.0621 22.212
11.0773 22.316
11.0925 21.689
11.1076 21.629
11.1228 21.681
11.1380 22.066
11.1532 21.439
11.1683 21.358
11.1835 21.608
11.1987 21.396
11.2139 21.549
11.2290 21.576
11.2442 21.785
11.2594 21.691
11.2746 21.806
11.2897 21.646
11.3049 21.812
11.3201 21.747
11.3353 21.340
11.3504 21.594
11.3656 21.643
11.3808 21.650
11.3960 21.306
11.4111 21.279
11.4263 21.389
11.4415 21.361
11.4567 21.229
11.4718 21.019
11.4870 21.109
11.5022 21.273
11.5174 21.286
11.5325 21.235
11.5477 21.087
11.5629 20.883
11.5781 20.820
11.5932 20.710
11.6084 20.960
11.6236 20.682
11.6388 20.749
11.6539 20.596
11.6691 20.530
11.6843 20.777
11.6995 20.416
11.7146 20.533
11.7298 20.401
11.7450 20.109
11.7602 20.258
11.7753 20.291
11.7905 20.438
11.8057 20.022
11.8209 20.027
11.8360 20.192
11.8512 20.026
11.8664 20.045
11.8816 19.919
11.8967 19.827
11.9119 19.719
11.9271 19.426
11.9423 19.420
11.9574 19.285
11.9726 19.492
11.9878 19.512
12.0030 19.076
12.0181 18.916
12.0333 19.049
12.0485 18.754
12.0637 18.539
12.0788 18.975
12.0940 19.018
12.1092 18.806
12.1244 18.466
12.1395 18.648
12.1547 18.413
12.1699 18.600
12.1851 18.686
12.2002 18.390
12.2154 18.124
12.2306 18.012
12.2458 18.031
12.2609 17.834
12.2761 17.492
12.2913 17.506
12.3065 17.647
12.3216 17.740
12.3368 17.673
12.3520 17.394
12.3672 17.279
12.3823 17.606
12.3975 17.293
12.4127 16.879
12.4279 16.973
12.4430 17.131
12.4582 17.009
12.4734 16.629
12.4886 16.512
12.5037 16.645
12.5189 16.401
12.5341 16.256
12.5493 16.111
12.5644 15.846
12.5796 16.024
12.5948 16.413
12.6100 16.212
12.6251 15.831
12.6403 15.882
12.6555 15.944
12.6707 16.133
12.6858 15.859
12.7010 15.492
12.7162 15.517
12.7314 15.415
12.7465 15.297
12.7617 15.173
12.7769 15.302
12.7921 15.447
12.8072 15.127
12.8224 14.846
12.8376 14.727
12.8528 14.868
12.8679 14.849
12.8831 14.859
12.8983 14.843
12.9135 14.771
12.9286 14.503
12.9438 14.427
12.9590 14.421
12.9742 14.255
12.9893 14.332
13.0045 14.259
13.0197 14.055
13.0349 14.149
13.0500 14.223
13.0652 13.899
13.0804 13.791
13.0956 13.874
13.1107 13.966
13.1259 13.941
13.1411 13.582
13.1563 13.573
13.1714 13.716
13.1866 13.558
13.2018 13.495
13.2170 13.321
13.2321 13.138
13.2473 13.261
13.2625 13.271
13.2777 13.309
13.2928 13.363
13.3080 13.304
13.3232 13.237
13.3384 13.118
13.3535 12.901
13.3687 12.808
13.3839 13.127
13.3991 13.091
13.4142 12.739
13.4294 12.853
13.4446 12.827
13.4598 12.691
13.4749 12.781
13.4901 12.561
13.5053 12.434
13.5205 12.655
13.5356 12.554
13.5508 12.180
13.5660 12.291
13.5812 12.174
13.5963 12.271
13.6115 12.251
13.6267 12.162
13.6419 12.406
13.6570 12.408
13.6722 12.249
13.6874 12.002
13.7026 11.993
13.7177 11.966
13.7329 11.982
13.7481 12.015
13.7633 12.050
13.7784 12.178
13.7936 11.996
13.8088 12.115
13.8239 12.071
13.8391 12.231
13.8543 12.225
13.8695 12.220
13.8846 12.167
13.8998 12.216
13.9150 12.313
13.9302 12.131
13.9453 12.039
13.9605 11.899
13.9757 12.004
13.9909 11.898
14.0060 11.675
14.0212 11.664
14.0364 11.797
14.0516 11.759
14.0667 11.684
14.0819 11.640
14.0971 11.568
14.1123 12.013
14.1274 11.924
14.1426 11.586
14.1578 11.521
14.1730 11.881
14.1881 11.880
14.2033 12.006
14.2185 11.794
14.2337 11.741
14.2488 11.912
14.2640 12.034
14.2792 11.781
14.2944 11.740
14.3095 11.918
14.3247 12.205
14.3399 12.101
14.3551 12.383
14.3702 12.329
14.3854 12.825
14.4006 13.307
14.4158 13.410
14.4309 13.164
14.4461 12.618
14.4613 12.671
14.4765 12.698
14.4916 12.500
14.5068 11.646
14.5220 11.661
14.5372 11.592
14.5523 11.354
14.5675 11.313
14.5827 10.886
14.5979 11.007
14.6130 10.785
14.6282 10.441
14.6434 10.997
14.6586 10.876
14.6737 10.710
14.6889 10.621
14.7041 10.632
14.7193 10.727
14.7344 10.585
14.7496 10.787
14.7648 10.553
14.7800 10.455
14.7951 10.317
14.8103 10.396
14.8255 10.536
14.8407 10.535
14.8558 10.484
14.8710 10.486
14.8862 10.435
14.9014 10.650
14.9165 10.642
14.9317 10.564
14.9469 10.510
14.9621 10.442
14.9772 10.087
14.9924 10.641
15.0076 10.035
15.0228 10.310
15.0379 10.713
15.0531 10.427
15.0683 10.476
15.0835 10.372
15.0986 10.340
15.1138 10.194
15.1290 10.251
15.1442 10.270
15.1593 10.184
15.1745 10.072
15.1897 9.883
15.2049 10.312
15.2200 10.400
15.2352 9.880
15.2504 10.083
15.2656 9.920
15.2807 10.114
15.2959 9.994
15.3111 10.213
15.3263 10.060
15.3414 10.510
15.3566 10.120
15.3718 10.227
15.3870 9.884
15.4021 9.937
15.4173 10.226
15.4325 10.398
15.4477 10.286
15.4628 10.171
15.4780 10.325
15.4932 10.176
15.5084 10.026
15.5235 10.263
15.5387 9.959
15.5539 10.203
15.5691 9.799
15.5842 9.722
15.5994 9.787
15.6146 9.841
15.6298 9.856
15.6449 9.845
15.6601 9.715
15.6753 9.577
15.6905 9.934
15.7056 9.896
15.7208 10.008
15.7360 9.812
15.7512 10.086
15.7663 9.686
15.7815 9.642
15.7967 9.656
15.8119 9.619
15.8270 9.632
15.8422 9.593
15.8574 9.786
15.8726 9.428
15.8877 9.531
15.9029 9.458
15.9181 9.539
15.9333 9.940
15.9484 10.054
15.9636 9.750
15.9788 9.554
15.9940 10.003
16.0091 9.937
16.0243 9.566
16.0395 9.605
16.0547 9.523
16.0698 10.037
16.0850 9.876
16.1002 9.754
16.1154 9.671
16.1305 9.485
16.1457 9.636
16.1609 9.534
16.1761 9.655
16.1912 9.504
16.2064 9.753
16.2216 9.665
16.2368 9.635
16.2519 9.671
16.2671 9.711
16.2823 9.780
16.2975 9.575
16.3126 9.688
16.3278 9.710
16.3430 9.821
16.3582 9.683
16.3733 9.683
16.3885 9.737
16.4037 9.640
16.4189 9.916
16.4340 9.798
16.4492 9.844
16.4644 9.606
16.4796 9.570
16.4947 9.587
16.5099 9.589
16.5251 9.735
16.5403 10.013
16.5554 9.742
16.5706 9.603
16.5858 9.653
16.6010 9.344
16.6161 9.087
16.6313 9.528
16.6465 9.834
16.6617 9.621
16.6768 9.588
16.6920 9.710
16.7072 9.980
16.7224 10.016
16.7375 9.991
16.7527 9.805
16.7679 9.645
16.7831 9.877
16.7982 9.911
16.8134 10.111
16.8286 10.330
16.8438 10.017
16.8589 9.910
16.8741 9.958
16.8893 9.823
16.9045 9.891
16.9196 9.793
16.9348 9.633
16.9500 9.774
16.9652 9.880
16.9803 9.942
16.9955 10.097
17.0107 10.096
17.0259 9.904
17.0410 9.817
17.0562 9.989
17.0714 10.118
17.0866 10.297
17.1017 10.417
17.1169 10.368
17.1321 10.787
17.1473 11.224
17.1624 11.609
17.1776 12.247
17.1928 13.202
17.2080 13.945
17.2231 14.935
17.2383 16.337
17.2535 17.585
17.2687 18.362
17.2838 18.733
17.2990 18.059
17.3142 16.871
17.3294 16.206
17.3445 15.960
17.3597 16.263
17.3749 16.238
17.3901 15.419
17.4052 14.365
17.4204 13.481
17.4356 12.615
17.4508 12.002
17.4659 11.880
17.4811 11.781
17.4963 11.535
17.5115 11.390
17.5266 11.286
17.5418 11.047
17.5570 10.806
17.5722 11.110
17.5873 11.359
17.6025 11.118
17.6177 11.015
17.6329 10.926
17.6480 11.231
17.6632 11.657
17.6784 11.652
17.6936 11.427
17.7087 11.387
17.7239 11.183
17.7391 11.099
17.7543 11.301
17.7694 11.135
17.7846 10.974
17.7998 10.913
17.8150 10.981
17.8301 10.675
17.8453 10.285
17.8605 10.194
17.8757 10.256
17.8908 10.383
17.9060 10.204
17.9212 10.085
17.9364 10.096
17.9515 9.948
17.9667 9.936
17.9819 10.063
17.9971 10.162
18.0122 10.310
18.0274 10.432
18.0426 10.313
18.0578 10.300
18.0729 10.173
18.0881 10.021
18.1033 10.004
18.1185 9.899
18.1336 10.078
18.1488 9.905
18.1640 9.832
18.1792 9.971
18.1943 9.947
18.2095 9.960
18.2247 10.017
18.2399 9.991
18.2550 10.037
18.2702 9.949
18.2854 9.867
18.3006 10.001
18.3157 10.044
18.3309 9.848
18.3461 9.782
18.3613 9.829
18.3764 9.760
18.3916 9.608
18.4068 9.708
18.4220 9.978
18.4371 9.775
18.4523 9.738
18.4675 9.883
18.4827 9.810
18.4978 9.868
18.5130 9.951
18.5282 9.882
18.5434 9.595
18.5585 9.816
18.5737 9.797
18.5889 9.776
18.6041 9.632
18.6192 9.747
18.6344 9.777
18.6496 9.455
18.6648 9.581
18.6799 9.719
18.6951 9.757
18.7103 9.962
18.7255 10.095
18.7406 10.022
18.7558 9.892
18.7710 9.689
18.7862 9.650
18.8013 9.690
18.8165 9.670
18.8317 10.063
18.8469 10.042
18.8620 9.809
18.8772 9.867
18.8924 9.948
18.9076 9.918
18.9227 9.801
18.9379 10.019
18.9531 10.281
18.9683 10.042
18.9834 9.944
18.9986 9.966
19.0138 10.147
19.0290 10.059
19.0441 10.197
19.0593 10.344
19.0745 10.359
19.0897 10.175
19.1048 10.158
19.1200 10.393
19.1352 10.401
19.1504 10.290
19.1655 10.520
19.1807 10.664
19.1959 10.641
19.2111 10.663
19.2262 10.667
19.2414 10.749
19.2566 10.970
19.2718 10.793
19.2869 10.833
19.3021 11.014
19.3173 10.907
19.3325 10.656
19.3476 10.917
19.3628 11.152
19.3780 11.233
19.3932 11.204
19.4083 11.321
19.4235 11.418
19.4387 11.338
19.4539 11.439
19.4690 11.461
19.4842 11.418
19.4994 11.330
19.5146 11.382
19.5297 11.530
19.5449 11.708
19.5601 11.660
19.5753 11.453
19.5904 11.474
19.6056 11.645
19.6208 11.613
19.6360 11.473
19.6511 11.383
19.6663 11.428
19.6815 11.653
19.6967 11.569
19.7118 11.898
19.7270 11.995
19.7422 11.743
19.7574 11.944
19.7725 11.891
19.7877 11.982
19.8029 12.092
19.8180 11.879
19.8332 11.949
19.8484 12.121
19.8636 12.261
19.8787 12.562
19.8939 12.877
19.9091 13.033
19.9243 13.364
19.9394 13.834
19.9546 13.971
19.9698 14.251
19.9850 14.451
20.0001 14.242
20.0153 14.203
20.0305 14.112
20.0457 13.776
20.0608 13.793
20.0760 13.879
20.0912 13.696
20.1064 13.552
20.1215 13.632
20.1367 13.549
20.1519 13.272
20.1671 13.161
20.1822 12.830
20.1974 12.898
20.2126 12.834
20.2278 12.743
20.2429 12.615
20.2581 12.260
20.2733 12.224
20.2885 12.350
20.3036 12.143
20.3188 12.081
20.3340 12.261
20.3492 12.094
20.3643 11.813
20.3795 11.829
20.3947 11.788
20.4099 11.880
20.4250 12.060
20.4402 11.811
20.4554 11.832
20.4706 11.872
20.4857 11.870
20.5009 11.849
20.5161 11.689
20.5313 11.342
20.5464 11.467
20.5616 11.589
20.5768 11.431
20.5920 11.191
20.6071 11.034
20.6223 10.875
20.6375 10.798
20.6527 10.734
20.6678 10.687
20.6830 10.649
20.6982 10.676
20.7134 10.577
20.7285 10.432
20.7437 10.506
20.7589 10.276
20.7741 10.463
20.7892 10.538
20.8044 10.153
20.8196 10.237
20.8348 10.238
20.8499 10.432
20.8651 10.104
20.8803 10.181
20.8955 10.058
20.9106 10.125
20.9258 10.094
20.9410 10.205
20.9562 10.140
20.9713 9.869
20.9865 9.991
21.0017 10.068
21.0169 9.927
21.0320 10.385
21.0472 10.049
21.0624 10.254
21.0776 9.902
21.0927 9.799
21.1079 9.776
21.1231 9.946
21.1383 9.749
21.1534 10.123
21.1686 9.776
21.1838 9.975
21.1990 9.927
21.2141 9.709
21.2293 9.532
21.2445 9.904
21.2597 9.955
21.2748 9.982
21.2900 9.616
21.3052 9.458
21.3204 9.451
21.3355 9.605
21.3507 9.474
21.3659 9.355
21.3811 9.636
21.3962 9.355
21.4114 9.580
21.4266 9.498
21.4418 9.389
21.4569 9.408
21.4721 9.205
21.4873 9.198
21.5025 9.356
21.5176 9.337
21.5328 9.379
21.5480 9.275
21.5632 9.643
21.5783 9.421
21.5935 9.520
21.6087 9.542
21.6239 9.385
21.6390 9.373
21.6542 9.304
21.6694 9.363
21.6846 9.092
21.6997 9.192
21.7149 9.189
21.7301 9.260
21.7453 9.122
21.7604 9.253
21.7756 9.101
21.7908 9.048
21.8060 9.083
21.8211 9.236
21.8363 9.095
21.8515 9.148
21.8667 8.948
21.8818 8.975
21.8970 9.125
21.9122 9.071
21.9274 9.063
21.9425 8.989
21.9577 8.944
21.9729 8.988
21.9881 9.012
22.0032 8.861
22.0184 8.716
22.0336 8.714
22.0488 8.825
22.0639 8.742
22.0791 8.742
22.0943 8.876
22.1095 8.812
22.1246 8.808
22.1398 8.715
22.1550 8.625
22.1702 8.598
22.1853 8.527
22.2005 8.556
22.2157 8.498
22.2309 8.667
22.2460 8.619
22.2612 8.653
22.2764 8.477
22.2916 8.424
22.3067 8.711
22.3219 8.732
22.3371 8.654
22.3523 8.624
22.3674 8.514
22.3826 8.380
22.3978 8.314
22.4130 8.389
22.4281 8.685
22.4433 8.593
22.4585 8.412
22.4737 8.384
22.4888 8.521
22.5040 8.411
22.5192 8.400
22.5344 8.489
22.5495 8.384
22.5647 8.102
22.5799 8.393
22.5951 8.525
22.6102 8.385
22.6254 8.480
22.6406 8.257
22.6558 8.038
22.6709 8.660
22.6861 8.358
22.7013 8.273
22.7165 7.922
22.7316 6.416
