'Id: "" Comment: "" Operator: "Lab Manager" Anode: "Mo" Scantype: "Still (Eiger2R_500K (1D mode))" TimePerStep: "300" X: "11.8" Y: "9.4" Z: "11.284" 
7.2532 19.484
7.2684 18.784
7.2836 19.063
7.2987 18.839
7.3139 19.068
7.3291 18.959
7.3443 19.014
7.3594 19.152
7.3746 19.120
7.3898 19.031
7.4050 19.829
7.4201 19.497
7.4353 19.239
7.4505 19.410
7.4657 19.289
7.4808 19.568
7.4960 19.414
7.5112 19.622
7.5264 20.007
7.5415 19.856
7.5567 19.646
7.5719 20.053
7.5871 19.627
7.6022 19.902
7.6174 19.992
7.6326 19.994
7.6478 19.938
7.6629 19.956
7.6781 20.220
7.6933 20.365
7.7085 20.215
7.7236 20.175
7.7388 20.259
7.7540 20.500
7.7692 20.400
7.7843 20.134
7.7995 20.253
7.8147 20.322
7.8299 20.301
7.8450 20.355
7.8602 20.493
7.8754 20.421
7.8905 20.545
7.9057 20.788
7.9209 20.681
7.9361 20.760
7.9512 20.909
7.9664 20.875
7.9816 20.875
7.9968 20.891
8.0119 21.121
8.0271 21.110
8.0423 21.038
8.0575 21.002
8.0726 20.939
8.0878 21.032
8.1030 21.122
8.1182 21.168
8.1333 21.292
8.1485 21.130
8.1637 21.566
8.1789 21.026
8.1940 21.126
8.2092 21.667
8.2244 21.457
8.2396 21.381
8.2547 21.597
8.2699 21.305
8.2851 21.891
8.3003 21.381
8.3154 21.382
8.3306 21.463
8.3458 21.531
8.3610 21.740
8.3761 21.395
8.3913 21.490
8.4065 21.685
8.4217 20.926
8.4368 21.392
8.4520 22.040
8.4672 21.783
8.4824 22.091
8.4975 21.554
8.5127 22.042
8.5279 22.016
8.5431 21.818
8.5582 22.347
8.5734 21.776
8.5886 22.200
8.6038 22.554
8.6189 21.898
8.6341 21.979
8.6493 22.226
8.6645 21.738
8.6796 22.046
8.6948 22.004
8.7100 22.454
8.7252 22.419
8.7403 22.360
8.7555 22.029
8.7707 22.465
8.7859 22.168
8.8010 22.168
8.8162 22.036
8.8314 22.757
8.8466 22.774
8.8617 22.555
8.8769 22.625
8.8921 22.545
8.9073 22.251
8.9224 22.708
8.9376 22.229
8.9528 22.503
8.9680 22.612
8.9831 22.636
8.9983 22.293
9.0135 22.225
9.0287 22.386
9.0438 22.579
9.0590 22.960
9.0742 22.562
9.0894 22.371
9.1045 22.823
9.1197 22.630
9.1349 22.509
9.1501 22.335
9.1652 22.748
9.1804 22.929
9.1956 22.979
9.2108 23.070
9.2259 23.080
9.2411 22.877
9.2563 23.114
9.2715 23.063
9.2866 22.965
9.3018 22.751
9.3170 22.814
9.3322 22.953
9.3473 23.435
9.3625 23.019
9.3777 22.810
9.3929 23.144
9.4080 23.003
9.4232 22.941
9.4384 22.966
9.4536 22.943
9.4687 22.990
9.4839 22.936
9.4991 22.969
9.5143 23.325
9.5294 23.180
9.5446 22.945
9.5598 23.196
9.5750 23.249
9.5901 22.947
9.6053 22.968
9.6205 23.174
9.6357 23.281
9.6508 23.427
9.6660 23.375
9.6812 23.609
9.6964 23.735
9.7115 23.890
9.7267 24.126
9.7419 24.044
9.7571 23.961
9.7722 23.891
9.7874 23.427
9.8026 23.041
9.8178 23.209
9.8329 23.436
9.8481 23.215
9.8633 23.280
9.8785 23.250
9.8936 23.185
9.9088 23.073
9.9240 23.195
9.9392 23.178
9.9543 23.139
9.9695 23.084
9.9847 23.059
9.9999 23.398
10.0150 23.219
10.0302 23.031
10.0454 22.924
10.0606 22.636
10.0757 23.042
10.0909 23.094
10.1061 22.843
10.1213 23.193
10.1364 23.435
10.1516 23.438
10.1668 23.565
10.1820 23.201
10.1971 23.003
10.2123 22.894
10.2275 22.757
10.2427 22.868
10.2578 22.790
10.2730 22.874
10.2882 22.724
10.3034 22.392
10.3185 22.350
10.3337 22.759
10.3489 22.478
10.3641 22.554
10.3792 22.703
10.3944 22.496
10.4096 22.534
10.4248 23.011
10.4399 22.759
10.4551 22.495
10.4703 22.700
10.4855 22.832
10.5006 22.485
10.5158 22.172
10.5310 22.210
10.5462 22.618
10.5613 22.350
10.5765 22.348
10.5917 22.862
10.6069 22.705
10.6220 22.168
10.6372 22.129
10.6524 22.076
10.6676 22.344
10.6827 22.736
10.6979 22.394
10.7131 22.415
10.7283 22.545
10.7434 22.363
10.7586 22.375
10.7738 22.502
10.7890 22.395
10.8041 22.212
10.8193 22.088
10.8345 22.162
10.8497 22.104
10.8648 22.190
10.8800 22.049
10.8952 22.071
10.9104 22.024
10.9255 21.976
10.9407 21.977
10.9559 22.053
10.9711 21.798
10.9862 22.089
11.0014 21.814
11.0166 21.812
11.0318 21.927
11.0469 21.865
11.0621 21.812
11.0773 21.727
11.0925 21.745
11.1076 22.049
11.1228 21.668
11.1380 21.590
11.1532 21.875
11.1683 21.735
11.1835 21.466
11.1987 21.538
11.2139 21.631
11.2290 22.202
11.2442 22.025
11.2594 21.794
11.2746 21.326
11.2897 21.561
11.3049 21.353
11.3201 21.379
11.3353 21.330
11.3504 21.327
11.3656 21.555
11.3808 21.383
11.3960 21.078
11.4111 21.440
11.4263 21.692
11.4415 21.534
11.4567 20.789
11.4718 20.976
11.4870 21.338
11.5022 21.405
11.5174 21.119
11.5325 20.953
11.5477 21.141
11.5629 21.085
11.5781 21.192
11.5932 20.765
11.6084 20.333
11.6236 20.457
11.6388 20.784
11.6539 20.926
11.6691 20.466
11.6843 20.489
11.6995 20.616
11.7146 20.579
11.7298 20.697
11.7450 20.432
11.7602 20.223
11.7753 20.064
11.7905 19.944
11.8057 19.966
11.8209 20.157
11.8360 20.129
11.8512 19.783
11.8664 19.618
11.8816 19.576
11.8967 19.493
11.9119 19.388
11.9271 19.098
11.9423 19.240
11.9574 19.740
11.9726 19.245
11.9878 19.257
12.0030 19.070
12.0181 18.798
12.0333 19.060
12.0485 18.974
12.0637 18.809
12.0788 18.897
12.0940 19.045
12.1092 18.975
12.1244 18.653
12.1395 18.588
12.1547 18.693
12.1699 18.573
12.1851 18.253
12.2002 18.043
12.2154 17.882
12.2306 18.031
12.2458 17.954
12.2609 17.887
12.2761 17.493
12.2913 17.354
12.3065 17.532
12.3216 17.449
12.3368 17.460
12.3520 17.298
12.3672 17.332
12.3823 17.273
12.3975 17.521
12.4127 17.214
12.4279 16.808
12.4430 16.761
12.4582 17.002
12.4734 16.951
12.4886 16.565
12.5037 16.918
12.5189 17.089
12.5341 16.734
12.5493 16.747
12.5644 16.722
12.5796 16.470
12.5948 16.363
12.6100 16.266
12.6251 16.046
12.6403 15.939
12.6555 15.928
12.6707 16.052
12.6858 15.967
12.7010 15.832
12.7162 15.680
12.7314 15.572
12.7465 15.576
12.7617 15.335
12.7769 15.308
12.7921 15.213
12.8072 15.078
12.8224 15.258
12.8376 14.917
12.8528 14.652
12.8679 14.876
12.8831 15.124
12.8983 14.991
12.9135 14.759
12.9286 14.563
12.9438 14.453
12.9590 14.318
12.9742 14.443
12.9893 14.503
13.0045 14.338
13.0197 14.172
13.0349 13.976
13.0500 14.013
13.0652 14.023
13.0804 13.895
13.0956 14.010
13.1107 13.939
13.1259 13.779
13.1411 13.903
13.1563 13.928
13.1714 13.680
13.1866 13.405
13.2018 13.456
13.2170 13.523
13.2321 13.392
13.2473 13.237
13.2625 13.259
13.2777 13.369
13.2928 13.226
13.3080 13.117
13.3232 13.102
13.3384 12.852
13.3535 12.857
13.3687 13.254
13.3839 13.250
13.3991 13.078
13.4142 13.229
13.4294 13.161
13.4446 12.942
13.4598 12.779
13.4749 12.954
13.4901 12.975
13.5053 12.619
13.5205 12.402
13.5356 12.440
13.5508 12.330
13.5660 12.189
13.5812 12.087
13.5963 12.171
13.6115 12.441
13.6267 12.414
13.6419 12.304
13.6570 12.120
13.6722 12.005
13.6874 11.979
13.7026 12.108
13.7177 12.367
13.7329 11.985
13.7481 11.799
13.7633 11.990
13.7784 12.451
13.7936 12.349
13.8088 12.153
13.8239 12.190
13.8391 12.411
13.8543 12.222
13.8695 12.063
13.8846 12.313
13.8998 12.243
13.9150 12.015
13.9302 11.970
13.9453 11.946
13.9605 11.782
13.9757 11.837
13.9909 11.811
14.0060 11.573
14.0212 11.698
14.0364 11.832
14.0516 11.801
14.0667 11.774
14.0819 11.427
14.0971 11.700
14.1123 11.569
14.1274 11.264
14.1426 11.435
14.1578 11.760
14.1730 11.772
14.1881 11.804
14.2033 11.664
14.2185 11.647
14.2337 11.856
14.2488 11.824
14.2640 12.027
14.2792 11.769
14.2944 11.887
14.3095 12.095
14.3247 12.273
14.3399 12.046
14.3551 12.565
14.3702 12.446
14.3854 13.117
14.4006 13.129
14.4158 13.127
14.4309 12.828
14.4461 12.706
14.4613 12.468
14.4765 12.552
14.4916 12.052
14.5068 12.005
14.5220 11.961
14.5372 11.333
14.5523 11.389
14.5675 11.553
14.5827 10.991
14.5979 11.157
14.6130 10.992
14.6282 10.946
14.6434 10.770
14.6586 10.860
14.6737 10.839
14.6889 10.888
14.7041 10.774
14.7193 10.334
14.7344 10.692
14.7496 10.751
14.7648 10.963
14.7800 10.478
14.7951 10.625
14.8103 10.348
14.8255 10.430
14.8407 10.592
14.8558 10.475
14.8710 10.387
14.8862 10.642
14.9014 10.818
14.9165 10.795
14.9317 10.709
14.9469 10.590
14.9621 10.460
14.9772 10.417
14.9924 10.443
15.0076 10.042
15.0228 10.328
15.0379 10.136
15.0531 10.499
15.0683 10.393
15.0835 10.414
15.0986 10.351
15.1138 10.314
15.1290 10.209
15.1442 10.239
15.1593 10.171
15.1745 10.176
15.1897 10.120
15.2049 9.889
15.2200 10.327
15.2352 10.090
15.2504 10.515
15.2656 10.033
15.2807 10.363
15.2959 9.940
15.3111 10.330
15.3263 10.079
15.3414 9.730
15.3566 10.477
15.3718 10.009
15.3870 10.178
15.4021 10.136
15.4173 10.335
15.4325 10.101
15.4477 10.260
15.4628 10.123
15.4780 10.355
15.4932 10.202
15.5084 9.933
15.5235 9.749
15.5387 10.182
15.5539 9.990
15.5691 9.795
15.5842 9.750
15.5994 9.920
15.6146 9.731
15.6298 9.782
15.6449 9.698
15.6601 9.587
15.6753 9.911
15.6905 9.499
15.7056 9.768
15.7208 9.689
15.7360 9.951
15.7512 9.813
15.7663 9.668
15.7815 10.010
15.7967 9.688
15.8119 9.887
15.8270 9.946
15.8422 9.733
15.8574 9.631
15.8726 9.638
15.8877 9.644
15.9029 9.592
15.9181 9.397
15.9333 9.762
15.9484 9.739
15.9636 9.352
15.9788 9.621
15.9940 9.655
16.0091 9.492
16.0243 9.839
16.0395 9.796
16.0547 9.661
16.0698 9.599
16.0850 9.508
16.1002 9.587
16.1154 9.545
16.1305 9.506
16.1457 9.455
16.1609 9.592
16.1761 9.632
16.1912 9.472
16.2064 9.619
16.2216 9.653
16.2368 9.920
16.2519 9.769
16.2671 9.853
16.2823 9.829
16.2975 9.885
16.3126 9.701
16.3278 9.554
16.3430 9.529
16.3582 10.080
16.3733 9.812
16.3885 10.024
16.4037 9.974
16.4189 9.890
16.4340 9.764
16.4492 9.732
16.4644 9.630
16.4796 9.459
16.4947 9.425
16.5099 9.777
16.5251 10.049
16.5403 9.915
16.5554 9.655
16.5706 9.644
16.5858 9.711
16.6010 9.642
16.6161 9.573
16.6313 9.658
16.6465 9.713
16.6617 9.715
16.6768 9.813
16.6920 9.883
16.7072 9.723
16.7224 9.915
16.7375 10.049
16.7527 9.787
16.7679 9.916
16.7831 9.997
16.7982 10.116
16.8134 10.078
16.8286 9.732
16.8438 9.580
16.8589 9.664
16.8741 9.906
16.8893 9.916
16.9045 9.828
16.9196 9.793
16.9348 9.786
16.9500 9.684
16.9652 9.871
16.9803 9.896
16.9955 9.967
17.0107 9.918
17.0259 9.852
17.0410 10.091
17.0562 10.154
17.0714 10.296
17.0866 10.235
17.1017 10.483
17.1169 10.874
17.1321 10.839
17.1473 11.293
17.1624 11.810
17.1776 12.133
17.1928 12.932
17.2080 13.865
17.2231 14.800
17.2383 16.164
17.2535 17.622
17.2687 18.332
17.2838 18.536
17.2990 17.900
17.3142 16.927
17.3294 16.381
17.3445 16.178
17.3597 16.087
17.3749 15.734
17.3901 15.218
17.4052 14.291
17.4204 13.525
17.4356 12.780
17.4508 12.098
17.4659 12.018
17.4811 11.863
17.4963 11.614
17.5115 11.263
17.5266 10.986
17.5418 10.829
17.5570 10.811
17.5722 11.216
17.5873 11.307
17.6025 11.127
17.6177 11.087
17.6329 11.120
17.6480 11.336
17.6632 11.482
17.6784 11.614
17.6936 11.741
17.7087 11.427
17.7239 11.167
17.7391 10.955
17.7543 10.697
17.7694 10.820
17.7846 10.842
17.7998 10.727
17.8150 10.582
17.8301 10.461
17.8453 10.470
17.8605 10.206
17.8757 10.374
17.8908 10.586
17.9060 10.388
17.9212 10.415
17.9364 10.321
17.9515 10.089
17.9667 10.199
17.9819 10.216
17.9971 10.157
18.0122 10.189
18.0274 10.156
18.0426 10.011
18.0578 9.879
18.0729 9.985
18.0881 9.986
18.1033 10.011
18.1185 10.078
18.1336 10.087
18.1488 9.977
18.1640 9.966
18.1792 9.968
18.1943 9.959
18.2095 9.905
18.2247 9.846
18.2399 9.732
18.2550 9.848
18.2702 9.904
18.2854 10.182
18.3006 10.100
18.3157 9.947
18.3309 9.950
18.3461 9.756
18.3613 9.667
18.3764 9.800
18.3916 9.919
18.4068 9.864
18.4220 9.844
18.4371 9.712
18.4523 9.898
18.4675 9.820
18.4827 9.742
18.4978 9.647
18.5130 9.638
18.5282 9.798
18.5434 9.763
18.5585 9.760
18.5737 9.678
18.5889 9.629
18.6041 9.568
18.6192 9.517
18.6344 9.779
18.6496 9.993
18.6648 9.802
18.6799 9.617
18.6951 9.791
18.7103 9.901
18.7255 9.837
18.7406 9.631
18.7558 9.717
18.7710 9.836
18.7862 9.749
18.8013 9.736
18.8165 9.784
18.8317 9.867
18.8469 9.802
18.8620 9.747
18.8772 9.940
18.8924 10.184
18.9076 10.044
18.9227 10.040
18.9379 9.841
18.9531 10.157
18.9683 10.113
18.9834 10.006
18.9986 10.166
19.0138 10.073
19.0290 10.266
19.0441 10.040
19.0593 9.978
19.0745 10.152
19.0897 10.226
19.1048 10.117
19.1200 10.231
19.1352 10.376
19.1504 10.518
19.1655 10.495
19.1807 10.499
19.1959 10.645
19.2111 10.717
19.2262 10.872
19.2414 11.101
19.2566 11.024
19.2718 10.842
19.2869 10.782
19.3021 10.967
19.3173 10.963
19.3325 10.889
19.3476 10.853
19.3628 11.052
19.3780 11.133
19.3932 10.992
19.4083 11.090
19.4235 11.274
19.4387 11.231
19.4539 11.230
19.4690 11.294
19.4842 11.291
19.4994 11.279
19.5146 11.335
19.5297 11.365
19.5449 11.500
19.5601 11.546
19.5753 11.559
19.5904 11.578
19.6056 11.657
19.6208 11.678
19.6360 11.551
19.6511 11.615
19.6663 11.502
19.6815 11.535
19.6967 11.657
19.7118 11.417
19.7270 11.680
19.7422 11.900
19.7574 11.816
19.7725 11.859
19.7877 11.763
19.8029 11.747
19.8180 12.088
19.8332 12.294
19.8484 12.362
19.8636 12.478
19.8787 12.540
19.8939 13.029
19.9091 13.282
19.9243 13.462
19.9394 13.912
19.9546 14.207
19.9698 14.437
19.9850 14.484
20.0001 14.599
20.0153 14.405
20.0305 14.082
20.0457 13.930
20.0608 13.702
20.0760 13.790
20.0912 13.840
20.1064 13.463
20.1215 13.271
20.1367 13.295
20.1519 13.266
20.1671 13.152
20.1822 12.853
20.1974 12.649
20.2126 12.897
20.2278 12.996
20.2429 12.856
20.2581 12.316
20.2733 12.025
20.2885 12.027
20.3036 12.184
20.3188 12.072
20.3340 11.646
20.3492 12.054
20.3643 11.895
20.3795 11.905
20.3947 11.959
20.4099 11.954
20.4250 11.895
20.4402 11.914
20.4554 11.877
20.4706 11.765
20.4857 11.785
20.5009 11.699
20.5161 11.686
20.5313 11.530
20.5464 11.536
20.5616 11.589
20.5768 11.292
20.5920 11.114
20.6071 11.115
20.6223 10.982
20.6375 11.028
20.6527 10.814
20.6678 10.795
20.6830 10.534
20.6982 10.399
20.7134 10.467
20.7285 10.302
20.7437 10.603
20.7589 10.373
20.7741 10.034
20.7892 10.549
20.8044 10.401
20.8196 10.355
20.8348 10.279
20.8499 10.140
20.8651 10.285
20.8803 9.879
20.8955 10.143
20.9106 10.291
20.9258 10.000
20.9410 10.200
20.9562 9.873
20.9713 9.998
20.9865 10.342
21.0017 10.322
21.0169 10.103
21.0320 9.988
21.0472 9.961
21.0624 9.724
21.0776 10.055
21.0927 9.851
21.1079 9.878
21.1231 10.156
21.1383 9.983
21.1534 9.731
21.1686 9.624
21.1838 9.812
21.1990 9.787
21.2141 9.631
21.2293 9.447
21.2445 9.758
21.2597 9.602
21.2748 9.438
21.2900 9.467
21.3052 9.643
21.3204 9.605
21.3355 9.329
21.3507 9.550
21.3659 9.310
21.3811 9.600
21.3962 9.568
21.4114 9.166
21.4266 9.275
21.4418 9.361
21.4569 9.342
21.4721 9.723
21.4873 9.356
21.5025 9.216
21.5176 9.362
21.5328 9.469
21.5480 9.179
21.5632 9.164
21.5783 9.374
21.5935 9.346
21.6087 9.208
21.6239 9.114
21.6390 9.048
21.6542 9.357
21.6694 9.184
21.6846 9.233
21.6997 9.449
21.7149 9.193
21.7301 9.158
21.7453 9.154
21.7604 8.842
21.7756 8.981
21.7908 9.145
21.8060 9.015
21.8211 8.899
21.8363 8.869
21.8515 8.844
21.8667 9.050
21.8818 8.995
21.8970 9.001
21.9122 9.051
21.9274 8.923
21.9425 8.998
21.9577 9.023
21.9729 8.885
21.9881 8.907
22.0032 9.052
22.0184 8.852
22.0336 8.860
22.0488 8.937
22.0639 8.718
22.0791 8.641
22.0943 8.861
22.1095 8.901
22.1246 8.876
22.1398 8.755
22.1550 8.624
22.1702 8.770
22.1853 8.790
22.2005 8.816
22.2157 8.757
22.2309 8.519
22.2460 8.566
22.2612 8.646
22.2764 8.658
22.2916 8.556
22.3067 8.587
22.3219 8.529
22.3371 8.522
22.3523 8.459
22.3674 8.607
22.3826 8.368
22.3978 8.596
22.4130 8.513
22.4281 8.665
22.4433 8.604
22.4585 8.259
22.4737 8.370
22.4888 8.611
22.5040 8.762
22.5192 8.083
22.5344 8.337
22.5495 8.337
22.5647 8.525
22.5799 8.394
22.5951 8.441
22.6102 8.520
22.6254 8.150
22.6406 8.567
22.6558 8.336
22.6709 8.097
22.6861 8.505
22.7013 8.541
22.7165 8.027
22.7316 6.339
