'Id: "" Comment: "" Operator: "Lab Manager" Anode: "Mo" Scantype: "Still (Eiger2R_500K (1D mode))" TimePerStep: "300" X: "11.8" Y: "9.4" Z: "11.284" 
7.2532 18.607
7.2684 18.945
7.2836 18.782
7.2987 18.846
7.3139 18.836
7.3291 19.136
7.3443 19.376
7.3594 19.219
7.3746 19.563
7.3898 19.526
7.4050 19.087
7.4201 19.404
7.4353 19.660
7.4505 19.625
7.4657 19.826
7.4808 20.106
7.4960 20.162
7.5112 19.705
7.5264 19.880
7.5415 19.755
7.5567 19.715
7.5719 20.027
7.5871 20.243
7.6022 20.368
7.6174 20.368
7.6326 20.296
7.6478 20.063
7.6629 20.113
7.6781 20.363
7.6933 20.120
7.7085 20.209
7.7236 20.413
7.7388 20.496
7.7540 20.155
7.7692 20.587
7.7843 20.787
7.7995 20.619
7.8147 21.066
7.8299 21.157
7.8450 21.115
7.8602 21.009
7.8754 21.104
7.8905 21.277
7.9057 21.306
7.9209 21.340
7.9361 21.044
7.9512 20.927
7.9664 21.030
7.9816 21.271
7.9968 21.291
8.0119 21.144
8.0271 21.196
8.0423 21.162
8.0575 20.954
8.0726 21.130
8.0878 21.051
8.1030 21.256
8.1182 21.267
8.1333 20.984
8.1485 21.333
8.1637 21.157
8.1789 21.131
8.1940 21.738
8.2092 21.628
8.2244 21.359
8.2396 21.680
8.2547 21.337
8.2699 21.610
8.2851 21.309
8.3003 21.626
8.3154 21.922
8.3306 21.935
8.3458 21.548
8.3610 21.166
8.3761 21.596
8.3913 21.733
8.4065 22.264
8.4217 22.081
8.4368 22.548
8.4520 22.335
8.4672 22.651
8.4824 22.179
8.4975 21.777
8.5127 22.055
8.5279 22.149
8.5431 22.450
8.5582 22.751
8.5734 22.687
8.5886 22.939
8.6038 22.263
8.6189 21.806
8.6341 22.119
8.6493 22.531
8.6645 22.628
8.6796 22.507
8.6948 22.589
8.7100 22.711
8.7252 22.974
8.7403 22.604
8.7555 23.107
8.7707 22.620
8.7859 22.252
8.8010 22.454
8.8162 22.618
8.8314 22.432
8.8466 22.671
8.8617 22.546
8.8769 22.476
8.8921 23.160
8.9073 22.615
8.9224 23.011
8.9376 22.651
8.9528 22.374
8.9680 22.595
8.9831 22.691
8.9983 23.071
9.0135 22.963
9.0287 23.090
9.0438 22.892
9.0590 22.921
9.0742 23.022
9.0894 22.615
9.1045 22.846
9.1197 23.024
9.1349 23.139
9.1501 22.908
9.1652 23.205
9.1804 22.936
9.1956 23.021
9.2108 23.338
9.2259 23.553
9.2411 23.168
9.2563 23.347
9.2715 23.564
9.2866 23.498
9.3018 23.114
9.3170 23.019
9.3322 23.270
9.3473 23.374
9.3625 23.247
9.3777 23.168
9.3929 23.350
9.4080 23.458
9.4232 23.549
9.4384 23.402
9.4536 23.162
9.4687 23.418
9.4839 22.945
9.4991 22.741
9.5143 23.169
9.5294 23.234
9.5446 23.369
9.5598 23.703
9.5750 23.492
9.5901 23.342
9.6053 23.267
9.6205 23.303
9.6357 23.554
9.6508 23.590
9.6660 23.524
9.6812 23.787
9.6964 23.854
9.7115 24.081
9.7267 24.292
9.7419 24.067
9.7571 23.898
9.7722 23.890
9.7874 24.308
9.8026 24.150
9.8178 23.903
9.8329 24.020
9.8481 23.591
9.8633 23.307
9.8785 23.390
9.8936 23.315
9.9088 23.433
9.9240 23.311
9.9392 23.264
9.9543 23.506
9.9695 23.257
9.9847 23.190
9.9999 23.631
10.0150 23.608
10.0302 23.347
10.0454 23.482
10.0606 23.579
10.0757 23.452
10.0909 23.650
10.1061 23.437
10.1213 23.162
10.1364 23.218
10.1516 23.571
10.1668 23.753
10.1820 23.746
10.1971 23.733
10.2123 23.605
10.2275 23.584
10.2427 23.807
10.2578 23.713
10.2730 23.473
10.2882 23.219
10.3034 22.973
10.3185 23.015
10.3337 23.052
10.3489 22.869
10.3641 23.003
10.3792 22.984
10.3944 23.085
10.4096 23.040
10.4248 22.993
10.4399 22.717
10.4551 22.608
10.4703 23.063
10.4855 22.743
10.5006 22.648
10.5158 22.596
10.5310 22.963
10.5462 22.996
10.5613 22.460
10.5765 22.478
10.5917 22.541
10.6069 22.642
10.6220 22.458
10.6372 22.517
10.6524 22.595
10.6676 22.560
10.6827 22.343
10.6979 22.512
10.7131 22.490
10.7283 22.398
10.7434 22.525
10.7586 22.748
10.7738 22.689
10.7890 22.604
10.8041 22.686
10.8193 22.516
10.8345 22.594
10.8497 22.775
10.8648 22.410
10.8800 22.286
10.8952 22.472
10.9104 22.395
10.9255 22.157
10.9407 22.011
10.9559 22.083
10.9711 22.285
10.9862 22.069
11.0014 22.218
11.0166 22.202
11.0318 22.463
11.0469 22.322
11.0621 22.021
11.0773 21.978
11.0925 22.124
11.1076 22.170
11.1228 21.714
11.1380 21.675
11.1532 21.661
11.1683 21.985
11.1835 22.286
11.1987 21.809
11.2139 22.039
11.2290 21.966
11.2442 22.176
11.2594 21.961
11.2746 22.075
11.2897 21.821
11.3049 21.558
11.3201 22.104
11.3353 22.065
11.3504 21.548
11.3656 21.485
11.3808 21.314
11.3960 21.298
11.4111 21.368
11.4263 21.734
11.4415 21.607
11.4567 21.115
11.4718 21.327
11.4870 21.579
11.5022 21.055
11.5174 21.293
11.5325 21.509
11.5477 21.329
11.5629 21.477
11.5781 20.883
11.5932 20.719
11.6084 20.878
11.6236 20.883
11.6388 20.787
11.6539 20.652
11.6691 20.236
11.6843 20.522
11.6995 20.816
11.7146 20.591
11.7298 20.429
11.7450 20.328
11.7602 20.173
11.7753 20.077
11.7905 19.873
11.8057 20.334
11.8209 20.227
11.8360 20.097
11.8512 19.843
11.8664 19.926
11.8816 19.988
11.8967 19.730
11.9119 19.650
11.9271 19.927
11.9423 19.664
11.9574 19.418
11.9726 19.206
11.9878 19.464
12.0030 19.392
12.0181 19.373
12.0333 19.235
12.0485 19.264
12.0637 19.173
12.0788 18.850
12.0940 18.822
12.1092 18.499
12.1244 18.733
12.1395 18.863
12.1547 18.954
12.1699 18.792
12.1851 18.699
12.2002 18.414
12.2154 18.285
12.2306 18.240
12.2458 18.096
12.2609 18.509
12.2761 17.934
12.2913 17.968
12.3065 18.187
12.3216 17.895
12.3368 17.696
12.3520 17.630
12.3672 17.218
12.3823 17.323
12.3975 17.294
12.4127 17.456
12.4279 17.403
12.4430 17.064
12.4582 17.094
12.4734 17.227
12.4886 17.076
12.5037 16.896
12.5189 16.840
12.5341 16.736
12.5493 16.707
12.5644 16.199
12.5796 16.394
12.5948 16.579
12.6100 16.430
12.6251 16.516
12.6403 16.369
12.6555 15.982
12.6707 15.860
12.6858 16.164
12.7010 16.171
12.7162 15.782
12.7314 15.570
12.7465 15.562
12.7617 15.599
12.7769 15.489
12.7921 15.148
12.8072 15.305
12.8224 15.487
12.8376 15.363
12.8528 15.167
12.8679 14.953
12.8831 14.836
12.8983 14.854
12.9135 14.981
12.9286 14.876
12.9438 14.802
12.9590 14.757
12.9742 14.676
12.9893 14.527
13.0045 14.653
13.0197 14.673
13.0349 14.174
13.0500 14.065
13.0652 14.217
13.0804 14.194
13.0956 14.074
13.1107 13.987
13.1259 13.858
13.1411 13.730
13.1563 13.822
13.1714 13.875
13.1866 13.672
13.2018 13.616
13.2170 13.886
13.2321 13.918
13.2473 13.739
13.2625 13.381
13.2777 13.195
13.2928 13.413
13.3080 13.437
13.3232 13.354
13.3384 13.329
13.3535 13.224
13.3687 13.055
13.3839 13.081
13.3991 12.966
13.4142 12.995
13.4294 12.984
13.4446 12.720
13.4598 12.566
13.4749 12.373
13.4901 12.727
13.5053 12.862
13.5205 12.687
13.5356 12.495
13.5508 12.441
13.5660 12.468
13.5812 12.412
13.5963 12.349
13.6115 12.448
13.6267 12.606
13.6419 12.443
13.6570 12.264
13.6722 12.395
13.6874 12.237
13.7026 12.090
13.7177 12.024
13.7329 11.955
13.7481 12.129
13.7633 12.175
13.7784 12.326
13.7936 12.366
13.8088 12.164
13.8239 12.190
13.8391 12.333
13.8543 12.669
13.8695 12.729
13.8846 12.422
13.8998 12.709
13.9150 12.222
13.9302 11.975
13.9453 12.111
13.9605 12.095
13.9757 11.630
13.9909 11.767
14.0060 11.907
14.0212 11.542
14.0364 11.533
14.0516 11.739
14.0667 11.681
14.0819 11.545
14.0971 11.612
14.1123 11.500
14.1274 11.567
14.1426 11.693
14.1578 11.639
14.1730 11.771
14.1881 11.920
14.2033 11.537
14.2185 11.837
14.2337 11.768
14.2488 11.710
14.2640 12.030
14.2792 11.768
14.2944 11.826
14.3095 11.696
14.3247 12.057
14.3399 12.387
14.3551 12.241
14.3702 12.280
14.3854 12.601
14.4006 12.713
14.4158 12.519
14.4309 12.488
14.4461 12.379
14.4613 12.183
14.4765 12.277
14.4916 12.216
14.5068 11.677
14.5220 11.441
14.5372 10.982
14.5523 11.002
14.5675 11.038
14.5827 11.425
14.5979 11.162
14.6130 10.933
14.6282 11.186
14.6434 11.440
14.6586 10.957
14.6737 11.001
14.6889 10.833
14.7041 10.977
14.7193 10.793
14.7344 10.936
14.7496 10.984
14.7648 10.754
14.7800 10.759
14.7951 11.023
14.8103 10.522
14.8255 10.784
14.8407 11.100
14.8558 10.720
14.8710 10.492
14.8862 10.960
14.9014 10.934
14.9165 11.039
14.9317 11.024
14.9469 10.918
14.9621 10.757
14.9772 10.253
14.9924 10.591
15.0076 10.869
15.0228 10.588
15.0379 10.380
15.0531 10.678
15.0683 10.659
15.0835 10.306
15.0986 10.300
15.1138 10.351
15.1290 10.510
15.1442 10.254
15.1593 10.423
15.1745 10.389
15.1897 10.370
15.2049 10.254
15.2200 10.413
15.2352 10.339
15.2504 10.297
15.2656 10.160
15.2807 10.327
15.2959 10.342
15.3111 10.654
15.3263 10.183
15.3414 10.382
15.3566 10.472
15.3718 10.397
15.3870 10.066
15.4021 10.545
15.4173 10.522
15.4325 10.715
15.4477 10.572
15.4628 10.296
15.4780 10.460
15.4932 10.207
15.5084 10.233
15.5235 10.513
15.5387 10.385
15.5539 10.441
15.5691 10.353
15.5842 10.305
15.5994 10.457
15.6146 9.716
15.6298 10.037
15.6449 10.095
15.6601 9.674
15.6753 9.893
15.6905 9.960
15.7056 9.952
15.7208 10.169
15.7360 10.023
15.7512 9.938
15.7663 9.944
15.7815 9.644
15.7967 9.890
15.8119 10.012
15.8270 9.992
15.8422 10.017
15.8574 9.887
15.8726 9.830
15.8877 9.868
15.9029 9.922
15.9181 9.785
15.9333 9.636
15.9484 9.973
15.9636 9.683
15.9788 10.015
15.9940 10.289
16.0091 10.039
16.0243 9.847
16.0395 9.954
16.0547 9.825
16.0698 9.957
16.0850 9.958
16.1002 9.846
16.1154 9.869
16.1305 9.755
16.1457 9.916
16.1609 9.806
16.1761 9.680
16.1912 9.890
16.2064 9.821
16.2216 9.804
16.2368 10.027
16.2519 9.881
16.2671 9.797
16.2823 10.018
16.2975 10.041
16.3126 9.886
16.3278 9.917
16.3430 10.014
16.3582 10.063
16.3733 10.219
16.3885 10.243
16.4037 9.855
16.4189 10.192
16.4340 10.066
16.4492 10.051
16.4644 9.784
16.4796 9.914
16.4947 9.791
16.5099 9.714
16.5251 9.819
16.5403 9.699
16.5554 9.759
16.5706 9.834
16.5858 9.685
16.6010 9.432
16.6161 9.578
16.6313 9.696
16.6465 9.887
16.6617 9.737
16.6768 9.738
16.6920 9.962
16.7072 10.092
16.7224 10.261
16.7375 10.066
16.7527 9.920
16.7679 9.904
16.7831 9.900
16.7982 9.842
16.8134 9.865
16.8286 10.036
16.8438 10.179
16.8589 9.840
16.8741 9.624
16.8893 9.971
16.9045 9.853
16.9196 9.687
16.9348 9.826
16.9500 9.766
16.9652 9.724
16.9803 9.841
16.9955 9.858
17.0107 9.972
17.0259 10.147
17.0410 10.156
17.0562 10.261
17.0714 10.229
17.0866 10.305
17.1017 10.547
17.1169 10.771
17.1321 11.007
17.1473 11.267
17.1624 11.635
17.1776 12.384
17.1928 13.441
17.2080 14.307
17.2231 15.199
17.2383 16.433
17.2535 17.768
17.2687 18.678
17.2838 18.820
17.2990 18.288
17.3142 17.396
17.3294 16.605
17.3445 16.053
17.3597 15.889
17.3749 15.804
17.3901 15.256
17.4052 14.261
17.4204 13.294
17.4356 12.671
17.4508 12.109
17.4659 11.863
17.4811 11.659
17.4963 11.465
17.5115 11.510
17.5266 11.203
17.5418 11.016
17.5570 11.154
17.5722 11.199
17.5873 11.066
17.6025 10.956
17.6177 11.094
17.6329 11.100
17.6480 10.859
17.6632 10.739
17.6784 10.832
17.6936 10.794
17.7087 10.493
17.7239 10.311
17.7391 10.263
17.7543 10.310
17.7694 10.430
17.7846 10.155
17.7998 10.065
17.8150 10.161
17.8301 9.956
17.8453 9.893
17.8605 10.033
17.8757 10.210
17.8908 10.230
17.9060 10.295
17.9212 10.151
17.9364 10.080
17.9515 10.156
17.9667 10.109
17.9819 10.164
17.9971 10.154
18.0122 10.247
18.0274 10.247
18.0426 10.292
18.0578 10.266
18.0729 10.331
18.0881 10.483
18.1033 10.416
18.1185 10.334
18.1336 10.077
18.1488 9.926
18.1640 9.912
18.1792 9.734
18.1943 9.991
18.2095 9.987
18.2247 9.762
18.2399 9.809
18.2550 9.873
18.2702 9.831
18.2854 9.785
18.3006 9.906
18.3157 10.120
18.3309 9.822
18.3461 9.776
18.3613 9.777
18.3764 9.734
18.3916 9.747
18.4068 9.754
18.4220 9.842
18.4371 9.945
18.4523 9.879
18.4675 9.780
18.4827 9.889
18.4978 9.945
18.5130 9.825
18.5282 9.729
18.5434 9.848
18.5585 9.740
18.5737 9.604
18.5889 9.874
18.6041 9.925
18.6192 9.832
18.6344 9.721
18.6496 9.662
18.6648 9.691
18.6799 9.587
18.6951 9.628
18.7103 9.870
18.7255 9.759
18.7406 9.635
18.7558 9.907
18.7710 10.162
18.7862 10.160
18.8013 9.792
18.8165 9.560
18.8317 9.622
18.8469 9.655
18.8620 9.896
18.8772 10.140
18.8924 10.123
18.9076 9.841
18.9227 10.061
18.9379 10.117
18.9531 10.006
18.9683 9.849
18.9834 9.888
18.9986 10.152
19.0138 10.173
19.0290 10.042
19.0441 10.077
19.0593 10.268
19.0745 10.177
19.0897 10.161
19.1048 10.386
19.1200 10.493
19.1352 10.636
19.1504 10.450
19.1655 10.340
19.1807 10.512
19.1959 10.815
19.2111 10.766
19.2262 10.802
19.2414 10.805
19.2566 10.756
19.2718 10.910
19.2869 11.020
19.3021 10.932
19.3173 10.866
19.3325 10.912
19.3476 11.043
19.3628 11.053
19.3780 11.232
19.3932 11.333
19.4083 11.310
19.4235 11.519
19.4387 11.354
19.4539 11.161
19.4690 11.402
19.4842 11.465
19.4994 11.617
19.5146 11.746
19.5297 11.639
19.5449 11.501
19.5601 11.598
19.5753 11.504
19.5904 11.596
19.6056 11.698
19.6208 11.778
19.6360 11.827
19.6511 11.718
19.6663 11.503
19.6815 11.393
19.6967 11.340
19.7118 11.491
19.7270 11.721
19.7422 11.585
19.7574 11.759
19.7725 11.843
19.7877 11.955
19.8029 12.070
19.8180 12.053
19.8332 11.970
19.8484 11.940
19.8636 12.245
19.8787 12.477
19.8939 12.713
19.9091 13.024
19.9243 13.188
19.9394 13.626
19.9546 13.975
19.9698 14.147
19.9850 14.313
20.0001 14.354
20.0153 14.124
20.0305 14.022
20.0457 13.957
20.0608 13.876
20.0760 13.730
20.0912 13.742
20.1064 13.758
20.1215 13.502
20.1367 13.111
20.1519 13.162
20.1671 13.138
20.1822 13.093
20.1974 13.137
20.2126 12.800
20.2278 12.619
20.2429 12.582
20.2581 12.419
20.2733 11.916
20.2885 11.701
20.3036 11.701
20.3188 11.857
20.3340 11.867
20.3492 11.733
20.3643 11.889
20.3795 11.477
20.3947 11.052
20.4099 10.756
20.4250 10.736
20.4402 10.910
20.4554 10.847
20.4706 10.645
20.4857 10.679
20.5009 10.777
20.5161 10.837
20.5313 10.788
20.5464 11.001
20.5616 11.067
20.5768 10.679
20.5920 10.606
20.6071 10.641
20.6223 10.559
20.6375 10.845
20.6527 10.630
20.6678 10.336
20.6830 10.602
20.6982 10.827
20.7134 10.557
20.7285 10.600
20.7437 10.440
20.7589 10.568
20.7741 10.485
20.7892 10.480
20.8044 10.277
20.8196 10.344
20.8348 10.310
20.8499 10.209
20.8651 10.120
20.8803 10.172
20.8955 10.245
20.9106 10.449
20.9258 10.271
20.9410 10.042
20.9562 9.827
20.9713 9.783
20.9865 10.252
21.0017 10.164
21.0169 10.060
21.0320 9.900
21.0472 9.955
21.0624 9.824
21.0776 9.907
21.0927 9.750
21.1079 9.876
21.1231 9.569
21.1383 10.072
21.1534 9.708
21.1686 9.801
21.1838 9.826
21.1990 9.667
21.2141 9.608
21.2293 9.713
21.2445 9.590
21.2597 9.841
21.2748 9.749
21.2900 9.374
21.3052 9.610
21.3204 9.572
21.3355 9.546
21.3507 9.591
21.3659 9.733
21.3811 9.304
21.3962 9.470
21.4114 9.357
21.4266 9.418
21.4418 9.085
21.4569 9.353
21.4721 9.307
21.4873 9.585
21.5025 9.599
21.5176 9.372
21.5328 9.343
21.5480 9.504
21.5632 9.720
21.5783 9.593
21.5935 9.479
21.6087 9.283
21.6239 9.478
21.6390 9.191
21.6542 9.220
21.6694 9.226
21.6846 9.124
21.6997 9.306
21.7149 9.002
21.7301 9.122
21.7453 9.109
21.7604 9.075
21.7756 9.167
21.7908 8.950
21.8060 9.099
21.8211 9.145
21.8363 9.022
21.8515 9.124
21.8667 8.963
21.8818 9.224
21.8970 9.367
21.9122 9.094
21.9274 8.994
21.9425 8.942
21.9577 8.984
21.9729 8.982
21.9881 9.190
22.0032 9.113
22.0184 8.966
22.0336 9.108
22.0488 8.952
22.0639 8.773
22.0791 8.812
22.0943 8.811
22.1095 8.821
22.1246 8.797
22.1398 8.681
22.1550 8.674
22.1702 8.654
22.1853 8.642
22.2005 8.810
22.2157 8.696
22.2309 8.693
22.2460 8.827
22.2612 8.939
22.2764 8.734
22.2916 8.725
22.3067 8.481
22.3219 8.640
22.3371 8.604
22.3523 8.731
22.3674 8.472
22.3826 8.374
22.3978 8.495
22.4130 8.191
22.4281 8.497
22.4433 8.619
22.4585 8.633
22.4737 8.335
22.4888 8.395
22.5040 8.492
22.5192 8.595
22.5344 8.592
22.5495 8.472
22.5647 8.572
22.5799 8.767
22.5951 8.814
22.6102 8.396
22.6254 8.560
22.6406 8.487
22.6558 8.340
22.6709 8.333
22.6861 8.086
22.7013 8.280
22.7165 7.966
22.7316 6.527
