'Id: "" Comment: "" Operator: "Lab Manager" Anode: "Mo" Scantype: "Still (Eiger2R_500K (1D mode))" TimePerStep: "300" X: "11.8" Y: "9.4" Z: "11.284" 
7.2532 19.176
7.2684 19.040
7.2836 18.724
7.2987 19.299
7.3139 19.527
7.3291 19.588
7.3443 19.095
7.3594 19.736
7.3746 19.371
7.3898 19.386
7.4050 19.561
7.4201 19.460
7.4353 19.916
7.4505 19.723
7.4657 19.818
7.4808 19.819
7.4960 19.489
7.5112 19.515
7.5264 19.572
7.5415 19.796
7.5567 19.822
7.5719 20.234
7.5871 20.403
7.6022 20.346
7.6174 20.078
7.6326 19.978
7.6478 20.269
7.6629 20.076
7.6781 19.956
7.6933 20.401
7.7085 20.723
7.7236 20.554
7.7388 20.529
7.7540 20.296
7.7692 20.423
7.7843 20.633
7.7995 20.734
7.8147 20.890
7.8299 20.521
7.8450 20.573
7.8602 20.644
7.8754 20.809
7.8905 21.192
7.9057 21.215
7.9209 21.309
7.9361 21.317
7.9512 21.353
7.9664 21.136
7.9816 20.963
7.9968 21.049
8.0119 21.218
8.0271 21.065
8.0423 21.216
8.0575 21.595
8.0726 21.357
8.0878 21.411
8.1030 21.610
8.1182 21.498
8.1333 21.555
8.1485 22.022
8.1637 22.137
8.1789 21.660
8.1940 22.318
8.2092 22.217
8.2244 21.856
8.2396 21.636
8.2547 21.931
8.2699 21.701
8.2851 21.553
8.3003 21.519
8.3154 21.736
8.3306 21.741
8.3458 21.624
8.3610 21.618
8.3761 21.808
8.3913 21.874
8.4065 21.873
8.4217 21.972
8.4368 21.868
8.4520 21.909
8.4672 22.327
8.4824 22.016
8.4975 21.952
8.5127 22.384
8.5279 22.054
8.5431 22.344
8.5582 22.606
8.5734 21.720
8.5886 22.372
8.6038 22.233
8.6189 21.971
8.6341 22.338
8.6493 22.207
8.6645 22.169
8.6796 22.053
8.6948 22.213
8.7100 22.195
8.7252 22.610
8.7403 22.618
8.7555 22.640
8.7707 22.610
8.7859 22.580
8.8010 22.719
8.8162 22.623
8.8314 22.114
8.8466 22.752
8.8617 22.671
8.8769 22.399
8.8921 22.649
8.9073 22.628
8.9224 22.682
8.9376 22.463
8.9528 22.753
8.9680 22.564
8.9831 22.516
8.9983 22.273
9.0135 22.913
9.0287 23.120
9.0438 22.769
9.0590 22.464
9.0742 22.887
9.0894 22.627
9.1045 22.623
9.1197 22.739
9.1349 22.892
9.1501 22.879
9.1652 22.575
9.1804 22.795
9.1956 22.874
9.2108 23.369
9.2259 23.077
9.2411 22.888
9.2563 23.047
9.2715 23.012
9.2866 23.009
9.3018 23.012
9.3170 22.631
9.3322 22.927
9.3473 23.485
9.3625 23.190
9.3777 23.064
9.3929 23.318
9.4080 23.213
9.4232 22.953
9.4384 23.202
9.4536 23.046
9.4687 22.782
9.4839 22.945
9.4991 23.094
9.5143 23.100
9.5294 23.148
9.5446 23.202
9.5598 23.229
9.5750 23.464
9.5901 23.336
9.6053 23.312
9.6205 23.654
9.6357 23.759
9.6508 23.847
9.6660 24.229
9.6812 24.270
9.6964 24.377
9.7115 24.509
9.7267 24.180
9.7419 24.199
9.7571 24.242
9.7722 23.953
9.7874 24.175
9.8026 24.403
9.8178 23.866
9.8329 23.618
9.8481 23.656
9.8633 23.840
9.8785 24.193
9.8936 24.422
9.9088 24.437
9.9240 24.292
9.9392 24.463
9.9543 24.106
9.9695 23.826
9.9847 23.760
9.9999 23.891
10.0150 23.727
10.0302 23.342
10.0454 23.419
10.0606 23.422
10.0757 23.492
10.0909 23.569
10.1061 23.795
10.1213 23.769
10.1364 23.871
10.1516 23.598
10.1668 23.495
10.1820 23.553
10.1971 23.342
10.2123 23.629
10.2275 23.594
10.2427 24.088
10.2578 24.185
10.2730 23.474
10.2882 23.312
10.3034 23.679
10.3185 23.338
10.3337 22.985
10.3489 22.680
10.3641 22.875
10.3792 23.142
10.3944 23.474
10.4096 23.475
10.4248 22.823
10.4399 22.950
10.4551 23.206
10.4703 22.715
10.4855 23.005
10.5006 23.178
10.5158 23.046
10.5310 22.839
10.5462 22.458
10.5613 22.461
10.5765 22.901
10.5917 22.554
10.6069 22.769
10.6220 22.746
10.6372 23.031
10.6524 22.805
10.6676 22.558
10.6827 22.886
10.6979 22.534
10.7131 22.259
10.7283 22.416
10.7434 22.546
10.7586 22.462
10.7738 22.178
10.7890 22.268
10.8041 22.396
10.8193 22.189
10.8345 22.154
10.8497 22.121
10.8648 22.399
10.8800 22.640
10.8952 22.291
10.9104 22.332
10.9255 22.109
10.9407 22.236
10.9559 22.279
10.9711 21.970
10.9862 22.128
11.0014 22.067
11.0166 21.867
11.0318 22.198
11.0469 21.982
11.0621 21.816
11.0773 21.931
11.0925 21.606
11.1076 21.771
11.1228 21.689
11.1380 21.366
11.1532 21.456
11.1683 21.698
11.1835 21.760
11.1987 21.936
11.2139 21.701
11.2290 21.884
11.2442 21.525
11.2594 21.499
11.2746 21.839
11.2897 21.787
11.3049 21.736
11.3201 21.616
11.3353 21.591
11.3504 21.568
11.3656 21.413
11.3808 21.374
11.3960 21.501
11.4111 21.538
11.4263 21.626
11.4415 21.259
11.4567 20.899
11.4718 21.357
11.4870 21.297
11.5022 21.413
11.5174 21.276
11.5325 21.329
11.5477 21.239
11.5629 21.033
11.5781 20.846
11.5932 21.261
11.6084 21.273
11.6236 21.058
11.6388 20.828
11.6539 20.386
11.6691 20.457
11.6843 20.408
11.6995 20.626
11.7146 20.331
11.7298 20.303
11.7450 20.440
11.7602 20.266
11.7753 20.316
11.7905 20.202
11.8057 20.136
11.8209 20.216
11.8360 19.971
11.8512 19.946
11.8664 19.694
11.8816 19.619
11.8967 19.466
11.9119 19.390
11.9271 19.738
11.9423 19.494
11.9574 19.617
11.9726 19.516
11.9878 19.333
12.0030 19.426
12.0181 19.468
12.0333 19.207
12.0485 18.862
12.0637 18.994
12.0788 18.994
12.0940 18.624
12.1092 18.578
12.1244 18.375
12.1395 18.461
12.1547 18.684
12.1699 18.737
12.1851 18.517
12.2002 18.262
12.2154 17.952
12.2306 17.916
12.2458 17.809
12.2609 17.734
12.2761 17.793
12.2913 17.844
12.3065 17.771
12.3216 17.629
12.3368 17.537
12.3520 17.498
12.3672 17.339
12.3823 17.293
12.3975 17.502
12.4127 17.430
12.4279 17.108
12.4430 17.029
12.4582 16.824
12.4734 16.859
12.4886 16.978
12.5037 16.695
12.5189 16.549
12.5341 16.508
12.5493 16.339
12.5644 16.213
12.5796 16.028
12.5948 15.865
12.6100 15.817
12.6251 15.686
12.6403 15.827
12.6555 15.741
12.6707 15.781
12.6858 15.702
12.7010 15.861
12.7162 15.786
12.7314 15.315
12.7465 15.257
12.7617 15.209
12.7769 15.420
12.7921 15.458
12.8072 15.114
12.8224 14.844
12.8376 15.006
12.8528 14.893
12.8679 14.696
12.8831 14.686
12.8983 14.613
12.9135 14.653
12.9286 14.522
12.9438 14.363
12.9590 14.302
12.9742 14.169
12.9893 14.340
13.0045 14.373
13.0197 14.142
13.0349 14.034
13.0500 14.033
13.0652 13.983
13.0804 14.011
13.0956 14.044
13.1107 14.057
13.1259 13.974
13.1411 13.876
13.1563 13.793
13.1714 13.457
13.1866 13.493
13.2018 13.419
13.2170 13.294
13.2321 13.328
13.2473 13.345
13.2625 13.350
13.2777 13.124
13.2928 12.848
13.3080 12.892
13.3232 13.304
13.3384 13.129
13.3535 12.916
13.3687 12.785
13.3839 12.786
13.3991 12.865
13.4142 12.851
13.4294 12.879
13.4446 12.763
13.4598 12.511
13.4749 12.460
13.4901 12.563
13.5053 12.536
13.5205 12.555
13.5356 12.431
13.5508 12.280
13.5660 12.223
13.5812 12.286
13.5963 12.250
13.6115 12.118
13.6267 12.069
13.6419 11.886
13.6570 11.654
13.6722 11.857
13.6874 11.962
13.7026 12.060
13.7177 12.032
13.7329 11.767
13.7481 11.917
13.7633 12.092
13.7784 12.048
13.7936 12.119
13.8088 12.257
13.8239 12.198
13.8391 12.312
13.8543 12.162
13.8695 11.759
13.8846 11.953
13.8998 12.246
13.9150 12.039
13.9302 11.751
13.9453 11.879
13.9605 11.905
13.9757 11.709
13.9909 11.604
14.0060 11.693
14.0212 11.565
14.0364 11.629
14.0516 11.619
14.0667 11.277
14.0819 11.155
14.0971 11.325
14.1123 11.378
14.1274 11.537
14.1426 11.393
14.1578 11.189
14.1730 11.162
14.1881 11.333
14.2033 11.515
14.2185 11.351
14.2337 11.393
14.2488 10.764
14.2640 11.206
14.2792 11.505
14.2944 11.420
14.3095 11.653
14.3247 11.836
14.3399 11.859
14.3551 12.176
14.3702 12.376
14.3854 12.555
14.4006 12.797
14.4158 13.197
14.4309 13.501
14.4461 13.472
14.4613 13.404
14.4765 13.692
14.4916 13.601
14.5068 13.361
14.5220 13.345
14.5372 13.522
14.5523 13.479
14.5675 13.264
14.5827 12.599
14.5979 12.421
14.6130 11.915
14.6282 12.133
14.6434 11.915
14.6586 11.752
14.6737 11.860
14.6889 11.598
14.7041 11.240
14.7193 11.354
14.7344 11.218
14.7496 11.462
14.7648 11.420
14.7800 11.769
14.7951 11.241
14.8103 11.007
14.8255 10.981
14.8407 11.250
14.8558 11.309
14.8710 10.723
14.8862 10.618
14.9014 10.880
14.9165 11.452
14.9317 11.229
14.9469 11.288
14.9621 10.952
14.9772 10.523
14.9924 10.670
15.0076 10.761
15.0228 10.691
15.0379 10.815
15.0531 10.569
15.0683 10.527
15.0835 10.439
15.0986 10.204
15.1138 10.620
15.1290 10.562
15.1442 10.294
15.1593 10.439
15.1745 10.196
15.1897 10.083
15.2049 10.075
15.2200 10.322
15.2352 10.293
15.2504 10.366
15.2656 10.475
15.2807 9.986
15.2959 10.612
15.3111 10.398
15.3263 10.231
15.3414 10.301
15.3566 10.372
15.3718 10.416
15.3870 10.414
15.4021 10.260
15.4173 10.301
15.4325 10.289
15.4477 10.402
15.4628 10.504
15.4780 10.408
15.4932 10.570
15.5084 10.527
15.5235 10.591
15.5387 10.642
15.5539 10.229
15.5691 10.366
15.5842 10.449
15.5994 10.549
15.6146 10.216
15.6298 10.105
15.6449 10.078
15.6601 10.108
15.6753 9.916
15.6905 9.998
15.7056 10.162
15.7208 9.926
15.7360 9.822
15.7512 9.999
15.7663 9.720
15.7815 9.596
15.7967 9.736
15.8119 9.743
15.8270 9.972
15.8422 9.772
15.8574 9.664
15.8726 9.786
15.8877 9.604
15.9029 9.709
15.9181 9.930
15.9333 9.750
15.9484 9.826
15.9636 9.846
15.9788 9.748
15.9940 9.716
16.0091 9.931
16.0243 9.955
16.0395 9.889
16.0547 9.699
16.0698 9.740
16.0850 9.790
16.1002 9.659
16.1154 9.549
16.1305 9.643
16.1457 9.830
16.1609 9.675
16.1761 9.758
16.1912 9.625
16.2064 9.724
16.2216 9.986
16.2368 9.878
16.2519 9.882
16.2671 10.145
16.2823 10.137
16.2975 10.476
16.3126 10.539
16.3278 10.298
16.3430 10.207
16.3582 10.253
16.3733 10.064
16.3885 10.178
16.4037 10.185
16.4189 10.174
16.4340 9.957
16.4492 10.066
16.4644 10.101
16.4796 9.909
16.4947 9.995
16.5099 10.126
16.5251 9.915
16.5403 9.960
16.5554 9.826
16.5706 9.678
16.5858 9.991
16.6010 9.982
16.6161 9.893
16.6313 9.968
16.6465 9.898
16.6617 10.131
16.6768 10.033
16.6920 10.157
16.7072 10.295
16.7224 9.990
16.7375 9.863
16.7527 10.089
16.7679 10.046
16.7831 10.094
16.7982 10.031
16.8134 10.130
16.8286 9.965
16.8438 9.833
16.8589 9.972
16.8741 9.857
16.8893 9.791
16.9045 9.793
16.9196 9.880
16.9348 9.826
16.9500 9.946
16.9652 9.987
16.9803 9.824
16.9955 9.968
17.0107 10.044
17.0259 9.879
17.0410 9.918
17.0562 10.020
17.0714 10.248
17.0866 10.578
17.1017 10.683
17.1169 11.087
17.1321 11.356
17.1473 11.427
17.1624 11.895
17.1776 12.423
17.1928 13.251
17.2080 14.053
17.2231 14.926
17.2383 16.130
17.2535 17.463
17.2687 18.589
17.2838 18.950
17.2990 18.157
17.3142 17.041
17.3294 16.194
17.3445 15.658
17.3597 15.831
17.3749 16.061
17.3901 15.138
17.4052 13.625
17.4204 12.928
17.4356 12.583
17.4508 11.926
17.4659 11.641
17.4811 11.410
17.4963 11.111
17.5115 11.145
17.5266 10.888
17.5418 10.736
17.5570 10.728
17.5722 10.495
17.5873 10.448
17.6025 10.382
17.6177 10.234
17.6329 10.438
17.6480 10.303
17.6632 10.107
17.6784 10.178
17.6936 10.255
17.7087 10.521
17.7239 10.780
17.7391 10.773
17.7543 10.665
17.7694 11.074
17.7846 11.597
17.7998 12.022
17.8150 12.512
17.8301 12.612
17.8453 12.936
17.8605 13.031
17.8757 12.943
17.8908 13.032
17.9060 12.712
17.9212 12.286
17.9364 11.958
17.9515 11.639
17.9667 11.625
17.9819 11.647
17.9971 11.596
18.0122 11.194
18.0274 10.970
18.0426 10.739
18.0578 10.458
18.0729 10.363
18.0881 10.227
18.1033 10.083
18.1185 10.161
18.1336 10.229
18.1488 10.194
18.1640 10.087
18.1792 9.957
18.1943 10.053
18.2095 10.100
18.2247 10.073
18.2399 9.920
18.2550 9.976
18.2702 10.035
18.2854 9.957
18.3006 9.985
18.3157 9.943
18.3309 10.009
18.3461 9.904
18.3613 9.709
18.3764 9.904
18.3916 9.839
18.4068 9.804
18.4220 9.732
18.4371 9.780
18.4523 9.835
18.4675 9.865
18.4827 9.805
18.4978 9.719
18.5130 9.986
18.5282 9.865
18.5434 9.752
18.5585 9.891
18.5737 10.049
18.5889 9.871
18.6041 9.808
18.6192 9.734
18.6344 9.504
18.6496 9.754
18.6648 9.886
18.6799 9.912
18.6951 9.755
18.7103 9.475
18.7255 9.740
18.7406 9.836
18.7558 9.778
18.7710 9.843
18.7862 9.910
18.8013 9.893
18.8165 9.923
18.8317 10.036
18.8469 10.045
18.8620 10.039
18.8772 9.985
18.8924 10.050
18.9076 10.082
18.9227 10.021
18.9379 10.093
18.9531 10.126
18.9683 9.928
18.9834 9.980
18.9986 10.095
19.0138 10.261
19.0290 10.233
19.0441 10.220
19.0593 10.324
19.0745 10.260
19.0897 10.371
19.1048 10.240
19.1200 10.221
19.1352 10.403
19.1504 10.455
19.1655 10.495
19.1807 10.686
19.1959 10.626
19.2111 10.684
19.2262 10.843
19.2414 10.795
19.2566 10.898
19.2718 10.908
19.2869 10.793
19.3021 10.861
19.3173 10.931
19.3325 11.040
19.3476 10.915
19.3628 11.042
19.3780 11.250
19.3932 11.234
19.4083 11.178
19.4235 11.165
19.4387 11.226
19.4539 11.311
19.4690 11.267
19.4842 11.194
19.4994 11.367
19.5146 11.459
19.5297 11.378
19.5449 11.262
19.5601 11.186
19.5753 11.342
19.5904 11.453
19.6056 11.564
19.6208 11.641
19.6360 11.561
19.6511 11.453
19.6663 11.505
19.6815 11.600
19.6967 11.659
19.7118 11.612
19.7270 11.718
19.7422 11.776
19.7574 11.736
19.7725 11.738
19.7877 11.898
19.8029 11.910
19.8180 11.699
19.8332 11.838
19.8484 12.126
19.8636 12.293
19.8787 12.448
19.8939 12.911
19.9091 13.355
19.9243 13.615
19.9394 13.939
19.9546 14.001
19.9698 14.182
19.9850 14.469
20.0001 14.752
20.0153 14.555
20.0305 13.869
20.0457 13.633
20.0608 13.727
20.0760 13.753
20.0912 13.788
20.1064 13.648
20.1215 13.392
20.1367 13.337
20.1519 12.887
20.1671 12.592
20.1822 12.750
20.1974 12.510
20.2126 12.289
20.2278 12.281
20.2429 12.143
20.2581 12.269
20.2733 11.984
20.2885 11.453
20.3036 11.186
20.3188 11.452
20.3340 11.642
20.3492 11.727
20.3643 11.405
20.3795 11.366
20.3947 11.059
20.4099 11.004
20.4250 10.727
20.4402 10.620
20.4554 10.912
20.4706 10.938
20.4857 11.124
20.5009 11.244
20.5161 11.066
20.5313 11.059
20.5464 10.951
20.5616 10.817
20.5768 11.014
20.5920 11.292
20.6071 10.895
20.6223 10.614
20.6375 11.020
20.6527 10.820
20.6678 10.913
20.6830 10.951
20.6982 10.889
20.7134 11.172
20.7285 10.808
20.7437 10.777
20.7589 10.670
20.7741 10.690
20.7892 10.956
20.8044 10.763
20.8196 10.377
20.8348 10.438
20.8499 10.646
20.8651 10.767
20.8803 10.852
20.8955 10.671
20.9106 10.611
20.9258 10.405
20.9410 10.541
20.9562 10.638
20.9713 10.625
20.9865 10.931
21.0017 10.511
21.0169 10.590
21.0320 10.525
21.0472 10.531
21.0624 10.316
21.0776 10.578
21.0927 10.199
21.1079 10.273
21.1231 10.090
21.1383 10.314
21.1534 9.982
21.1686 9.931
21.1838 10.137
21.1990 9.385
21.2141 9.970
21.2293 10.162
21.2445 9.778
21.2597 9.674
21.2748 10.012
21.2900 9.442
21.3052 9.710
21.3204 9.744
21.3355 9.378
21.3507 9.739
21.3659 9.650
21.3811 9.434
21.3962 9.676
21.4114 9.408
21.4266 9.374
21.4418 9.639
21.4569 9.507
21.4721 9.150
21.4873 9.114
21.5025 9.265
21.5176 9.462
21.5328 9.480
21.5480 9.291
21.5632 9.389
21.5783 9.388
21.5935 9.310
21.6087 9.145
21.6239 8.884
21.6390 9.107
21.6542 9.485
21.6694 9.301
21.6846 8.982
21.6997 8.986
21.7149 9.075
21.7301 9.079
21.7453 9.033
21.7604 8.944
21.7756 9.093
21.7908 8.866
21.8060 8.685
21.8211 8.952
21.8363 8.859
21.8515 8.933
21.8667 9.106
21.8818 8.987
21.8970 9.053
21.9122 8.932
21.9274 8.953
21.9425 8.972
21.9577 8.856
21.9729 8.683
21.9881 8.642
22.0032 8.721
22.0184 8.649
22.0336 8.689
22.0488 8.769
22.0639 8.743
22.0791 8.547
22.0943 8.622
22.1095 8.716
22.1246 8.674
22.1398 8.730
22.1550 8.711
22.1702 8.764
22.1853 8.569
22.2005 8.478
22.2157 8.436
22.2309 8.466
22.2460 8.476
22.2612 8.394
22.2764 8.229
22.2916 8.435
22.3067 8.483
22.3219 8.330
22.3371 8.371
22.3523 8.599
22.3674 8.495
22.3826 8.366
22.3978 8.359
22.4130 8.599
22.4281 8.587
22.4433 8.612
22.4585 8.754
22.4737 8.572
22.4888 8.398
22.5040 8.431
22.5192 8.343
22.5344 8.369
22.5495 8.570
22.5647 8.422
22.5799 8.448
22.5951 8.172
22.6102 8.406
22.6254 8.632
22.6406 8.336
22.6558 8.497
22.6709 8.457
22.6861 8.527
22.7013 8.336
22.7165 8.115
22.7316 6.400
