'Id: "" Comment: "" Operator: "Lab Manager" Anode: "Mo" Scantype: "Still (Eiger2R_500K (1D mode))" TimePerStep: "300" X: "11.8" Y: "9.4" Z: "11.284" 
7.2532 18.455
7.2684 18.599
7.2836 18.791
7.2987 18.735
7.3139 18.952
7.3291 18.996
7.3443 18.883
7.3594 18.788
7.3746 19.302
7.3898 19.267
7.4050 19.042
7.4201 18.901
7.4353 19.395
7.4505 19.503
7.4657 19.117
7.4808 19.534
7.4960 19.504
7.5112 19.970
7.5264 19.774
7.5415 19.978
7.5567 19.706
7.5719 19.574
7.5871 19.580
7.6022 19.725
7.6174 19.920
7.6326 20.167
7.6478 20.274
7.6629 20.315
7.6781 20.256
7.6933 20.212
7.7085 20.561
7.7236 20.544
7.7388 20.543
7.7540 20.502
7.7692 20.278
7.7843 20.156
7.7995 20.330
7.8147 20.668
7.8299 20.657
7.8450 20.491
7.8602 20.579
7.8754 20.790
7.8905 20.979
7.9057 20.837
7.9209 20.671
7.9361 20.534
7.9512 20.755
7.9664 20.898
7.9816 20.992
7.9968 20.860
8.0119 20.502
8.0271 20.715
8.0423 20.946
8.0575 21.219
8.0726 21.072
8.0878 20.921
8.1030 20.654
8.1182 21.011
8.1333 21.197
8.1485 21.010
8.1637 21.417
8.1789 21.478
8.1940 21.255
8.2092 21.413
8.2244 21.564
8.2396 21.622
8.2547 21.553
8.2699 21.388
8.2851 21.526
8.3003 21.518
8.3154 21.380
8.3306 21.670
8.3458 21.353
8.3610 21.844
8.3761 21.828
8.3913 21.548
8.4065 21.820
8.4217 22.115
8.4368 22.061
8.4520 21.373
8.4672 21.890
8.4824 21.950
8.4975 21.645
8.5127 21.572
8.5279 22.102
8.5431 21.427
8.5582 22.333
8.5734 22.344
8.5886 21.897
8.6038 21.672
8.6189 21.701
8.6341 22.339
8.6493 22.189
8.6645 22.387
8.6796 22.373
8.6948 22.653
8.7100 22.156
8.7252 22.214
8.7403 22.687
8.7555 22.384
8.7707 22.535
8.7859 21.999
8.8010 22.488
8.8162 22.478
8.8314 22.315
8.8466 22.631
8.8617 22.553
8.8769 22.425
8.8921 22.576
8.9073 22.231
8.9224 22.332
8.9376 22.342
8.9528 22.440
8.9680 22.559
8.9831 22.574
8.9983 22.511
9.0135 23.028
9.0287 22.824
9.0438 22.727
9.0590 22.715
9.0742 22.721
9.0894 22.741
9.1045 22.872
9.1197 22.949
9.1349 22.872
9.1501 22.642
9.1652 22.568
9.1804 22.732
9.1956 22.734
9.2108 22.753
9.2259 22.967
9.2411 22.500
9.2563 22.675
9.2715 22.733
9.2866 22.638
9.3018 22.719
9.3170 23.119
9.3322 23.292
9.3473 23.178
9.3625 23.025
9.3777 22.987
9.3929 22.984
9.4080 23.063
9.4232 23.054
9.4384 22.895
9.4536 22.728
9.4687 22.744
9.4839 23.056
9.4991 22.806
9.5143 23.064
9.5294 23.252
9.5446 23.170
9.5598 23.147
9.5750 23.153
9.5901 22.983
9.6053 23.041
9.6205 23.129
9.6357 23.055
9.6508 23.235
9.6660 23.369
9.6812 23.101
9.6964 23.246
9.7115 24.002
9.7267 24.123
9.7419 23.687
9.7571 23.503
9.7722 23.568
9.7874 23.625
9.8026 23.776
9.8178 23.698
9.8329 23.445
9.8481 23.005
9.8633 22.869
9.8785 22.929
9.8936 22.737
9.9088 22.852
9.9240 23.247
9.9392 23.509
9.9543 23.474
9.9695 23.424
9.9847 23.549
9.9999 23.381
10.0150 23.022
10.0302 23.224
10.0454 23.170
10.0606 23.041
10.0757 23.395
10.0909 23.485
10.1061 23.405
10.1213 23.503
10.1364 23.313
10.1516 23.233
10.1668 23.407
10.1820 23.434
10.1971 23.132
10.2123 23.099
10.2275 23.006
10.2427 22.794
10.2578 22.518
10.2730 22.741
10.2882 22.929
10.3034 22.857
10.3185 22.523
10.3337 22.527
10.3489 22.816
10.3641 22.966
10.3792 22.631
10.3944 22.772
10.4096 22.800
10.4248 22.546
10.4399 22.612
10.4551 22.304
10.4703 22.155
10.4855 22.462
10.5006 22.774
10.5158 22.701
10.5310 22.657
10.5462 22.353
10.5613 22.626
10.5765 22.486
10.5917 22.496
10.6069 22.517
10.6220 22.553
10.6372 22.258
10.6524 22.248
10.6676 22.997
10.6827 22.779
10.6979 22.393
10.7131 22.325
10.7283 21.895
10.7434 22.345
10.7586 22.464
10.7738 22.216
10.7890 22.043
10.8041 22.332
10.8193 22.258
10.8345 22.018
10.8497 22.185
10.8648 22.212
10.8800 21.871
10.8952 22.131
10.9104 22.161
10.9255 21.745
10.9407 22.113
10.9559 22.081
10.9711 22.008
10.9862 21.770
11.0014 21.897
11.0166 21.949
11.0318 21.920
11.0469 21.584
11.0621 21.432
11.0773 21.583
11.0925 21.761
11.1076 21.828
11.1228 21.851
11.1380 21.932
11.1532 21.501
11.1683 21.411
11.1835 21.428
11.1987 21.437
11.2139 21.396
11.2290 21.518
11.2442 21.590
11.2594 21.752
11.2746 21.751
11.2897 21.422
11.3049 21.427
11.3201 21.238
11.3353 21.267
11.3504 21.219
11.3656 21.306
11.3808 21.493
11.3960 21.488
11.4111 21.384
11.4263 21.426
11.4415 21.254
11.4567 20.665
11.4718 21.046
11.4870 21.092
11.5022 21.039
11.5174 20.682
11.5325 21.151
11.5477 20.822
11.5629 20.588
11.5781 20.807
11.5932 20.809
11.6084 20.896
11.6236 20.865
11.6388 20.893
11.6539 20.450
11.6691 20.485
11.6843 20.653
11.6995 20.691
11.7146 20.705
11.7298 20.281
11.7450 20.213
11.7602 19.861
11.7753 20.027
11.7905 20.008
11.8057 19.836
11.8209 20.050
11.8360 19.808
11.8512 19.662
11.8664 19.773
11.8816 19.758
11.8967 19.746
11.9119 19.755
11.9271 19.562
11.9423 19.247
11.9574 19.333
11.9726 18.973
11.9878 19.185
12.0030 19.393
12.0181 19.320
12.0333 19.281
12.0485 18.785
12.0637 18.913
12.0788 18.796
12.0940 18.891
12.1092 18.838
12.1244 18.845
12.1395 18.777
12.1547 18.703
12.1699 18.469
12.1851 17.880
12.2002 17.960
12.2154 17.971
12.2306 18.046
12.2458 18.018
12.2609 17.823
12.2761 17.673
12.2913 17.547
12.3065 17.475
12.3216 17.431
12.3368 17.232
12.3520 17.047
12.3672 17.177
12.3823 17.235
12.3975 16.957
12.4127 16.758
12.4279 16.682
12.4430 16.569
12.4582 16.803
12.4734 16.892
12.4886 16.792
12.5037 16.581
12.5189 16.553
12.5341 16.502
12.5493 16.464
12.5644 16.389
12.5796 16.154
12.5948 16.098
12.6100 16.086
12.6251 16.275
12.6403 16.252
12.6555 15.626
12.6707 15.694
12.6858 15.859
12.7010 15.817
12.7162 15.676
12.7314 15.477
12.7465 15.097
12.7617 14.918
12.7769 15.031
12.7921 14.979
12.8072 14.888
12.8224 15.041
12.8376 14.994
12.8528 14.912
12.8679 14.855
12.8831 14.783
12.8983 14.689
12.9135 14.656
12.9286 14.567
12.9438 14.440
12.9590 14.218
12.9742 14.183
12.9893 14.385
13.0045 14.324
13.0197 14.225
13.0349 14.097
13.0500 13.982
13.0652 13.931
13.0804 13.768
13.0956 13.689
13.1107 13.847
13.1259 13.917
13.1411 13.792
13.1563 13.554
13.1714 13.436
13.1866 13.448
13.2018 13.284
13.2170 13.188
13.2321 13.178
13.2473 13.232
13.2625 13.379
13.2777 13.118
13.2928 12.691
13.3080 12.817
13.3232 12.969
13.3384 12.895
13.3535 13.014
13.3687 13.026
13.3839 12.879
13.3991 12.845
13.4142 12.928
13.4294 12.927
13.4446 12.574
13.4598 12.396
13.4749 12.534
13.4901 12.452
13.5053 12.288
13.5205 12.330
13.5356 12.549
13.5508 12.596
13.5660 12.535
13.5812 12.333
13.5963 12.108
13.6115 11.998
13.6267 12.084
13.6419 11.856
13.6570 11.933
13.6722 12.203
13.6874 12.115
13.7026 11.915
13.7177 11.790
13.7329 11.754
13.7481 11.849
13.7633 12.135
13.7784 12.192
13.7936 12.179
13.8088 12.330
13.8239 12.163
13.8391 12.130
13.8543 12.444
13.8695 12.108
13.8846 12.167
13.8998 12.240
13.9150 12.178
13.9302 11.956
13.9453 12.222
13.9605 11.991
13.9757 12.021
13.9909 11.803
14.0060 11.560
14.0212 11.651
14.0364 11.820
14.0516 11.521
14.0667 11.194
14.0819 11.329
14.0971 11.378
14.1123 11.443
14.1274 11.482
14.1426 11.661
14.1578 11.301
14.1730 11.349
14.1881 11.459
14.2033 11.729
14.2185 11.828
14.2337 11.778
14.2488 11.697
14.2640 11.721
14.2792 11.786
14.2944 11.705
14.3095 11.786
14.3247 12.009
14.3399 12.274
14.3551 12.429
14.3702 12.745
14.3854 12.914
14.4006 13.241
14.4158 13.326
14.4309 13.569
14.4461 13.537
14.4613 13.054
14.4765 12.739
14.4916 12.551
14.5068 12.189
14.5220 12.016
14.5372 11.824
14.5523 11.393
14.5675 11.403
14.5827 11.048
14.5979 11.082
14.6130 10.977
14.6282 11.278
14.6434 10.895
14.6586 10.675
14.6737 10.871
14.6889 10.885
14.7041 10.465
14.7193 10.504
14.7344 10.665
14.7496 10.561
14.7648 10.692
14.7800 10.713
14.7951 10.593
14.8103 10.308
14.8255 10.431
14.8407 10.570
14.8558 10.141
14.8710 10.414
14.8862 10.770
14.9014 10.583
14.9165 10.693
14.9317 10.689
14.9469 10.200
14.9621 10.491
14.9772 10.513
14.9924 10.260
15.0076 10.159
15.0228 10.413
15.0379 10.002
15.0531 10.305
15.0683 10.583
15.0835 10.330
15.0986 10.351
15.1138 9.796
15.1290 10.123
15.1442 10.172
15.1593 10.377
15.1745 10.060
15.1897 10.014
15.2049 10.297
15.2200 10.247
15.2352 10.056
15.2504 10.060
15.2656 10.098
15.2807 10.173
15.2959 10.107
15.3111 10.052
15.3263 9.980
15.3414 10.393
15.3566 10.270
15.3718 10.247
15.3870 10.117
15.4021 10.139
15.4173 10.052
15.4325 10.349
15.4477 10.164
15.4628 10.262
15.4780 10.305
15.4932 9.724
15.5084 9.965
15.5235 9.764
15.5387 10.021
15.5539 10.201
15.5691 10.142
15.5842 10.165
15.5994 9.893
15.6146 9.694
15.6298 9.582
15.6449 9.869
15.6601 9.688
15.6753 9.410
15.6905 9.670
15.7056 9.491
15.7208 9.611
15.7360 9.826
15.7512 9.451
15.7663 9.857
15.7815 9.839
15.7967 9.724
15.8119 9.692
15.8270 9.757
15.8422 9.463
15.8574 9.203
15.8726 9.677
15.8877 9.448
15.9029 9.378
15.9181 9.606
15.9333 9.436
15.9484 9.495
15.9636 9.590
15.9788 9.562
15.9940 9.502
16.0091 9.548
16.0243 9.542
16.0395 9.373
16.0547 9.675
16.0698 9.508
16.0850 9.199
16.1002 9.312
16.1154 9.693
16.1305 9.817
16.1457 9.596
16.1609 9.324
16.1761 9.298
16.1912 9.262
16.2064 9.408
16.2216 9.505
16.2368 9.385
16.2519 9.583
16.2671 9.770
16.2823 9.795
16.2975 9.749
16.3126 9.742
16.3278 10.021
16.3430 9.754
16.3582 9.995
16.3733 9.933
16.3885 9.599
16.4037 9.667
16.4189 9.660
16.4340 9.668
16.4492 9.743
16.4644 9.634
16.4796 9.524
16.4947 9.503
16.5099 9.565
16.5251 9.678
16.5403 9.510
16.5554 9.387
16.5706 9.550
16.5858 9.549
16.6010 9.449
16.6161 9.353
16.6313 9.545
16.6465 9.561
16.6617 9.524
16.6768 9.643
16.6920 9.756
16.7072 9.748
16.7224 9.630
16.7375 9.702
16.7527 9.783
16.7679 9.776
16.7831 10.068
16.7982 9.840
16.8134 9.753
16.8286 9.742
16.8438 9.734
16.8589 9.794
16.8741 9.647
16.8893 9.650
16.9045 9.856
16.9196 9.843
16.9348 9.689
16.9500 9.651
16.9652 9.701
16.9803 9.810
16.9955 9.957
17.0107 9.766
17.0259 9.649
17.0410 9.841
17.0562 10.107
17.0714 10.234
17.0866 10.401
17.1017 10.514
17.1169 10.645
17.1321 10.837
17.1473 10.859
17.1624 11.431
17.1776 12.022
17.1928 12.685
17.2080 13.936
17.2231 15.010
17.2383 16.191
17.2535 17.216
17.2687 18.016
17.2838 18.311
17.2990 17.878
17.3142 16.972
17.3294 16.152
17.3445 15.837
17.3597 15.838
17.3749 15.841
17.3901 14.980
17.4052 14.030
17.4204 13.150
17.4356 12.211
17.4508 11.679
17.4659 11.570
17.4811 11.452
17.4963 11.076
17.5115 11.024
17.5266 10.984
17.5418 10.943
17.5570 10.747
17.5722 10.677
17.5873 11.084
17.6025 11.173
17.6177 11.117
17.6329 11.247
17.6480 11.219
17.6632 11.390
17.6784 11.776
17.6936 11.949
17.7087 11.988
17.7239 11.855
17.7391 11.560
17.7543 11.402
17.7694 11.277
17.7846 11.266
17.7998 11.284
17.8150 11.114
17.8301 11.001
17.8453 10.685
17.8605 10.364
17.8757 10.394
17.8908 10.553
17.9060 10.421
17.9212 10.175
17.9364 10.142
17.9515 10.188
17.9667 10.143
17.9819 9.949
17.9971 10.285
18.0122 10.313
18.0274 10.162
18.0426 10.146
18.0578 10.048
18.0729 10.187
18.0881 10.077
18.1033 10.150
18.1185 10.060
18.1336 9.773
18.1488 10.020
18.1640 10.018
18.1792 9.883
18.1943 9.986
18.2095 10.053
18.2247 9.782
18.2399 9.687
18.2550 9.929
18.2702 10.053
18.2854 9.816
18.3006 9.727
18.3157 9.761
18.3309 9.820
18.3461 9.813
18.3613 9.791
18.3764 9.835
18.3916 9.970
18.4068 10.171
18.4220 10.102
18.4371 9.859
18.4523 9.889
18.4675 9.921
18.4827 9.978
18.4978 9.856
18.5130 9.943
18.5282 9.945
18.5434 9.825
18.5585 9.948
18.5737 9.822
18.5889 9.622
18.6041 9.781
18.6192 9.755
18.6344 9.862
18.6496 9.682
18.6648 9.586
18.6799 9.689
18.6951 9.762
18.7103 9.687
18.7255 9.918
18.7406 9.912
18.7558 9.944
18.7710 10.020
18.7862 9.799
18.8013 9.700
18.8165 9.677
18.8317 9.676
18.8469 9.701
18.8620 9.919
18.8772 9.948
18.8924 9.843
18.9076 9.871
18.9227 10.093
18.9379 10.039
18.9531 10.008
18.9683 10.221
18.9834 10.219
18.9986 10.207
19.0138 10.130
19.0290 10.174
19.0441 10.418
19.0593 10.231
19.0745 10.117
19.0897 10.283
19.1048 10.248
19.1200 10.175
19.1352 10.133
19.1504 10.525
19.1655 10.602
19.1807 10.400
19.1959 10.520
19.2111 10.459
19.2262 10.573
19.2414 10.761
19.2566 10.840
19.2718 10.837
19.2869 10.770
19.3021 10.772
19.3173 10.844
19.3325 11.075
19.3476 11.044
19.3628 10.963
19.3780 11.055
19.3932 11.039
19.4083 11.130
19.4235 11.285
19.4387 11.105
19.4539 10.991
19.4690 11.216
19.4842 11.398
19.4994 11.291
19.5146 11.389
19.5297 11.438
19.5449 11.430
19.5601 11.492
19.5753 11.467
19.5904 11.324
19.6056 11.381
19.6208 11.651
19.6360 11.785
19.6511 11.478
19.6663 11.522
19.6815 11.801
19.6967 11.649
19.7118 11.660
19.7270 11.776
19.7422 11.728
19.7574 11.661
19.7725 11.848
19.7877 12.088
19.8029 12.232
19.8180 12.111
19.8332 12.080
19.8484 12.117
19.8636 12.168
19.8787 12.385
19.8939 12.592
19.9091 12.974
19.9243 13.477
19.9394 13.636
19.9546 14.001
19.9698 14.434
19.9850 14.381
20.0001 14.245
20.0153 14.241
20.0305 14.149
20.0457 13.882
20.0608 13.585
20.0760 13.537
20.0912 13.605
20.1064 13.629
20.1215 13.620
20.1367 13.273
20.1519 12.886
20.1671 12.620
20.1822 12.847
20.1974 12.945
20.2126 12.868
20.2278 12.735
20.2429 12.210
20.2581 11.829
20.2733 11.925
20.2885 12.046
20.3036 11.863
20.3188 12.104
20.3340 11.924
20.3492 11.809
20.3643 11.731
20.3795 11.709
20.3947 11.976
20.4099 11.669
20.4250 11.585
20.4402 11.706
20.4554 11.754
20.4706 12.133
20.4857 12.045
20.5009 12.083
20.5161 12.173
20.5313 11.966
20.5464 11.940
20.5616 11.673
20.5768 11.833
20.5920 11.578
20.6071 11.269
20.6223 11.301
20.6375 11.421
20.6527 11.268
20.6678 10.949
20.6830 10.903
20.6982 10.693
20.7134 10.568
20.7285 10.476
20.7437 10.545
20.7589 10.672
20.7741 10.255
20.7892 10.138
20.8044 10.465
20.8196 10.334
20.8348 10.247
20.8499 10.338
20.8651 10.223
20.8803 10.325
20.8955 10.208
20.9106 10.407
20.9258 10.200
20.9410 9.988
20.9562 9.992
20.9713 10.109
20.9865 10.073
21.0017 10.054
21.0169 10.253
21.0320 10.184
21.0472 9.804
21.0624 9.983
21.0776 9.905
21.0927 10.120
21.1079 9.982
21.1231 9.894
21.1383 9.857
21.1534 9.916
21.1686 9.626
21.1838 9.820
21.1990 9.914
21.2141 9.856
21.2293 9.547
21.2445 9.664
21.2597 9.738
21.2748 9.864
21.2900 9.267
21.3052 9.515
21.3204 9.814
21.3355 9.410
21.3507 9.287
21.3659 9.466
21.3811 9.835
21.3962 9.344
21.4114 9.579
21.4266 9.309
21.4418 9.236
21.4569 9.393
21.4721 9.425
21.4873 9.333
21.5025 9.189
21.5176 9.503
21.5328 9.288
21.5480 9.056
21.5632 9.132
21.5783 9.217
21.5935 9.174
21.6087 9.364
21.6239 9.207
21.6390 8.966
21.6542 8.893
21.6694 9.203
21.6846 9.246
21.6997 9.200
21.7149 9.191
21.7301 9.272
21.7453 9.215
21.7604 9.045
21.7756 9.032
21.7908 8.972
21.8060 8.967
21.8211 8.875
21.8363 8.940
21.8515 8.878
21.8667 9.100
21.8818 9.239
21.8970 9.302
21.9122 8.909
21.9274 8.953
21.9425 9.105
21.9577 9.079
21.9729 9.022
21.9881 9.078
22.0032 9.034
22.0184 8.968
22.0336 8.971
22.0488 8.739
22.0639 8.644
22.0791 8.738
22.0943 8.756
22.1095 8.700
22.1246 8.539
22.1398 8.679
22.1550 8.732
22.1702 8.529
22.1853 8.590
22.2005 8.568
22.2157 8.560
22.2309 8.474
22.2460 8.687
22.2612 8.405
22.2764 8.297
22.2916 8.494
22.3067 8.726
22.3219 8.276
22.3371 8.577
22.3523 8.572
22.3674 8.488
22.3826 8.408
22.3978 8.233
22.4130 8.272
22.4281 8.402
22.4433 8.308
22.4585 8.123
22.4737 8.433
22.4888 8.578
22.5040 8.635
22.5192 8.542
22.5344 8.555
22.5495 8.424
22.5647 8.529
22.5799 8.613
22.5951 8.670
22.6102 8.126
22.6254 8.491
22.6406 8.239
22.6558 8.362
22.6709 8.408
22.6861 8.118
22.7013 8.187
22.7165 7.869
22.7316 6.396
