'Id: "" Comment: "" Operator: "Lab Manager" Anode: "Mo" Scantype: "Still (Eiger2R_500K (1D mode))" TimePerStep: "300" X: "11.8" Y: "9.4" Z: "11.284" 
7.2532 18.808
7.2684 18.859
7.2836 18.913
7.2987 18.986
7.3139 18.833
7.3291 18.983
7.3443 19.277
7.3594 19.264
7.3746 19.448
7.3898 19.354
7.4050 19.031
7.4201 19.324
7.4353 19.414
7.4505 19.838
7.4657 19.748
7.4808 19.390
7.4960 19.382
7.5112 19.118
7.5264 19.522
7.5415 19.831
7.5567 19.728
7.5719 19.775
7.5871 19.555
7.6022 19.663
7.6174 19.945
7.6326 19.895
7.6478 20.191
7.6629 19.982
7.6781 19.856
7.6933 20.278
7.7085 20.562
7.7236 20.580
7.7388 20.562
7.7540 20.186
7.7692 20.180
7.7843 20.538
7.7995 20.445
7.8147 20.491
7.8299 20.668
7.8450 20.655
7.8602 20.608
7.8754 20.761
7.8905 20.944
7.9057 20.839
7.9209 20.921
7.9361 21.165
7.9512 21.043
7.9664 20.883
7.9816 21.018
7.9968 21.104
8.0119 20.811
8.0271 20.998
8.0423 21.097
8.0575 21.265
8.0726 21.384
8.0878 21.517
8.1030 21.326
8.1182 20.978
8.1333 21.294
8.1485 21.591
8.1637 21.333
8.1789 21.218
8.1940 21.483
8.2092 21.565
8.2244 20.806
8.2396 21.188
8.2547 21.351
8.2699 21.639
8.2851 21.695
8.3003 21.523
8.3154 21.440
8.3306 21.459
8.3458 21.417
8.3610 22.003
8.3761 22.132
8.3913 21.680
8.4065 21.727
8.4217 21.533
8.4368 22.237
8.4520 22.380
8.4672 22.025
8.4824 22.144
8.4975 21.933
8.5127 22.662
8.5279 21.533
8.5431 21.659
8.5582 21.935
8.5734 21.909
8.5886 21.746
8.6038 22.411
8.6189 22.033
8.6341 22.344
8.6493 22.298
8.6645 22.267
8.6796 22.197
8.6948 21.843
8.7100 21.975
8.7252 21.899
8.7403 22.054
8.7555 22.135
8.7707 22.298
8.7859 22.353
8.8010 22.340
8.8162 22.100
8.8314 22.599
8.8466 22.066
8.8617 22.275
8.8769 22.899
8.8921 22.581
8.9073 22.559
8.9224 22.652
8.9376 22.077
8.9528 22.805
8.9680 22.354
8.9831 22.322
8.9983 22.353
9.0135 22.497
9.0287 22.831
9.0438 23.042
9.0590 22.471
9.0742 22.539
9.0894 22.542
9.1045 22.615
9.1197 22.767
9.1349 22.782
9.1501 22.717
9.1652 22.852
9.1804 22.666
9.1956 22.678
9.2108 22.819
9.2259 22.565
9.2411 23.050
9.2563 22.857
9.2715 22.712
9.2866 23.026
9.3018 23.286
9.3170 23.040
9.3322 22.951
9.3473 23.082
9.3625 22.655
9.3777 22.524
9.3929 23.253
9.4080 23.446
9.4232 23.293
9.4384 23.316
9.4536 23.104
9.4687 23.053
9.4839 22.917
9.4991 22.851
9.5143 23.229
9.5294 23.245
9.5446 22.875
9.5598 22.825
9.5750 23.185
9.5901 22.986
9.6053 22.905
9.6205 23.010
9.6357 23.025
9.6508 23.159
9.6660 23.492
9.6812 23.605
9.6964 23.583
9.7115 23.723
9.7267 23.741
9.7419 23.858
9.7571 23.672
9.7722 23.389
9.7874 23.337
9.8026 23.554
9.8178 23.530
9.8329 23.552
9.8481 23.527
9.8633 23.201
9.8785 22.901
9.8936 22.814
9.9088 22.983
9.9240 23.087
9.9392 23.187
9.9543 23.122
9.9695 23.303
9.9847 23.151
9.9999 22.870
10.0150 23.360
10.0302 23.426
10.0454 23.124
10.0606 22.919
10.0757 23.128
10.0909 23.336
10.1061 23.625
10.1213 23.481
10.1364 23.342
10.1516 23.646
10.1668 23.542
10.1820 23.254
10.1971 23.221
10.2123 23.369
10.2275 23.265
10.2427 23.346
10.2578 23.176
10.2730 23.011
10.2882 22.720
10.3034 23.088
10.3185 23.145
10.3337 22.900
10.3489 22.685
10.3641 22.849
10.3792 22.487
10.3944 22.748
10.4096 22.880
10.4248 22.678
10.4399 22.695
10.4551 22.797
10.4703 22.733
10.4855 22.723
10.5006 22.553
10.5158 22.287
10.5310 22.631
10.5462 22.466
10.5613 22.572
10.5765 22.492
10.5917 22.456
10.6069 22.552
10.6220 22.837
10.6372 22.814
10.6524 22.738
10.6676 22.705
10.6827 22.255
10.6979 22.186
10.7131 22.537
10.7283 22.650
10.7434 22.085
10.7586 21.842
10.7738 22.320
10.7890 22.197
10.8041 22.224
10.8193 22.019
10.8345 22.034
10.8497 22.052
10.8648 21.971
10.8800 21.918
10.8952 21.935
10.9104 22.446
10.9255 22.289
10.9407 22.195
10.9559 22.212
10.9711 22.156
10.9862 21.996
11.0014 21.779
11.0166 22.365
11.0318 22.125
11.0469 21.780
11.0621 21.851
11.0773 21.790
11.0925 21.696
11.1076 22.045
11.1228 21.586
11.1380 21.881
11.1532 21.640
11.1683 21.589
11.1835 21.835
11.1987 21.899
11.2139 21.672
11.2290 21.545
11.2442 21.395
11.2594 21.111
11.2746 21.226
11.2897 21.352
11.3049 21.482
11.3201 21.609
11.3353 21.724
11.3504 21.647
11.3656 21.532
11.3808 21.340
11.3960 21.384
11.4111 21.649
11.4263 21.556
11.4415 21.279
11.4567 21.491
11.4718 21.253
11.4870 21.062
11.5022 20.919
11.5174 20.964
11.5325 21.070
11.5477 21.060
11.5629 20.885
11.5781 20.575
11.5932 21.016
11.6084 20.865
11.6236 20.947
11.6388 20.661
11.6539 20.715
11.6691 20.866
11.6843 20.850
11.6995 20.554
11.7146 20.244
11.7298 20.302
11.7450 20.534
11.7602 20.580
11.7753 20.068
11.7905 19.998
11.8057 20.117
11.8209 20.072
11.8360 19.975
11.8512 19.589
11.8664 19.606
11.8816 19.635
11.8967 19.451
11.9119 19.555
11.9271 19.606
11.9423 19.239
11.9574 19.422
11.9726 19.084
11.9878 19.080
12.0030 19.138
12.0181 19.084
12.0333 19.016
12.0485 18.906
12.0637 18.808
12.0788 19.059
12.0940 19.014
12.1092 18.843
12.1244 18.600
12.1395 18.389
12.1547 18.091
12.1699 18.235
12.1851 18.314
12.2002 18.400
12.2154 18.323
12.2306 18.223
12.2458 18.258
12.2609 17.800
12.2761 17.893
12.2913 18.093
12.3065 17.714
12.3216 17.606
12.3368 17.638
12.3520 17.390
12.3672 17.188
12.3823 17.264
12.3975 17.285
12.4127 16.662
12.4279 16.756
12.4430 16.857
12.4582 16.860
12.4734 16.849
12.4886 16.798
12.5037 16.361
12.5189 16.446
12.5341 16.621
12.5493 16.412
12.5644 16.211
12.5796 16.109
12.5948 16.050
12.6100 15.974
12.6251 15.922
12.6403 15.960
12.6555 15.821
12.6707 15.964
12.6858 16.064
12.7010 15.696
12.7162 15.399
12.7314 15.256
12.7465 15.340
12.7617 15.198
12.7769 15.219
12.7921 14.846
12.8072 14.565
12.8224 15.124
12.8376 15.152
12.8528 15.152
12.8679 15.095
12.8831 14.696
12.8983 14.803
12.9135 14.699
12.9286 14.448
12.9438 14.509
12.9590 14.646
12.9742 14.527
12.9893 14.184
13.0045 14.108
13.0197 14.231
13.0349 14.260
13.0500 14.156
13.0652 14.001
13.0804 13.812
13.0956 13.877
13.1107 13.950
13.1259 13.915
13.1411 13.610
13.1563 13.294
13.1714 13.421
13.1866 13.470
13.2018 13.311
13.2170 13.287
13.2321 13.403
13.2473 13.378
13.2625 13.382
13.2777 13.245
13.2928 13.239
13.3080 13.445
13.3232 13.197
13.3384 12.890
13.3535 12.836
13.3687 13.038
13.3839 13.225
13.3991 13.026
13.4142 12.857
13.4294 12.766
13.4446 12.684
13.4598 12.613
13.4749 12.634
13.4901 12.570
13.5053 12.643
13.5205 12.631
13.5356 12.310
13.5508 12.460
13.5660 12.689
13.5812 12.436
13.5963 12.167
13.6115 12.239
13.6267 12.232
13.6419 12.220
13.6570 12.152
13.6722 11.913
13.6874 12.048
13.7026 11.830
13.7177 11.929
13.7329 12.291
13.7481 12.291
13.7633 12.025
13.7784 12.088
13.7936 12.081
13.8088 12.206
13.8239 12.112
13.8391 11.980
13.8543 11.955
13.8695 12.012
13.8846 12.332
13.8998 12.163
13.9150 11.966
13.9302 11.954
13.9453 12.036
13.9605 11.619
13.9757 11.624
13.9909 11.612
14.0060 11.744
14.0212 11.418
14.0364 11.528
14.0516 11.650
14.0667 11.550
14.0819 11.605
14.0971 11.482
14.1123 11.324
14.1274 11.515
14.1426 11.541
14.1578 11.330
14.1730 11.361
14.1881 11.471
14.2033 11.579
14.2185 11.695
14.2337 11.349
14.2488 11.653
14.2640 11.635
14.2792 11.760
14.2944 11.915
14.3095 11.974
14.3247 12.166
14.3399 12.514
14.3551 12.546
14.3702 12.870
14.3854 12.807
14.4006 13.204
14.4158 13.313
14.4309 13.414
14.4461 13.257
14.4613 12.614
14.4765 12.342
14.4916 12.180
14.5068 12.079
14.5220 12.215
14.5372 11.973
14.5523 11.463
14.5675 11.257
14.5827 11.154
14.5979 10.947
14.6130 10.874
14.6282 10.931
14.6434 10.815
14.6586 10.535
14.6737 10.886
14.6889 10.725
14.7041 10.495
14.7193 10.752
14.7344 10.323
14.7496 10.510
14.7648 10.477
14.7800 10.574
14.7951 10.523
14.8103 10.495
14.8255 10.695
14.8407 10.315
14.8558 10.387
14.8710 10.410
14.8862 10.465
14.9014 10.442
14.9165 10.588
14.9317 10.936
14.9469 10.174
14.9621 10.179
14.9772 10.246
14.9924 10.521
15.0076 10.147
15.0228 10.416
15.0379 10.518
15.0531 10.220
15.0683 10.160
15.0835 10.097
15.0986 9.982
15.1138 10.170
15.1290 10.302
15.1442 10.375
15.1593 10.012
15.1745 9.629
15.1897 9.763
15.2049 9.927
15.2200 9.990
15.2352 10.057
15.2504 10.086
15.2656 10.270
15.2807 9.957
15.2959 10.332
15.3111 10.148
15.3263 10.061
15.3414 10.225
15.3566 9.925
15.3718 9.876
15.3870 9.880
15.4021 10.123
15.4173 10.026
15.4325 10.413
15.4477 9.799
15.4628 10.090
15.4780 10.065
15.4932 10.127
15.5084 10.337
15.5235 9.901
15.5387 9.855
15.5539 9.783
15.5691 9.903
15.5842 9.922
15.5994 9.810
15.6146 9.965
15.6298 9.977
15.6449 9.920
15.6601 9.994
15.6753 9.840
15.6905 9.855
15.7056 9.527
15.7208 9.593
15.7360 9.878
15.7512 9.526
15.7663 9.751
15.7815 9.837
15.7967 9.881
15.8119 9.627
15.8270 9.787
15.8422 9.829
15.8574 9.699
15.8726 9.744
15.8877 9.341
15.9029 9.645
15.9181 9.555
15.9333 9.661
15.9484 9.675
15.9636 9.430
15.9788 9.329
15.9940 9.449
16.0091 9.654
16.0243 9.551
16.0395 9.743
16.0547 9.485
16.0698 9.551
16.0850 9.534
16.1002 9.459
16.1154 9.493
16.1305 9.364
16.1457 9.613
16.1609 9.661
16.1761 9.611
16.1912 9.494
16.2064 9.493
16.2216 9.731
16.2368 9.845
16.2519 9.779
16.2671 9.646
16.2823 9.501
16.2975 9.658
16.3126 9.807
16.3278 10.027
16.3430 9.794
16.3582 9.777
16.3733 9.970
16.3885 9.880
16.4037 9.778
16.4189 10.038
16.4340 10.021
16.4492 9.682
16.4644 9.747
16.4796 9.923
16.4947 9.754
16.5099 9.568
16.5251 9.748
16.5403 9.607
16.5554 9.930
16.5706 9.857
16.5858 9.772
16.6010 9.773
16.6161 9.506
16.6313 9.458
16.6465 9.532
16.6617 9.493
16.6768 9.660
16.6920 9.742
16.7072 9.610
16.7224 9.811
16.7375 9.884
16.7527 9.765
16.7679 9.739
16.7831 9.947
16.7982 10.064
16.8134 9.923
16.8286 9.914
16.8438 9.677
16.8589 9.593
16.8741 9.784
16.8893 9.872
16.9045 9.855
16.9196 9.667
16.9348 9.677
16.9500 9.533
16.9652 9.717
16.9803 9.781
16.9955 9.761
17.0107 9.839
17.0259 9.842
17.0410 9.956
17.0562 9.961
17.0714 10.029
17.0866 10.082
17.1017 10.139
17.1169 10.462
17.1321 10.755
17.1473 11.271
17.1624 11.614
17.1776 12.084
17.1928 12.854
17.2080 13.804
17.2231 15.051
17.2383 16.164
17.2535 17.343
17.2687 18.417
17.2838 18.685
17.2990 17.826
17.3142 16.688
17.3294 16.136
17.3445 15.883
17.3597 15.867
17.3749 15.898
17.3901 15.197
17.4052 14.006
17.4204 13.250
17.4356 12.512
17.4508 11.618
17.4659 11.198
17.4811 10.967
17.4963 10.952
17.5115 11.111
17.5266 10.882
17.5418 10.561
17.5570 10.622
17.5722 10.638
17.5873 10.782
17.6025 11.113
17.6177 11.060
17.6329 11.135
17.6480 11.311
17.6632 11.664
17.6784 12.010
17.6936 12.028
17.7087 12.203
17.7239 11.983
17.7391 11.529
17.7543 11.236
17.7694 11.179
17.7846 11.480
17.7998 11.512
17.8150 11.304
17.8301 10.762
17.8453 10.532
17.8605 10.460
17.8757 10.481
17.8908 10.557
17.9060 10.482
17.9212 10.341
17.9364 10.297
17.9515 10.207
17.9667 10.044
17.9819 9.982
17.9971 10.254
18.0122 10.445
18.0274 10.442
18.0426 10.362
18.0578 10.137
18.0729 10.052
18.0881 10.086
18.1033 9.933
18.1185 9.948
18.1336 10.135
18.1488 9.981
18.1640 9.866
18.1792 9.853
18.1943 9.880
18.2095 9.951
18.2247 10.113
18.2399 10.025
18.2550 9.606
18.2702 9.755
18.2854 9.961
18.3006 10.010
18.3157 9.874
18.3309 9.705
18.3461 9.752
18.3613 9.681
18.3764 9.625
18.3916 9.848
18.4068 9.821
18.4220 9.780
18.4371 9.692
18.4523 9.845
18.4675 9.914
18.4827 9.888
18.4978 9.774
18.5130 9.761
18.5282 9.867
18.5434 9.677
18.5585 9.760
18.5737 9.866
18.5889 9.695
18.6041 9.552
18.6192 9.560
18.6344 9.683
18.6496 9.534
18.6648 9.511
18.6799 9.697
18.6951 9.619
18.7103 9.590
18.7255 9.700
18.7406 9.671
18.7558 9.811
18.7710 9.667
18.7862 9.787
18.8013 9.734
18.8165 9.550
18.8317 9.933
18.8469 9.917
18.8620 9.777
18.8772 9.916
18.8924 10.009
18.9076 9.941
18.9227 10.063
18.9379 9.947
18.9531 9.980
18.9683 10.145
18.9834 9.933
18.9986 10.136
19.0138 10.336
19.0290 10.252
19.0441 10.132
19.0593 10.098
19.0745 10.108
19.0897 10.124
19.1048 10.159
19.1200 10.380
19.1352 10.320
19.1504 10.311
19.1655 10.640
19.1807 10.600
19.1959 10.550
19.2111 10.747
19.2262 10.647
19.2414 10.596
19.2566 10.704
19.2718 10.689
19.2869 10.798
19.3021 10.979
19.3173 10.873
19.3325 10.824
19.3476 11.172
19.3628 11.136
19.3780 10.969
19.3932 11.088
19.4083 11.105
19.4235 11.156
19.4387 11.366
19.4539 11.595
19.4690 11.544
19.4842 11.472
19.4994 11.421
19.5146 11.454
19.5297 11.418
19.5449 11.301
19.5601 11.357
19.5753 11.525
19.5904 11.718
19.6056 11.762
19.6208 11.697
19.6360 11.705
19.6511 11.717
19.6663 11.690
19.6815 11.895
19.6967 11.739
19.7118 11.601
19.7270 11.648
19.7422 11.688
19.7574 11.632
19.7725 11.582
19.7877 11.984
19.8029 12.154
19.8180 12.085
19.8332 12.186
19.8484 12.280
19.8636 12.420
19.8787 12.570
19.8939 12.859
19.9091 13.208
19.9243 13.382
19.9394 13.680
19.9546 14.015
19.9698 14.494
19.9850 14.615
20.0001 14.292
20.0153 14.020
20.0305 13.718
20.0457 13.716
20.0608 13.793
20.0760 13.659
20.0912 13.636
20.1064 13.643
20.1215 13.421
20.1367 13.222
20.1519 13.035
20.1671 13.003
20.1822 12.913
20.1974 12.891
20.2126 12.975
20.2278 13.035
20.2429 12.782
20.2581 12.181
20.2733 12.284
20.2885 11.946
20.3036 11.815
20.3188 11.965
20.3340 12.041
20.3492 12.111
20.3643 11.865
20.3795 11.566
20.3947 11.580
20.4099 11.690
20.4250 12.078
20.4402 12.083
20.4554 12.196
20.4706 12.184
20.4857 12.224
20.5009 12.108
20.5161 11.882
20.5313 11.597
20.5464 11.538
20.5616 11.621
20.5768 11.472
20.5920 11.509
20.6071 11.278
20.6223 11.170
20.6375 11.100
20.6527 10.939
20.6678 10.754
20.6830 10.614
20.6982 10.575
20.7134 10.680
20.7285 10.608
20.7437 10.641
20.7589 10.646
20.7741 10.499
20.7892 10.451
20.8044 10.346
20.8196 10.243
20.8348 10.539
20.8499 10.185
20.8651 10.466
20.8803 10.022
20.8955 10.433
20.9106 10.271
20.9258 9.909
20.9410 10.206
20.9562 10.124
20.9713 9.933
20.9865 9.942
21.0017 10.244
21.0169 10.079
21.0320 9.767
21.0472 10.087
21.0624 10.071
21.0776 10.069
21.0927 9.946
21.1079 9.909
21.1231 10.099
21.1383 9.710
21.1534 9.920
21.1686 10.123
21.1838 10.113
21.1990 9.760
21.2141 9.701
21.2293 9.690
21.2445 9.998
21.2597 9.683
21.2748 9.549
21.2900 9.870
21.3052 9.430
21.3204 9.398
21.3355 9.428
21.3507 9.740
21.3659 9.438
21.3811 9.547
21.3962 9.804
21.4114 9.203
21.4266 9.392
21.4418 9.505
21.4569 9.238
21.4721 9.417
21.4873 9.514
21.5025 9.764
21.5176 9.353
21.5328 9.288
21.5480 9.130
21.5632 9.020
21.5783 9.338
21.5935 9.356
21.6087 9.620
21.6239 9.431
21.6390 9.379
21.6542 9.481
21.6694 9.267
21.6846 9.164
21.6997 9.341
21.7149 9.239
21.7301 8.860
21.7453 9.195
21.7604 9.252
21.7756 9.001
21.7908 9.082
21.8060 9.128
21.8211 8.970
21.8363 8.937
21.8515 8.870
21.8667 8.904
21.8818 9.023
21.8970 9.041
21.9122 9.043
21.9274 8.973
21.9425 8.828
21.9577 8.903
21.9729 9.128
21.9881 8.974
22.0032 8.736
22.0184 8.666
22.0336 8.664
22.0488 8.821
22.0639 8.868
22.0791 8.751
22.0943 8.760
22.1095 8.655
22.1246 8.577
22.1398 8.701
22.1550 8.685
22.1702 8.567
22.1853 8.403
22.2005 8.486
22.2157 8.398
22.2309 8.126
22.2460 8.584
22.2612 8.675
22.2764 8.439
22.2916 8.587
22.3067 8.460
22.3219 8.463
22.3371 8.486
22.3523 8.439
22.3674 8.360
22.3826 8.587
22.3978 8.550
22.4130 8.490
22.4281 8.437
22.4433 8.572
22.4585 8.289
22.4737 8.271
22.4888 8.642
22.5040 8.309
22.5192 8.454
22.5344 8.295
22.5495 8.061
22.5647 8.218
22.5799 8.425
22.5951 8.410
22.6102 8.378
22.6254 8.461
22.6406 8.414
22.6558 8.132
22.6709 8.358
22.6861 8.183
22.7013 7.992
22.7165 7.896
22.7316 6.345
