'Id: "" Comment: "" Operator: "Lab Manager" Anode: "Mo" Scantype: "Still (Eiger2R_500K (1D mode))" TimePerStep: "300" X: "11.8" Y: "9.4" Z: "11.284" 
7.2532 18.496
7.2684 18.913
7.2836 18.655
7.2987 18.770
7.3139 19.339
7.3291 19.129
7.3443 19.377
7.3594 19.154
7.3746 19.391
7.3898 19.166
7.4050 19.476
7.4201 19.126
7.4353 19.371
7.4505 19.190
7.4657 19.134
7.4808 19.523
7.4960 19.699
7.5112 19.791
7.5264 19.725
7.5415 19.619
7.5567 19.850
7.5719 20.111
7.5871 20.158
7.6022 20.399
7.6174 20.247
7.6326 20.116
7.6478 20.057
7.6629 20.128
7.6781 20.170
7.6933 20.402
7.7085 20.414
7.7236 20.398
7.7388 20.588
7.7540 20.266
7.7692 20.246
7.7843 20.546
7.7995 20.714
7.8147 20.698
7.8299 20.538
7.8450 20.634
7.8602 20.987
7.8754 21.126
7.8905 21.378
7.9057 21.345
7.9209 21.318
7.9361 21.103
7.9512 21.124
7.9664 21.030
7.9816 21.057
7.9968 21.105
8.0119 21.264
8.0271 21.528
8.0423 21.601
8.0575 21.317
8.0726 21.361
8.0878 21.526
8.1030 21.391
8.1182 21.205
8.1333 21.571
8.1485 21.443
8.1637 21.373
8.1789 21.180
8.1940 21.312
8.2092 21.530
8.2244 21.184
8.2396 21.785
8.2547 21.678
8.2699 21.768
8.2851 21.786
8.3003 21.877
8.3154 21.813
8.3306 22.397
8.3458 22.415
8.3610 22.047
8.3761 21.715
8.3913 22.010
8.4065 21.850
8.4217 22.014
8.4368 21.964
8.4520 22.371
8.4672 21.930
8.4824 22.030
8.4975 21.707
8.5127 22.169
8.5279 22.312
8.5431 22.153
8.5582 22.307
8.5734 22.044
8.5886 22.294
8.6038 22.095
8.6189 22.517
8.6341 22.221
8.6493 21.944
8.6645 22.315
8.6796 22.675
8.6948 23.204
8.7100 22.728
8.7252 22.549
8.7403 22.705
8.7555 22.797
8.7707 22.714
8.7859 22.628
8.8010 22.702
8.8162 22.604
8.8314 22.787
8.8466 22.686
8.8617 22.362
8.8769 22.183
8.8921 22.582
8.9073 22.536
8.9224 22.585
8.9376 23.067
8.9528 22.817
8.9680 22.550
8.9831 22.712
8.9983 22.736
9.0135 22.647
9.0287 22.834
9.0438 22.953
9.0590 23.236
9.0742 22.886
9.0894 22.811
9.1045 22.928
9.1197 23.275
9.1349 22.916
9.1501 22.958
9.1652 22.759
9.1804 23.154
9.1956 23.319
9.2108 23.271
9.2259 23.179
9.2411 23.095
9.2563 23.144
9.2715 22.900
9.2866 22.851
9.3018 23.196
9.3170 23.562
9.3322 23.676
9.3473 23.115
9.3625 22.973
9.3777 23.298
9.3929 23.441
9.4080 23.164
9.4232 23.002
9.4384 23.380
9.4536 23.352
9.4687 23.315
9.4839 23.178
9.4991 23.439
9.5143 23.499
9.5294 23.503
9.5446 23.334
9.5598 22.997
9.5750 23.428
9.5901 23.618
9.6053 23.643
9.6205 23.798
9.6357 23.433
9.6508 23.426
9.6660 23.480
9.6812 23.533
9.6964 23.537
9.7115 23.585
9.7267 23.783
9.7419 23.900
9.7571 24.213
9.7722 24.278
9.7874 24.048
9.8026 23.965
9.8178 23.824
9.8329 23.663
9.8481 23.530
9.8633 23.318
9.8785 23.227
9.8936 23.225
9.9088 23.211
9.9240 23.423
9.9392 23.451
9.9543 23.135
9.9695 23.252
9.9847 23.119
9.9999 23.119
10.0150 23.587
10.0302 23.608
10.0454 23.496
10.0606 23.058
10.0757 23.049
10.0909 23.355
10.1061 23.459
10.1213 23.397
10.1364 23.417
10.1516 23.514
10.1668 23.200
10.1820 22.884
10.1971 22.999
10.2123 23.243
10.2275 23.817
10.2427 24.119
10.2578 23.739
10.2730 23.832
10.2882 23.669
10.3034 23.464
10.3185 23.199
10.3337 23.325
10.3489 23.174
10.3641 22.948
10.3792 23.154
10.3944 22.954
10.4096 22.853
10.4248 22.873
10.4399 22.912
10.4551 22.857
10.4703 22.969
10.4855 22.665
10.5006 22.749
10.5158 22.447
10.5310 22.735
10.5462 22.690
10.5613 22.746
10.5765 22.981
10.5917 23.021
10.6069 22.812
10.6220 22.821
10.6372 22.832
10.6524 22.589
10.6676 22.637
10.6827 22.642
10.6979 22.524
10.7131 22.439
10.7283 22.449
10.7434 22.626
10.7586 22.443
10.7738 22.509
10.7890 22.422
10.8041 22.029
10.8193 22.386
10.8345 22.555
10.8497 22.452
10.8648 22.297
10.8800 22.326
10.8952 22.273
10.9104 22.000
10.9255 22.191
10.9407 22.307
10.9559 22.302
10.9711 22.213
10.9862 22.487
11.0014 22.132
11.0166 22.557
11.0318 22.617
11.0469 22.180
11.0621 22.264
11.0773 22.325
11.0925 22.056
11.1076 22.288
11.1228 22.302
11.1380 21.904
11.1532 22.018
11.1683 22.321
11.1835 22.120
11.1987 21.659
11.2139 21.572
11.2290 21.668
11.2442 21.729
11.2594 22.013
11.2746 21.822
11.2897 21.635
11.3049 21.685
11.3201 21.823
11.3353 21.845
11.3504 21.589
11.3656 21.518
11.3808 21.637
11.3960 21.689
11.4111 21.724
11.4263 21.398
11.4415 20.887
11.4567 21.162
11.4718 21.130
11.4870 21.178
11.5022 21.243
11.5174 21.322
11.5325 21.476
11.5477 21.215
11.5629 20.878
11.5781 21.112
11.5932 21.282
11.6084 20.917
11.6236 20.879
11.6388 20.805
11.6539 20.528
11.6691 20.644
11.6843 20.300
11.6995 20.487
11.7146 20.484
11.7298 20.490
11.7450 20.097
11.7602 20.130
11.7753 20.332
11.7905 20.128
11.8057 20.022
11.8209 20.329
11.8360 20.196
11.8512 20.181
11.8664 19.898
11.8816 19.833
11.8967 20.349
11.9119 20.141
11.9271 19.723
11.9423 19.989
11.9574 19.676
11.9726 19.039
11.9878 19.323
12.0030 19.281
12.0181 19.256
12.0333 19.360
12.0485 19.292
12.0637 19.015
12.0788 18.888
12.0940 18.941
12.1092 18.828
12.1244 18.806
12.1395 18.847
12.1547 18.560
12.1699 18.421
12.1851 18.365
12.2002 18.346
12.2154 18.239
12.2306 18.280
12.2458 18.136
12.2609 18.194
12.2761 17.808
12.2913 17.560
12.3065 17.693
12.3216 17.460
12.3368 17.332
12.3520 17.466
12.3672 17.501
12.3823 17.719
12.3975 17.764
12.4127 17.537
12.4279 17.465
12.4430 17.643
12.4582 17.130
12.4734 17.065
12.4886 17.138
12.5037 16.993
12.5189 16.801
12.5341 16.699
12.5493 16.691
12.5644 16.486
12.5796 16.426
12.5948 16.249
12.6100 16.078
12.6251 15.993
12.6403 16.167
12.6555 16.155
12.6707 15.886
12.6858 15.754
12.7010 15.720
12.7162 15.634
12.7314 15.650
12.7465 15.658
12.7617 15.485
12.7769 15.480
12.7921 15.424
12.8072 15.254
12.8224 15.105
12.8376 15.181
12.8528 15.358
12.8679 15.172
12.8831 14.788
12.8983 14.696
12.9135 14.806
12.9286 14.769
12.9438 14.669
12.9590 14.486
12.9742 14.422
12.9893 14.412
13.0045 14.464
13.0197 14.577
13.0349 14.314
13.0500 14.050
13.0652 14.052
13.0804 14.027
13.0956 14.051
13.1107 14.073
13.1259 14.032
13.1411 13.968
13.1563 13.673
13.1714 13.478
13.1866 13.508
13.2018 13.451
13.2170 13.478
13.2321 13.490
13.2473 13.328
13.2625 13.173
13.2777 13.190
13.2928 13.158
13.3080 13.049
13.3232 13.139
13.3384 13.131
13.3535 13.163
13.3687 13.249
13.3839 13.185
13.3991 13.035
13.4142 13.006
13.4294 12.999
13.4446 12.743
13.4598 12.645
13.4749 12.556
13.4901 12.782
13.5053 12.835
13.5205 12.698
13.5356 12.665
13.5508 12.556
13.5660 12.556
13.5812 12.460
13.5963 12.445
13.6115 12.461
13.6267 12.264
13.6419 12.067
13.6570 12.210
13.6722 12.243
13.6874 12.208
13.7026 12.103
13.7177 12.143
13.7329 12.068
13.7481 11.856
13.7633 12.003
13.7784 12.138
13.7936 12.340
13.8088 12.393
13.8239 12.291
13.8391 12.489
13.8543 12.644
13.8695 12.376
13.8846 12.069
13.8998 12.409
13.9150 12.197
13.9302 12.142
13.9453 12.045
13.9605 11.936
13.9757 11.900
13.9909 11.732
14.0060 11.777
14.0212 11.669
14.0364 11.498
14.0516 11.659
14.0667 11.736
14.0819 11.517
14.0971 11.648
14.1123 11.699
14.1274 11.551
14.1426 11.495
14.1578 11.715
14.1730 11.712
14.1881 11.710
14.2033 11.849
14.2185 11.883
14.2337 11.848
14.2488 11.739
14.2640 11.797
14.2792 11.982
14.2944 11.638
14.3095 11.749
14.3247 11.947
14.3399 11.732
14.3551 12.016
14.3702 12.142
14.3854 12.411
14.4006 12.470
14.4158 12.562
14.4309 12.316
14.4461 12.350
14.4613 12.342
14.4765 12.087
14.4916 11.650
14.5068 11.847
14.5220 11.708
14.5372 11.240
14.5523 11.075
14.5675 11.266
14.5827 11.270
14.5979 11.148
14.6130 11.281
14.6282 10.940
14.6434 10.896
14.6586 11.119
14.6737 10.864
14.6889 11.124
14.7041 10.554
14.7193 10.822
14.7344 10.819
14.7496 10.925
14.7648 10.839
14.7800 10.703
14.7951 10.452
14.8103 10.512
14.8255 10.657
14.8407 10.690
14.8558 10.661
14.8710 10.737
14.8862 10.665
14.9014 10.742
14.9165 10.976
14.9317 11.000
14.9469 10.664
14.9621 10.594
14.9772 10.648
14.9924 10.434
15.0076 10.702
15.0228 10.537
15.0379 10.814
15.0531 10.833
15.0683 10.294
15.0835 10.342
15.0986 10.291
15.1138 10.151
15.1290 10.330
15.1442 10.393
15.1593 10.459
15.1745 10.592
15.1897 10.047
15.2049 10.528
15.2200 10.466
15.2352 10.465
15.2504 10.267
15.2656 10.532
15.2807 10.324
15.2959 10.322
15.3111 10.288
15.3263 10.312
15.3414 10.297
15.3566 10.147
15.3718 10.347
15.3870 10.420
15.4021 10.399
15.4173 10.117
15.4325 10.666
15.4477 10.373
15.4628 10.575
15.4780 10.130
15.4932 10.480
15.5084 10.192
15.5235 10.518
15.5387 10.294
15.5539 10.330
15.5691 9.985
15.5842 10.117
15.5994 10.300
15.6146 10.213
15.6298 10.335
15.6449 10.165
15.6601 9.815
15.6753 9.943
15.6905 9.828
15.7056 9.814
15.7208 9.744
15.7360 9.905
15.7512 9.832
15.7663 9.952
15.7815 10.241
15.7967 10.017
15.8119 9.823
15.8270 9.836
15.8422 9.853
15.8574 9.829
15.8726 9.907
15.8877 9.753
15.9029 10.156
15.9181 9.875
15.9333 9.681
15.9484 9.785
15.9636 9.874
15.9788 9.888
15.9940 10.117
16.0091 10.001
16.0243 9.943
16.0395 10.010
16.0547 9.888
16.0698 9.970
16.0850 9.817
16.1002 9.961
16.1154 9.587
16.1305 9.795
16.1457 9.911
16.1609 9.798
16.1761 9.589
16.1912 9.471
16.2064 9.637
16.2216 9.838
16.2368 9.840
16.2519 9.927
16.2671 9.886
16.2823 9.846
16.2975 9.791
16.3126 10.041
16.3278 10.034
16.3430 10.094
16.3582 10.008
16.3733 9.969
16.3885 10.068
16.4037 10.242
16.4189 10.344
16.4340 10.151
16.4492 9.914
16.4644 9.942
16.4796 9.964
16.4947 10.074
16.5099 9.802
16.5251 9.717
16.5403 9.746
16.5554 9.772
16.5706 9.666
16.5858 9.753
16.6010 9.439
16.6161 9.640
16.6313 9.787
16.6465 9.918
16.6617 9.902
16.6768 9.766
16.6920 9.876
16.7072 10.081
16.7224 10.357
16.7375 10.476
16.7527 10.229
16.7679 10.045
16.7831 9.749
16.7982 9.830
16.8134 10.071
16.8286 10.026
16.8438 9.956
16.8589 10.109
16.8741 9.874
16.8893 9.940
16.9045 10.038
16.9196 9.930
16.9348 9.839
16.9500 9.786
16.9652 9.877
16.9803 9.734
16.9955 9.708
17.0107 10.095
17.0259 10.154
17.0410 9.922
17.0562 9.910
17.0714 10.299
17.0866 10.611
17.1017 10.735
17.1169 10.744
17.1321 10.868
17.1473 11.476
17.1624 12.009
17.1776 12.549
17.1928 13.210
17.2080 14.147
17.2231 15.333
17.2383 16.438
17.2535 17.756
17.2687 18.591
17.2838 18.380
17.2990 17.861
17.3142 17.170
17.3294 16.602
17.3445 16.364
17.3597 16.177
17.3749 15.932
17.3901 15.298
17.4052 14.185
17.4204 13.278
17.4356 12.756
17.4508 12.240
17.4659 11.625
17.4811 11.383
17.4963 11.540
17.5115 11.449
17.5266 11.272
17.5418 11.130
17.5570 11.104
17.5722 11.204
17.5873 11.336
17.6025 11.216
17.6177 10.832
17.6329 10.739
17.6480 10.922
17.6632 10.885
17.6784 10.518
17.6936 10.404
17.7087 10.512
17.7239 10.314
17.7391 10.336
17.7543 10.427
17.7694 10.255
17.7846 9.968
17.7998 9.996
17.8150 10.100
17.8301 10.155
17.8453 10.295
17.8605 10.143
17.8757 10.099
17.8908 10.278
17.9060 10.418
17.9212 10.325
17.9364 10.146
17.9515 9.943
17.9667 10.244
17.9819 10.432
17.9971 10.308
18.0122 10.484
18.0274 10.240
18.0426 10.105
18.0578 10.444
18.0729 10.261
18.0881 10.029
18.1033 10.319
18.1185 10.206
18.1336 10.156
18.1488 10.129
18.1640 9.790
18.1792 9.827
18.1943 10.170
18.2095 10.122
18.2247 10.010
18.2399 10.020
18.2550 9.868
18.2702 9.897
18.2854 9.818
18.3006 9.808
18.3157 10.012
18.3309 9.898
18.3461 9.862
18.3613 9.971
18.3764 9.978
18.3916 10.024
18.4068 9.969
18.4220 9.937
18.4371 9.915
18.4523 9.881
18.4675 9.743
18.4827 9.754
18.4978 9.600
18.5130 9.690
18.5282 9.646
18.5434 9.721
18.5585 9.822
18.5737 9.721
18.5889 9.807
18.6041 9.746
18.6192 9.745
18.6344 9.834
18.6496 9.739
18.6648 9.849
18.6799 9.746
18.6951 9.598
18.7103 9.709
18.7255 9.515
18.7406 9.478
18.7558 9.977
18.7710 10.095
18.7862 9.957
18.8013 9.799
18.8165 9.731
18.8317 9.764
18.8469 9.860
18.8620 9.937
18.8772 9.997
18.8924 9.889
18.9076 9.838
18.9227 9.932
18.9379 9.999
18.9531 9.977
18.9683 9.960
18.9834 9.905
18.9986 10.009
19.0138 10.129
19.0290 10.096
19.0441 10.087
19.0593 10.261
19.0745 10.239
19.0897 10.364
19.1048 10.448
19.1200 10.245
19.1352 10.379
19.1504 10.514
19.1655 10.407
19.1807 10.295
19.1959 10.282
19.2111 10.506
19.2262 10.844
19.2414 10.778
19.2566 10.818
19.2718 10.863
19.2869 11.009
19.3021 10.998
19.3173 11.044
19.3325 11.195
19.3476 11.085
19.3628 11.036
19.3780 11.169
19.3932 11.288
19.4083 11.342
19.4235 11.273
19.4387 11.309
19.4539 11.389
19.4690 11.587
19.4842 11.527
19.4994 11.274
19.5146 11.181
19.5297 11.324
19.5449 11.572
19.5601 11.559
19.5753 11.464
19.5904 11.613
19.6056 11.629
19.6208 11.591
19.6360 11.545
19.6511 11.536
19.6663 11.682
19.6815 11.789
19.6967 11.755
19.7118 11.719
19.7270 11.734
19.7422 11.749
19.7574 11.908
19.7725 12.055
19.7877 11.781
19.8029 11.797
19.8180 11.829
19.8332 11.657
19.8484 11.998
19.8636 12.370
19.8787 12.502
19.8939 12.701
19.9091 12.999
19.9243 13.419
19.9394 13.706
19.9546 14.009
19.9698 14.142
19.9850 14.200
20.0001 14.417
20.0153 14.239
20.0305 13.710
20.0457 13.611
20.0608 13.723
20.0760 13.783
20.0912 13.791
20.1064 13.680
20.1215 13.530
20.1367 13.302
20.1519 12.983
20.1671 12.827
20.1822 12.956
20.1974 13.131
20.2126 12.867
20.2278 12.751
20.2429 12.790
20.2581 12.337
20.2733 12.199
20.2885 12.111
20.3036 11.742
20.3188 11.756
20.3340 11.819
20.3492 11.486
20.3643 11.386
20.3795 11.174
20.3947 10.990
20.4099 11.236
20.4250 11.113
20.4402 10.861
20.4554 10.839
20.4706 10.770
20.4857 10.595
20.5009 10.576
20.5161 10.749
20.5313 10.510
20.5464 10.572
20.5616 10.743
20.5768 10.776
20.5920 10.512
20.6071 10.736
20.6223 10.624
20.6375 10.746
20.6527 10.523
20.6678 10.616
20.6830 10.379
20.6982 10.443
20.7134 10.346
20.7285 10.691
20.7437 10.619
20.7589 10.743
20.7741 10.517
20.7892 10.321
20.8044 10.273
20.8196 10.481
20.8348 10.428
20.8499 10.203
20.8651 10.322
20.8803 10.190
20.8955 10.360
20.9106 10.132
20.9258 9.740
20.9410 10.217
20.9562 10.104
20.9713 10.005
20.9865 9.795
21.0017 9.765
21.0169 9.728
21.0320 9.762
21.0472 10.153
21.0624 9.770
21.0776 9.729
21.0927 9.883
21.1079 9.752
21.1231 9.688
21.1383 10.217
21.1534 9.748
21.1686 9.724
21.1838 9.693
21.1990 9.613
21.2141 9.663
21.2293 9.442
21.2445 9.701
21.2597 9.932
21.2748 9.501
21.2900 9.575
21.3052 9.636
21.3204 9.566
21.3355 9.501
21.3507 9.465
21.3659 9.532
21.3811 9.541
21.3962 9.626
21.4114 9.508
21.4266 9.514
21.4418 9.300
21.4569 9.111
21.4721 9.309
21.4873 9.312
21.5025 9.422
21.5176 9.387
21.5328 9.633
21.5480 9.593
21.5632 9.104
21.5783 9.099
21.5935 9.352
21.6087 9.179
21.6239 9.415
21.6390 9.350
21.6542 9.167
21.6694 9.066
21.6846 8.989
21.6997 9.173
21.7149 9.191
21.7301 8.799
21.7453 9.040
21.7604 9.060
21.7756 8.850
21.7908 8.967
21.8060 9.013
21.8211 9.133
21.8363 9.141
21.8515 9.023
21.8667 8.996
21.8818 9.149
21.8970 9.260
21.9122 9.217
21.9274 9.152
21.9425 9.153
21.9577 9.075
21.9729 8.969
21.9881 8.920
22.0032 8.987
22.0184 8.948
22.0336 8.985
22.0488 8.976
22.0639 8.739
22.0791 8.750
22.0943 8.831
22.1095 8.700
22.1246 8.510
22.1398 8.698
22.1550 8.728
22.1702 8.660
22.1853 8.565
22.2005 8.694
22.2157 8.752
22.2309 8.680
22.2460 8.708
22.2612 8.584
22.2764 8.422
22.2916 8.655
22.3067 8.616
22.3219 8.456
22.3371 8.577
22.3523 8.426
22.3674 8.402
22.3826 8.377
22.3978 8.369
22.4130 8.418
22.4281 8.266
22.4433 8.463
22.4585 8.311
22.4737 8.560
22.4888 8.739
22.5040 8.500
22.5192 8.745
22.5344 8.282
22.5495 8.271
22.5647 8.528
22.5799 8.544
22.5951 8.643
22.6102 8.565
22.6254 8.770
22.6406 8.429
22.6558 8.572
22.6709 8.246
22.6861 8.566
22.7013 8.454
22.7165 8.077
22.7316 6.498
