'Id: "" Comment: "" Operator: "Lab Manager" Anode: "Mo" Scantype: "Still (Eiger2R_500K (1D mode))" TimePerStep: "300" X: "11.8" Y: "9.4" Z: "11.284" 
7.2532 18.573
7.2684 19.162
7.2836 19.493
7.2987 19.453
7.3139 19.183
7.3291 19.259
7.3443 19.096
7.3594 19.922
7.3746 19.729
7.3898 19.709
7.4050 19.529
7.4201 19.526
7.4353 19.498
7.4505 19.666
7.4657 19.658
7.4808 19.806
7.4960 20.165
7.5112 19.648
7.5264 19.785
7.5415 19.750
7.5567 19.670
7.5719 20.148
7.5871 20.053
7.6022 20.236
7.6174 20.191
7.6326 20.025
7.6478 20.432
7.6629 20.160
7.6781 20.396
7.6933 20.897
7.7085 20.685
7.7236 20.612
7.7388 20.401
7.7540 20.400
7.7692 20.575
7.7843 20.707
7.7995 20.813
7.8147 20.680
7.8299 20.528
7.8450 20.870
7.8602 21.367
7.8754 21.274
7.8905 21.190
7.9057 21.057
7.9209 21.100
7.9361 21.330
7.9512 21.557
7.9664 21.466
7.9816 21.250
7.9968 21.252
8.0119 20.991
8.0271 21.078
8.0423 21.365
8.0575 21.487
8.0726 21.566
8.0878 21.942
8.1030 21.759
8.1182 21.657
8.1333 21.674
8.1485 21.688
8.1637 21.601
8.1789 21.414
8.1940 21.862
8.2092 22.241
8.2244 21.909
8.2396 22.469
8.2547 22.150
8.2699 21.956
8.2851 22.036
8.3003 22.052
8.3154 22.008
8.3306 21.526
8.3458 22.106
8.3610 22.153
8.3761 21.691
8.3913 21.994
8.4065 22.087
8.4217 21.968
8.4368 21.714
8.4520 21.985
8.4672 22.245
8.4824 22.100
8.4975 22.137
8.5127 22.398
8.5279 22.095
8.5431 22.516
8.5582 22.504
8.5734 22.077
8.5886 22.501
8.6038 22.775
8.6189 22.893
8.6341 22.025
8.6493 22.688
8.6645 22.461
8.6796 22.622
8.6948 22.851
8.7100 22.411
8.7252 22.736
8.7403 22.542
8.7555 22.662
8.7707 22.236
8.7859 22.556
8.8010 22.883
8.8162 22.730
8.8314 23.211
8.8466 23.245
8.8617 22.480
8.8769 22.648
8.8921 23.362
8.9073 22.920
8.9224 22.898
8.9376 23.168
8.9528 22.813
8.9680 22.681
8.9831 22.762
8.9983 22.789
9.0135 22.543
9.0287 22.905
9.0438 22.846
9.0590 22.851
9.0742 23.225
9.0894 23.010
9.1045 22.909
9.1197 23.029
9.1349 22.823
9.1501 23.116
9.1652 22.790
9.1804 22.686
9.1956 23.193
9.2108 23.265
9.2259 22.896
9.2411 23.040
9.2563 23.592
9.2715 23.559
9.2866 23.486
9.3018 23.426
9.3170 23.412
9.3322 23.285
9.3473 23.117
9.3625 23.408
9.3777 23.602
9.3929 23.389
9.4080 23.431
9.4232 23.157
9.4384 23.447
9.4536 23.459
9.4687 23.376
9.4839 23.503
9.4991 23.260
9.5143 23.146
9.5294 23.174
9.5446 23.540
9.5598 23.666
9.5750 23.686
9.5901 23.936
9.6053 24.014
9.6205 23.628
9.6357 23.599
9.6508 23.778
9.6660 23.783
9.6812 23.937
9.6964 24.006
9.7115 24.106
9.7267 24.429
9.7419 24.803
9.7571 24.738
9.7722 24.470
9.7874 24.361
9.8026 24.390
9.8178 24.285
9.8329 24.155
9.8481 24.348
9.8633 24.266
9.8785 23.969
9.8936 23.998
9.9088 24.179
9.9240 24.332
9.9392 24.435
9.9543 24.371
9.9695 24.459
9.9847 24.273
9.9999 23.971
10.0150 23.969
10.0302 24.116
10.0454 24.101
10.0606 23.574
10.0757 23.233
10.0909 23.354
10.1061 23.826
10.1213 23.862
10.1364 23.968
10.1516 24.148
10.1668 24.333
10.1820 24.145
10.1971 24.109
10.2123 24.084
10.2275 23.925
10.2427 23.691
10.2578 23.732
10.2730 23.693
10.2882 23.462
10.3034 23.328
10.3185 23.573
10.3337 23.820
10.3489 23.536
10.3641 23.585
10.3792 23.407
10.3944 23.198
10.4096 23.176
10.4248 23.297
10.4399 23.308
10.4551 23.509
10.4703 23.481
10.4855 23.043
10.5006 23.079
10.5158 22.935
10.5310 22.858
10.5462 22.762
10.5613 22.983
10.5765 22.921
10.5917 23.131
10.6069 22.873
10.6220 22.824
10.6372 22.995
10.6524 22.935
10.6676 23.086
10.6827 23.339
10.6979 23.167
10.7131 22.838
10.7283 22.785
10.7434 22.889
10.7586 22.579
10.7738 22.577
10.7890 22.188
10.8041 22.468
10.8193 22.615
10.8345 22.881
10.8497 22.776
10.8648 22.229
10.8800 22.394
10.8952 22.252
10.9104 22.275
10.9255 22.508
10.9407 22.446
10.9559 22.387
10.9711 22.274
10.9862 22.543
11.0014 22.458
11.0166 22.751
11.0318 22.460
11.0469 21.898
11.0621 22.215
11.0773 22.107
11.0925 22.065
11.1076 22.091
11.1228 21.944
11.1380 21.878
11.1532 21.746
11.1683 22.006
11.1835 21.798
11.1987 21.922
11.2139 21.746
11.2290 21.389
11.2442 21.226
11.2594 21.584
11.2746 21.592
11.2897 21.478
11.3049 21.690
11.3201 21.615
11.3353 21.742
11.3504 21.535
11.3656 21.364
11.3808 21.820
11.3960 21.706
11.4111 21.381
11.4263 21.661
11.4415 21.635
11.4567 21.635
11.4718 21.481
11.4870 21.531
11.5022 21.361
11.5174 21.287
11.5325 21.442
11.5477 21.292
11.5629 21.488
11.5781 21.128
11.5932 20.990
11.6084 21.038
11.6236 20.892
11.6388 20.948
11.6539 20.739
11.6691 20.701
11.6843 20.681
11.6995 20.494
11.7146 20.805
11.7298 20.911
11.7450 20.382
11.7602 20.597
11.7753 20.474
11.7905 19.953
11.8057 19.960
11.8209 19.978
11.8360 19.998
11.8512 20.148
11.8664 20.026
11.8816 19.735
11.8967 19.593
11.9119 19.994
11.9271 19.915
11.9423 19.823
11.9574 19.737
11.9726 19.870
11.9878 19.610
12.0030 19.023
12.0181 19.242
12.0333 19.443
12.0485 19.157
12.0637 18.882
12.0788 18.993
12.0940 18.853
12.1092 18.930
12.1244 18.538
12.1395 18.572
12.1547 18.718
12.1699 18.226
12.1851 18.439
12.2002 18.348
12.2154 18.261
12.2306 18.307
12.2458 17.969
12.2609 17.831
12.2761 17.788
12.2913 17.744
12.3065 17.576
12.3216 17.730
12.3368 17.537
12.3520 17.596
12.3672 17.784
12.3823 17.670
12.3975 17.398
12.4127 17.243
12.4279 17.212
12.4430 17.022
12.4582 16.959
12.4734 16.979
12.4886 16.900
12.5037 16.911
12.5189 16.692
12.5341 16.644
12.5493 16.714
12.5644 16.555
12.5796 16.632
12.5948 16.430
12.6100 16.048
12.6251 15.981
12.6403 16.170
12.6555 16.039
12.6707 16.039
12.6858 16.114
12.7010 15.866
12.7162 15.692
12.7314 15.870
12.7465 15.976
12.7617 15.591
12.7769 15.292
12.7921 15.373
12.8072 15.065
12.8224 15.026
12.8376 15.101
12.8528 15.017
12.8679 14.919
12.8831 14.795
12.8983 14.759
12.9135 14.691
12.9286 14.530
12.9438 14.372
12.9590 14.523
12.9742 14.536
12.9893 14.395
13.0045 14.292
13.0197 14.301
13.0349 14.144
13.0500 14.015
13.0652 14.195
13.0804 14.037
13.0956 13.855
13.1107 13.744
13.1259 13.875
13.1411 14.014
13.1563 13.684
13.1714 13.506
13.1866 13.610
13.2018 13.565
13.2170 13.463
13.2321 13.308
13.2473 13.400
13.2625 13.587
13.2777 13.372
13.2928 13.266
13.3080 13.244
13.3232 13.130
13.3384 13.058
13.3535 13.013
13.3687 12.915
13.3839 13.237
13.3991 13.181
13.4142 12.957
13.4294 13.045
13.4446 12.829
13.4598 12.814
13.4749 12.833
13.4901 12.637
13.5053 12.779
13.5205 12.835
13.5356 12.609
13.5508 12.646
13.5660 12.512
13.5812 12.351
13.5963 12.148
13.6115 12.164
13.6267 12.267
13.6419 12.166
13.6570 11.990
13.6722 11.918
13.6874 12.054
13.7026 11.875
13.7177 12.025
13.7329 12.233
13.7481 12.165
13.7633 12.103
13.7784 12.357
13.7936 12.465
13.8088 12.336
13.8239 12.298
13.8391 12.351
13.8543 12.557
13.8695 12.365
13.8846 11.972
13.8998 12.080
13.9150 12.094
13.9302 12.091
13.9453 12.095
13.9605 11.756
13.9757 11.608
13.9909 11.645
14.0060 11.667
14.0212 11.637
14.0364 11.786
14.0516 11.960
14.0667 11.485
14.0819 11.474
14.0971 11.573
14.1123 11.370
14.1274 11.471
14.1426 11.279
14.1578 11.444
14.1730 11.471
14.1881 11.598
14.2033 11.468
14.2185 11.451
14.2337 11.523
14.2488 11.385
14.2640 11.642
14.2792 11.710
14.2944 11.640
14.3095 11.960
14.3247 12.073
14.3399 12.240
14.3551 12.876
14.3702 13.184
14.3854 13.390
14.4006 13.846
14.4158 14.399
14.4309 14.533
14.4461 14.842
14.4613 14.599
14.4765 14.561
14.4916 13.908
14.5068 13.538
14.5220 13.664
14.5372 12.998
14.5523 12.575
14.5675 12.021
14.5827 11.824
14.5979 11.294
14.6130 11.246
14.6282 11.281
14.6434 11.542
14.6586 11.211
14.6737 11.134
14.6889 11.314
14.7041 11.218
14.7193 10.860
14.7344 11.520
14.7496 11.500
14.7648 11.233
14.7800 11.500
14.7951 11.707
14.8103 11.285
14.8255 11.421
14.8407 11.628
14.8558 11.015
14.8710 11.139
14.8862 10.940
14.9014 10.930
14.9165 11.392
14.9317 11.405
14.9469 10.893
14.9621 10.949
14.9772 10.982
14.9924 10.633
15.0076 10.828
15.0228 10.981
15.0379 10.828
15.0531 10.522
15.0683 10.608
15.0835 10.477
15.0986 10.755
15.1138 11.023
15.1290 10.623
15.1442 10.604
15.1593 10.616
15.1745 10.712
15.1897 10.410
15.2049 10.686
15.2200 10.228
15.2352 10.595
15.2504 10.485
15.2656 10.714
15.2807 10.504
15.2959 10.454
15.3111 10.650
15.3263 10.524
15.3414 10.605
15.3566 10.484
15.3718 10.556
15.3870 10.701
15.4021 10.616
15.4173 10.598
15.4325 10.357
15.4477 10.778
15.4628 10.717
15.4780 10.400
15.4932 10.399
15.5084 10.197
15.5235 10.655
15.5387 9.949
15.5539 10.295
15.5691 10.765
15.5842 10.388
15.5994 10.037
15.6146 10.581
15.6298 10.309
15.6449 10.142
15.6601 10.254
15.6753 10.117
15.6905 10.009
15.7056 10.267
15.7208 10.129
15.7360 10.151
15.7512 10.356
15.7663 9.887
15.7815 10.146
15.7967 10.217
15.8119 10.033
15.8270 9.910
15.8422 9.744
15.8574 9.793
15.8726 9.602
15.8877 9.645
15.9029 9.560
15.9181 9.676
15.9333 9.771
15.9484 9.680
15.9636 9.774
15.9788 10.132
15.9940 9.996
16.0091 9.825
16.0243 9.993
16.0395 9.910
16.0547 9.794
16.0698 9.813
16.0850 9.779
16.1002 9.927
16.1154 9.688
16.1305 9.633
16.1457 9.887
16.1609 9.687
16.1761 9.602
16.1912 9.899
16.2064 10.155
16.2216 9.965
16.2368 10.200
16.2519 10.081
16.2671 10.120
16.2823 10.179
16.2975 10.225
16.3126 10.179
16.3278 10.120
16.3430 10.023
16.3582 10.003
16.3733 10.350
16.3885 10.555
16.4037 10.094
16.4189 10.120
16.4340 10.125
16.4492 10.163
16.4644 9.986
16.4796 9.877
16.4947 10.008
16.5099 9.903
16.5251 9.940
16.5403 9.977
16.5554 10.013
16.5706 9.835
16.5858 9.814
16.6010 9.708
16.6161 9.748
16.6313 9.780
16.6465 9.861
16.6617 10.063
16.6768 9.769
16.6920 9.885
16.7072 10.216
16.7224 10.180
16.7375 10.132
16.7527 10.183
16.7679 10.185
16.7831 10.153
16.7982 10.149
16.8134 10.134
16.8286 10.172
16.8438 10.126
16.8589 9.970
16.8741 9.747
16.8893 9.745
16.9045 9.909
16.9196 9.877
16.9348 9.784
16.9500 9.813
16.9652 9.876
16.9803 9.897
16.9955 10.011
17.0107 10.014
17.0259 10.025
17.0410 10.015
17.0562 10.101
17.0714 10.406
17.0866 10.775
17.1017 11.047
17.1169 11.178
17.1321 11.269
17.1473 11.424
17.1624 11.990
17.1776 12.500
17.1928 13.244
17.2080 14.247
17.2231 15.290
17.2383 16.587
17.2535 17.679
17.2687 18.640
17.2838 19.047
17.2990 18.201
17.3142 16.991
17.3294 16.318
17.3445 16.066
17.3597 16.173
17.3749 16.128
17.3901 15.455
17.4052 14.390
17.4204 13.300
17.4356 12.473
17.4508 12.040
17.4659 11.721
17.4811 11.412
17.4963 11.070
17.5115 10.856
17.5266 10.826
17.5418 10.686
17.5570 10.656
17.5722 10.575
17.5873 10.461
17.6025 10.452
17.6177 10.522
17.6329 10.774
17.6480 10.969
17.6632 11.050
17.6784 11.308
17.6936 11.690
17.7087 11.968
17.7239 12.122
17.7391 12.352
17.7543 12.519
17.7694 12.511
17.7846 12.334
17.7998 12.453
17.8150 12.593
17.8301 12.620
17.8453 12.604
17.8605 12.520
17.8757 12.386
17.8908 12.087
17.9060 12.096
17.9212 11.918
17.9364 11.657
17.9515 11.276
17.9667 11.132
17.9819 11.191
17.9971 10.875
18.0122 10.805
18.0274 10.774
18.0426 10.553
18.0578 10.370
18.0729 10.285
18.0881 10.187
18.1033 10.117
18.1185 10.086
18.1336 10.057
18.1488 10.220
18.1640 10.204
18.1792 10.108
18.1943 10.168
18.2095 10.133
18.2247 10.131
18.2399 10.194
18.2550 10.161
18.2702 10.218
18.2854 10.240
18.3006 10.037
18.3157 10.154
18.3309 10.187
18.3461 10.224
18.3613 10.096
18.3764 9.938
18.3916 9.892
18.4068 9.765
18.4220 9.690
18.4371 9.825
18.4523 9.946
18.4675 9.928
18.4827 9.787
18.4978 9.841
18.5130 9.999
18.5282 10.146
18.5434 10.017
18.5585 10.025
18.5737 10.036
18.5889 9.994
18.6041 9.886
18.6192 9.729
18.6344 9.742
18.6496 9.815
18.6648 9.795
18.6799 9.792
18.6951 9.848
18.7103 10.082
18.7255 10.054
18.7406 9.903
18.7558 10.063
18.7710 10.026
18.7862 10.072
18.8013 10.090
18.8165 9.839
18.8317 9.904
18.8469 9.910
18.8620 9.835
18.8772 9.927
18.8924 10.223
18.9076 10.052
18.9227 9.897
18.9379 9.998
18.9531 10.012
18.9683 9.925
18.9834 9.951
18.9986 10.013
19.0138 9.948
19.0290 10.074
19.0441 10.120
19.0593 10.174
19.0745 10.373
19.0897 10.569
19.1048 10.471
19.1200 10.453
19.1352 10.594
19.1504 10.705
19.1655 10.682
19.1807 10.674
19.1959 10.591
19.2111 10.664
19.2262 10.707
19.2414 10.915
19.2566 11.121
19.2718 11.119
19.2869 10.841
19.3021 10.980
19.3173 11.042
19.3325 11.277
19.3476 11.258
19.3628 11.061
19.3780 11.166
19.3932 11.369
19.4083 11.436
19.4235 11.479
19.4387 11.514
19.4539 11.410
19.4690 11.391
19.4842 11.365
19.4994 11.448
19.5146 11.236
19.5297 11.239
19.5449 11.584
19.5601 11.777
19.5753 11.796
19.5904 11.812
19.6056 11.559
19.6208 11.563
19.6360 11.625
19.6511 11.601
19.6663 11.799
19.6815 11.661
19.6967 11.618
19.7118 11.818
19.7270 11.746
19.7422 11.833
19.7574 11.822
19.7725 11.750
19.7877 11.630
19.8029 11.704
19.8180 11.858
19.8332 11.952
19.8484 12.214
19.8636 12.347
19.8787 12.481
19.8939 12.830
19.9091 13.317
19.9243 13.614
19.9394 13.877
19.9546 14.083
19.9698 14.442
19.9850 14.600
20.0001 14.560
20.0153 14.486
20.0305 14.296
20.0457 14.185
20.0608 13.625
20.0760 13.651
20.0912 13.818
20.1064 13.720
20.1215 13.806
20.1367 13.507
20.1519 13.162
20.1671 13.012
20.1822 12.483
20.1974 12.597
20.2126 12.693
20.2278 12.570
20.2429 12.256
20.2581 12.039
20.2733 12.037
20.2885 11.794
20.3036 11.662
20.3188 11.645
20.3340 11.619
20.3492 11.768
20.3643 11.783
20.3795 11.469
20.3947 11.184
20.4099 11.271
20.4250 11.387
20.4402 11.507
20.4554 11.612
20.4706 11.765
20.4857 12.045
20.5009 12.144
20.5161 11.830
20.5313 11.578
20.5464 11.595
20.5616 11.642
20.5768 11.377
20.5920 11.481
20.6071 11.358
20.6223 11.402
20.6375 11.270
20.6527 11.022
20.6678 10.821
20.6830 10.724
20.6982 11.003
20.7134 10.767
20.7285 10.798
20.7437 10.594
20.7589 10.495
20.7741 10.399
20.7892 10.589
20.8044 10.586
20.8196 10.446
20.8348 10.437
20.8499 10.373
20.8651 10.126
20.8803 10.414
20.8955 10.634
20.9106 10.454
20.9258 10.445
20.9410 10.495
20.9562 10.519
20.9713 10.622
20.9865 10.536
21.0017 10.531
21.0169 10.629
21.0320 10.423
21.0472 10.638
21.0624 10.074
21.0776 10.451
21.0927 10.217
21.1079 9.982
21.1231 9.917
21.1383 10.024
21.1534 10.202
21.1686 9.741
21.1838 10.128
21.1990 10.263
21.2141 10.095
21.2293 9.743
21.2445 9.685
21.2597 9.548
21.2748 9.503
21.2900 9.779
21.3052 9.806
21.3204 9.806
21.3355 9.576
21.3507 9.770
21.3659 9.612
21.3811 9.517
21.3962 9.402
21.4114 9.646
21.4266 9.447
21.4418 9.549
21.4569 9.898
21.4721 9.749
21.4873 9.497
21.5025 9.470
21.5176 9.334
21.5328 9.364
21.5480 9.143
21.5632 9.476
21.5783 9.381
21.5935 9.177
21.6087 9.285
21.6239 9.312
21.6390 9.189
21.6542 9.401
21.6694 9.310
21.6846 9.126
21.6997 8.993
21.7149 9.099
21.7301 9.081
21.7453 9.049
21.7604 9.357
21.7756 9.304
21.7908 9.031
21.8060 9.062
21.8211 9.057
21.8363 9.276
21.8515 9.502
21.8667 9.074
21.8818 8.894
21.8970 9.127
21.9122 9.334
21.9274 9.317
21.9425 9.087
21.9577 9.160
21.9729 8.986
21.9881 8.749
22.0032 8.704
22.0184 8.675
22.0336 8.958
22.0488 8.921
22.0639 8.773
22.0791 8.739
22.0943 8.637
22.1095 8.816
22.1246 8.790
22.1398 8.617
22.1550 8.721
22.1702 8.889
22.1853 8.893
22.2005 8.800
22.2157 8.666
22.2309 8.678
22.2460 8.585
22.2612 8.560
22.2764 8.759
22.2916 8.780
22.3067 8.729
22.3219 8.579
22.3371 8.569
22.3523 8.852
22.3674 8.780
22.3826 8.575
22.3978 8.680
22.4130 8.633
22.4281 8.683
22.4433 8.854
22.4585 8.540
22.4737 8.440
22.4888 8.314
22.5040 8.372
22.5192 8.433
22.5344 8.364
22.5495 8.987
22.5647 8.456
22.5799 8.783
22.5951 8.376
22.6102 8.436
22.6254 8.470
22.6406 8.236
22.6558 8.394
22.6709 8.654
22.6861 8.224
22.7013 8.137
22.7165 8.098
22.7316 6.550
