'Id: "" Comment: "" Operator: "Lab Manager" Anode: "Mo" Scantype: "Still (Eiger2R_500K (1D mode))" TimePerStep: "300" X: "11.8" Y: "9.4" Z: "11.284" 
7.2532 18.844
7.2684 18.878
7.2836 18.807
7.2987 18.727
7.3139 18.909
7.3291 19.082
7.3443 18.836
7.3594 19.047
7.3746 19.049
7.3898 19.148
7.4050 19.362
7.4201 19.545
7.4353 19.082
7.4505 19.173
7.4657 19.376
7.4808 19.459
7.4960 19.419
7.5112 19.670
7.5264 19.571
7.5415 19.648
7.5567 19.800
7.5719 19.713
7.5871 19.685
7.6022 19.892
7.6174 19.717
7.6326 19.937
7.6478 19.842
7.6629 19.891
7.6781 19.993
7.6933 19.864
7.7085 20.285
7.7236 20.364
7.7388 20.101
7.7540 20.088
7.7692 20.288
7.7843 20.456
7.7995 20.541
7.8147 20.740
7.8299 20.781
7.8450 20.727
7.8602 20.727
7.8754 20.618
7.8905 20.728
7.9057 20.635
7.9209 20.740
7.9361 20.911
7.9512 20.941
7.9664 21.044
7.9816 20.629
7.9968 20.477
8.0119 20.578
8.0271 20.791
8.0423 20.817
8.0575 20.440
8.0726 20.549
8.0878 21.118
8.1030 21.116
8.1182 21.026
8.1333 21.289
8.1485 21.394
8.1637 20.926
8.1789 21.320
8.1940 21.399
8.2092 21.288
8.2244 21.297
8.2396 21.470
8.2547 20.934
8.2699 20.991
8.2851 21.474
8.3003 21.430
8.3154 21.187
8.3306 21.281
8.3458 21.065
8.3610 21.579
8.3761 21.510
8.3913 21.390
8.4065 21.833
8.4217 21.643
8.4368 21.823
8.4520 22.040
8.4672 21.815
8.4824 21.711
8.4975 21.810
8.5127 21.861
8.5279 22.071
8.5431 22.149
8.5582 21.744
8.5734 21.795
8.5886 21.981
8.6038 22.101
8.6189 22.048
8.6341 22.258
8.6493 21.954
8.6645 22.488
8.6796 21.652
8.6948 22.045
8.7100 21.874
8.7252 21.896
8.7403 21.775
8.7555 22.121
8.7707 21.938
8.7859 22.183
8.8010 22.746
8.8162 22.161
8.8314 22.164
8.8466 22.483
8.8617 22.336
8.8769 22.544
8.8921 22.204
8.9073 22.607
8.9224 22.846
8.9376 22.420
8.9528 22.261
8.9680 22.436
8.9831 22.537
8.9983 22.489
9.0135 22.682
9.0287 23.086
9.0438 22.970
9.0590 22.271
9.0742 22.488
9.0894 22.747
9.1045 22.683
9.1197 22.691
9.1349 23.277
9.1501 22.497
9.1652 22.665
9.1804 22.728
9.1956 22.662
9.2108 22.755
9.2259 22.893
9.2411 22.652
9.2563 22.442
9.2715 22.675
9.2866 22.710
9.3018 22.951
9.3170 23.031
9.3322 22.655
9.3473 22.789
9.3625 23.009
9.3777 22.931
9.3929 23.096
9.4080 23.247
9.4232 22.954
9.4384 22.623
9.4536 22.477
9.4687 23.011
9.4839 23.034
9.4991 22.909
9.5143 23.168
9.5294 23.486
9.5446 23.509
9.5598 23.223
9.5750 23.015
9.5901 23.278
9.6053 23.369
9.6205 23.540
9.6357 23.424
9.6508 23.538
9.6660 23.385
9.6812 23.276
9.6964 23.349
9.7115 23.602
9.7267 23.852
9.7419 23.758
9.7571 24.048
9.7722 23.834
9.7874 23.533
9.8026 23.640
9.8178 23.498
9.8329 23.163
9.8481 23.257
9.8633 23.514
9.8785 23.274
9.8936 23.222
9.9088 23.190
9.9240 23.154
9.9392 23.291
9.9543 23.304
9.9695 23.435
9.9847 23.228
9.9999 23.195
10.0150 23.129
10.0302 23.072
10.0454 23.273
10.0606 23.304
10.0757 23.218
10.0909 23.322
10.1061 23.399
10.1213 23.577
10.1364 23.599
10.1516 23.479
10.1668 23.544
10.1820 23.635
10.1971 23.298
10.2123 23.255
10.2275 23.190
10.2427 22.924
10.2578 22.594
10.2730 22.582
10.2882 22.585
10.3034 22.619
10.3185 22.571
10.3337 22.687
10.3489 22.668
10.3641 22.625
10.3792 22.676
10.3944 22.646
10.4096 22.555
10.4248 22.590
10.4399 22.259
10.4551 22.423
10.4703 22.646
10.4855 22.663
10.5006 22.179
10.5158 22.347
10.5310 22.257
10.5462 22.375
10.5613 22.344
10.5765 22.361
10.5917 22.354
10.6069 22.667
10.6220 22.760
10.6372 22.880
10.6524 22.668
10.6676 22.597
10.6827 22.350
10.6979 22.466
10.7131 22.399
10.7283 22.162
10.7434 22.258
10.7586 22.290
10.7738 22.090
10.7890 22.217
10.8041 22.239
10.8193 22.363
10.8345 21.969
10.8497 21.653
10.8648 21.741
10.8800 22.199
10.8952 22.168
10.9104 22.124
10.9255 22.043
10.9407 21.814
10.9559 22.086
10.9711 21.902
10.9862 22.020
11.0014 22.010
11.0166 22.088
11.0318 22.092
11.0469 22.584
11.0621 22.257
11.0773 21.748
11.0925 21.705
11.1076 21.659
11.1228 21.606
11.1380 21.793
11.1532 21.970
11.1683 21.751
11.1835 21.791
11.1987 21.580
11.2139 21.421
11.2290 21.435
11.2442 21.675
11.2594 21.572
11.2746 21.653
11.2897 21.643
11.3049 21.600
11.3201 21.499
11.3353 21.468
11.3504 20.989
11.3656 21.321
11.3808 21.405
11.3960 21.337
11.4111 21.411
11.4263 20.819
11.4415 20.932
11.4567 21.128
11.4718 21.329
11.4870 21.494
11.5022 21.292
11.5174 21.192
11.5325 21.073
11.5477 20.894
11.5629 20.939
11.5781 20.897
11.5932 21.011
11.6084 20.762
11.6236 20.759
11.6388 20.645
11.6539 20.420
11.6691 20.444
11.6843 20.622
11.6995 20.613
11.7146 20.074
11.7298 20.314
11.7450 20.105
11.7602 19.970
11.7753 20.019
11.7905 20.155
11.8057 19.969
11.8209 19.585
11.8360 19.662
11.8512 19.857
11.8664 19.988
11.8816 19.752
11.8967 19.585
11.9119 19.741
11.9271 19.503
11.9423 19.311
11.9574 19.375
11.9726 19.370
11.9878 19.321
12.0030 19.401
12.0181 19.191
12.0333 19.014
12.0485 19.103
12.0637 18.922
12.0788 18.860
12.0940 18.469
12.1092 18.676
12.1244 18.533
12.1395 18.728
12.1547 18.386
12.1699 18.115
12.1851 18.289
12.2002 18.024
12.2154 18.093
12.2306 18.015
12.2458 18.154
12.2609 18.181
12.2761 17.990
12.2913 17.782
12.3065 17.688
12.3216 17.493
12.3368 17.251
12.3520 17.395
12.3672 17.703
12.3823 17.237
12.3975 16.902
12.4127 16.671
12.4279 16.842
12.4430 16.981
12.4582 16.641
12.4734 16.523
12.4886 16.475
12.5037 16.670
12.5189 16.838
12.5341 16.431
12.5493 16.055
12.5644 16.103
12.5796 16.286
12.5948 16.115
12.6100 16.163
12.6251 16.326
12.6403 16.037
12.6555 15.847
12.6707 15.909
12.6858 15.781
12.7010 15.748
12.7162 15.629
12.7314 15.739
12.7465 15.396
12.7617 15.126
12.7769 15.165
12.7921 15.179
12.8072 15.037
12.8224 14.925
12.8376 15.001
12.8528 14.751
12.8679 14.526
12.8831 14.524
12.8983 14.624
12.9135 14.581
12.9286 14.540
12.9438 14.696
12.9590 14.527
12.9742 14.390
12.9893 14.455
13.0045 14.139
13.0197 14.051
13.0349 13.977
13.0500 13.811
13.0652 13.907
13.0804 13.927
13.0956 13.935
13.1107 13.896
13.1259 13.652
13.1411 13.718
13.1563 13.711
13.1714 13.634
13.1866 13.737
13.2018 13.661
13.2170 13.614
13.2321 13.536
13.2473 13.413
13.2625 12.987
13.2777 13.136
13.2928 13.527
13.3080 13.278
13.3232 13.081
13.3384 12.859
13.3535 12.917
13.3687 12.914
13.3839 12.913
13.3991 13.177
13.4142 12.952
13.4294 12.717
13.4446 12.753
13.4598 12.657
13.4749 12.502
13.4901 12.517
13.5053 12.592
13.5205 12.521
13.5356 12.426
13.5508 12.470
13.5660 12.425
13.5812 12.463
13.5963 12.272
13.6115 11.960
13.6267 12.027
13.6419 11.998
13.6570 12.072
13.6722 12.259
13.6874 12.156
13.7026 12.154
13.7177 11.908
13.7329 12.028
13.7481 12.226
13.7633 12.094
13.7784 12.065
13.7936 11.877
13.8088 12.033
13.8239 12.176
13.8391 12.323
13.8543 12.403
13.8695 12.268
13.8846 12.318
13.8998 12.090
13.9150 12.094
13.9302 12.251
13.9453 12.003
13.9605 11.779
13.9757 11.796
13.9909 11.601
14.0060 11.375
14.0212 11.938
14.0364 11.859
14.0516 11.589
14.0667 11.806
14.0819 11.763
14.0971 11.532
14.1123 11.538
14.1274 11.419
14.1426 11.487
14.1578 11.759
14.1730 11.709
14.1881 11.654
14.2033 11.569
14.2185 11.902
14.2337 11.814
14.2488 11.730
14.2640 11.777
14.2792 11.773
14.2944 11.840
14.3095 12.205
14.3247 12.220
14.3399 12.470
14.3551 12.654
14.3702 12.896
14.3854 13.248
14.4006 13.262
14.4158 13.081
14.4309 12.619
14.4461 12.970
14.4613 12.794
14.4765 12.306
14.4916 12.128
14.5068 11.914
14.5220 11.718
14.5372 11.289
14.5523 11.211
14.5675 11.373
14.5827 11.097
14.5979 10.676
14.6130 10.777
14.6282 10.897
14.6434 10.694
14.6586 10.651
14.6737 10.978
14.6889 10.831
14.7041 10.516
14.7193 10.521
14.7344 10.600
14.7496 10.566
14.7648 10.715
14.7800 10.647
14.7951 10.394
14.8103 10.638
14.8255 10.252
14.8407 10.529
14.8558 10.622
14.8710 10.297
14.8862 10.510
14.9014 10.659
14.9165 10.417
14.9317 10.375
14.9469 10.443
14.9621 10.341
14.9772 10.114
14.9924 10.458
15.0076 10.367
15.0228 10.282
15.0379 10.362
15.0531 10.665
15.0683 10.362
15.0835 10.347
15.0986 10.170
15.1138 10.164
15.1290 10.397
15.1442 9.911
15.1593 10.213
15.1745 10.399
15.1897 10.257
15.2049 10.130
15.2200 10.255
15.2352 9.940
15.2504 9.819
15.2656 10.106
15.2807 10.313
15.2959 10.267
15.3111 10.373
15.3263 10.089
15.3414 10.227
15.3566 10.062
15.3718 10.235
15.3870 9.967
15.4021 10.159
15.4173 10.141
15.4325 10.246
15.4477 10.143
15.4628 9.878
15.4780 9.755
15.4932 9.956
15.5084 10.406
15.5235 10.115
15.5387 10.231
15.5539 9.879
15.5691 9.956
15.5842 9.904
15.5994 9.855
15.6146 9.604
15.6298 10.120
15.6449 10.079
15.6601 9.757
15.6753 9.732
15.6905 9.600
15.7056 9.854
15.7208 9.724
15.7360 9.738
15.7512 9.443
15.7663 9.693
15.7815 9.616
15.7967 9.341
15.8119 9.482
15.8270 9.808
15.8422 9.860
15.8574 9.300
15.8726 9.236
15.8877 9.401
15.9029 9.534
15.9181 9.556
15.9333 9.509
15.9484 9.606
15.9636 9.453
15.9788 9.463
15.9940 9.635
16.0091 9.641
16.0243 9.735
16.0395 9.802
16.0547 9.554
16.0698 9.541
16.0850 9.520
16.1002 9.596
16.1154 9.589
16.1305 9.603
16.1457 9.489
16.1609 9.515
16.1761 9.568
16.1912 9.725
16.2064 9.493
16.2216 9.538
16.2368 9.544
16.2519 9.704
16.2671 9.597
16.2823 9.508
16.2975 9.680
16.3126 9.902
16.3278 9.786
16.3430 9.540
16.3582 9.625
16.3733 9.667
16.3885 9.606
16.4037 9.793
16.4189 9.923
16.4340 9.976
16.4492 9.690
16.4644 9.674
16.4796 9.629
16.4947 9.673
16.5099 9.678
16.5251 9.444
16.5403 9.570
16.5554 9.757
16.5706 9.422
16.5858 9.268
16.6010 9.569
16.6161 9.432
16.6313 9.446
16.6465 9.579
16.6617 9.492
16.6768 9.579
16.6920 9.704
16.7072 9.961
16.7224 10.103
16.7375 10.175
16.7527 9.863
16.7679 9.672
16.7831 9.659
16.7982 9.720
16.8134 9.974
16.8286 10.138
16.8438 9.968
16.8589 9.695
16.8741 9.801
16.8893 9.799
16.9045 9.689
16.9196 9.639
16.9348 9.729
16.9500 9.845
16.9652 9.868
16.9803 9.921
16.9955 9.913
17.0107 9.924
17.0259 10.016
17.0410 9.910
17.0562 9.814
17.0714 9.991
17.0866 10.325
17.1017 10.505
17.1169 10.545
17.1321 10.828
17.1473 11.209
17.1624 11.806
17.1776 12.479
17.1928 13.249
17.2080 13.911
17.2231 14.873
17.2383 16.381
17.2535 17.774
17.2687 18.545
17.2838 18.401
17.2990 17.779
17.3142 16.957
17.3294 16.186
17.3445 16.102
17.3597 15.916
17.3749 15.935
17.3901 15.697
17.4052 14.632
17.4204 13.713
17.4356 12.718
17.4508 12.135
17.4659 11.682
17.4811 11.480
17.4963 11.625
17.5115 11.423
17.5266 11.211
17.5418 10.847
17.5570 10.557
17.5722 10.840
17.5873 11.142
17.6025 11.106
17.6177 11.149
17.6329 11.274
17.6480 11.301
17.6632 11.353
17.6784 11.614
17.6936 11.729
17.7087 11.512
17.7239 11.491
17.7391 11.244
17.7543 11.053
17.7694 11.226
17.7846 11.143
17.7998 11.021
17.8150 10.900
17.8301 10.655
17.8453 10.360
17.8605 10.017
17.8757 10.235
17.8908 10.328
17.9060 10.340
17.9212 10.261
17.9364 10.266
17.9515 10.259
17.9667 10.357
17.9819 10.255
17.9971 10.034
18.0122 10.218
18.0274 10.323
18.0426 10.202
18.0578 9.966
18.0729 10.024
18.0881 10.075
18.1033 10.036
18.1185 9.826
18.1336 9.794
18.1488 10.025
18.1640 9.915
18.1792 9.895
18.1943 9.990
18.2095 9.774
18.2247 9.665
18.2399 9.717
18.2550 10.008
18.2702 9.954
18.2854 9.860
18.3006 9.787
18.3157 9.801
18.3309 9.698
18.3461 9.759
18.3613 9.797
18.3764 9.830
18.3916 9.801
18.4068 9.887
18.4220 9.902
18.4371 9.647
18.4523 9.878
18.4675 9.791
18.4827 9.605
18.4978 9.746
18.5130 9.721
18.5282 9.622
18.5434 9.349
18.5585 9.592
18.5737 9.785
18.5889 9.681
18.6041 9.862
18.6192 9.938
18.6344 9.644
18.6496 9.740
18.6648 9.810
18.6799 9.802
18.6951 9.812
18.7103 9.759
18.7255 9.705
18.7406 9.865
18.7558 9.942
18.7710 9.720
18.7862 9.798
18.8013 9.718
18.8165 9.424
18.8317 9.631
18.8469 9.816
18.8620 9.924
18.8772 10.134
18.8924 10.223
18.9076 10.200
18.9227 10.148
18.9379 10.096
18.9531 9.865
18.9683 9.802
18.9834 9.993
18.9986 9.857
19.0138 10.003
19.0290 10.201
19.0441 10.050
19.0593 10.177
19.0745 10.251
19.0897 10.220
19.1048 10.258
19.1200 10.363
19.1352 10.441
19.1504 10.551
19.1655 10.725
19.1807 10.605
19.1959 10.587
19.2111 10.625
19.2262 10.768
19.2414 10.842
19.2566 10.839
19.2718 10.938
19.2869 10.916
19.3021 10.840
19.3173 10.927
19.3325 11.095
19.3476 11.208
19.3628 11.163
19.3780 10.918
19.3932 10.954
19.4083 11.277
19.4235 11.602
19.4387 11.433
19.4539 11.339
19.4690 11.468
19.4842 11.393
19.4994 11.362
19.5146 11.437
19.5297 11.358
19.5449 11.421
19.5601 11.715
19.5753 11.670
19.5904 11.558
19.6056 11.551
19.6208 11.632
19.6360 11.719
19.6511 11.812
19.6663 11.842
19.6815 11.778
19.6967 11.703
19.7118 11.758
19.7270 11.802
19.7422 11.665
19.7574 11.775
19.7725 11.845
19.7877 11.810
19.8029 11.939
19.8180 11.886
19.8332 12.182
19.8484 12.344
19.8636 12.438
19.8787 12.747
19.8939 12.920
19.9091 13.068
19.9243 13.379
19.9394 13.650
19.9546 13.866
19.9698 14.345
19.9850 14.728
20.0001 14.635
20.0153 14.391
20.0305 13.992
20.0457 13.807
20.0608 13.900
20.0760 13.874
20.0912 13.765
20.1064 13.828
20.1215 13.903
20.1367 13.324
20.1519 12.933
20.1671 13.073
20.1822 13.139
20.1974 13.172
20.2126 12.783
20.2278 12.460
20.2429 12.594
20.2581 12.460
20.2733 12.122
20.2885 11.940
20.3036 12.052
20.3188 12.129
20.3340 12.002
20.3492 12.017
20.3643 11.819
20.3795 11.882
20.3947 11.976
20.4099 11.801
20.4250 11.989
20.4402 11.771
20.4554 11.936
20.4706 11.987
20.4857 11.951
20.5009 11.570
20.5161 11.594
20.5313 11.569
20.5464 11.563
20.5616 11.546
20.5768 11.357
20.5920 11.150
20.6071 11.108
20.6223 10.947
20.6375 10.815
20.6527 10.805
20.6678 10.790
20.6830 10.779
20.6982 10.355
20.7134 10.364
20.7285 10.636
20.7437 10.558
20.7589 10.334
20.7741 10.135
20.7892 10.167
20.8044 10.379
20.8196 10.046
20.8348 10.275
20.8499 10.191
20.8651 10.258
20.8803 10.300
20.8955 10.366
20.9106 10.240
20.9258 10.384
20.9410 10.165
20.9562 10.217
20.9713 10.116
20.9865 9.956
21.0017 10.009
21.0169 10.246
21.0320 10.047
21.0472 10.233
21.0624 10.018
21.0776 10.160
21.0927 10.052
21.1079 10.357
21.1231 10.046
21.1383 9.951
21.1534 9.724
21.1686 9.807
21.1838 9.842
21.1990 9.796
21.2141 9.824
21.2293 9.879
21.2445 9.626
21.2597 9.867
21.2748 9.804
21.2900 9.801
21.3052 9.724
21.3204 9.504
21.3355 9.879
21.3507 9.303
21.3659 9.546
21.3811 9.442
21.3962 9.719
21.4114 9.428
21.4266 9.467
21.4418 9.423
21.4569 9.512
21.4721 9.678
21.4873 9.548
21.5025 9.543
21.5176 9.359
21.5328 9.216
21.5480 9.032
21.5632 9.361
21.5783 9.195
21.5935 9.248
21.6087 9.263
21.6239 9.134
21.6390 8.957
21.6542 9.058
21.6694 8.933
21.6846 9.095
21.6997 9.231
21.7149 9.264
21.7301 9.143
21.7453 9.155
21.7604 9.277
21.7756 8.928
21.7908 9.071
21.8060 8.921
21.8211 8.933
21.8363 8.974
21.8515 8.994
21.8667 9.081
21.8818 9.009
21.8970 9.056
21.9122 8.873
21.9274 9.031
21.9425 9.063
21.9577 8.977
21.9729 9.063
21.9881 9.124
22.0032 8.959
22.0184 8.989
22.0336 8.832
22.0488 8.656
22.0639 8.841
22.0791 8.885
22.0943 8.692
22.1095 8.471
22.1246 8.560
22.1398 8.598
22.1550 8.767
22.1702 8.702
22.1853 8.695
22.2005 8.696
22.2157 8.690
22.2309 8.591
22.2460 8.619
22.2612 8.633
22.2764 8.437
22.2916 8.508
22.3067 8.508
22.3219 8.400
22.3371 8.422
22.3523 8.319
22.3674 8.396
22.3826 8.475
22.3978 8.307
22.4130 8.195
22.4281 8.625
22.4433 8.432
22.4585 8.509
22.4737 8.585
22.4888 8.281
22.5040 8.360
22.5192 8.250
22.5344 8.535
22.5495 8.369
22.5647 8.467
22.5799 8.553
22.5951 8.503
22.6102 8.813
22.6254 8.413
22.6406 8.127
22.6558 8.446
22.6709 8.422
22.6861 8.165
22.7013 8.218
22.7165 8.184
22.7316 6.340
