'Id: "" Comment: "" Operator: "Lab Manager" Anode: "Mo" Scantype: "Still (Eiger2R_500K (1D mode))" TimePerStep: "300" X: "11.8" Y: "9.4" Z: "11.284" 
7.2532 18.481
7.2684 18.869
7.2836 18.554
7.2987 19.069
7.3139 18.703
7.3291 19.001
7.3443 19.383
7.3594 19.460
7.3746 19.481
7.3898 19.199
7.4050 19.356
7.4201 19.566
7.4353 18.966
7.4505 19.045
7.4657 19.285
7.4808 19.849
7.4960 19.935
7.5112 19.845
7.5264 19.984
7.5415 20.073
7.5567 19.915
7.5719 19.841
7.5871 19.843
7.6022 20.177
7.6174 20.442
7.6326 20.147
7.6478 20.240
7.6629 20.238
7.6781 20.441
7.6933 20.365
7.7085 20.460
7.7236 20.639
7.7388 20.441
7.7540 20.503
7.7692 20.395
7.7843 20.343
7.7995 20.543
7.8147 20.598
7.8299 20.551
7.8450 20.589
7.8602 20.758
7.8754 20.953
7.8905 21.203
7.9057 21.153
7.9209 21.096
7.9361 20.998
7.9512 20.742
7.9664 20.764
7.9816 21.035
7.9968 20.796
8.0119 20.791
8.0271 21.007
8.0423 21.539
8.0575 21.525
8.0726 21.208
8.0878 21.296
8.1030 21.328
8.1182 21.535
8.1333 21.537
8.1485 21.385
8.1637 21.329
8.1789 21.654
8.1940 21.613
8.2092 21.548
8.2244 21.405
8.2396 21.659
8.2547 21.411
8.2699 21.904
8.2851 21.724
8.3003 21.753
8.3154 21.918
8.3306 21.681
8.3458 21.929
8.3610 22.111
8.3761 21.548
8.3913 22.039
8.4065 21.812
8.4217 21.625
8.4368 22.090
8.4520 21.999
8.4672 22.237
8.4824 22.050
8.4975 22.907
8.5127 22.604
8.5279 22.576
8.5431 21.988
8.5582 22.427
8.5734 22.410
8.5886 22.375
8.6038 22.336
8.6189 22.267
8.6341 22.422
8.6493 22.680
8.6645 22.692
8.6796 22.078
8.6948 23.057
8.7100 22.984
8.7252 23.150
8.7403 22.620
8.7555 23.340
8.7707 22.737
8.7859 22.685
8.8010 22.452
8.8162 22.940
8.8314 22.842
8.8466 22.794
8.8617 23.138
8.8769 22.823
8.8921 22.561
8.9073 22.859
8.9224 23.462
8.9376 22.939
8.9528 22.928
8.9680 23.368
8.9831 22.209
8.9983 22.275
9.0135 23.389
9.0287 23.139
9.0438 22.464
9.0590 22.774
9.0742 22.781
9.0894 22.641
9.1045 22.858
9.1197 22.899
9.1349 23.080
9.1501 22.874
9.1652 23.212
9.1804 23.007
9.1956 22.772
9.2108 22.795
9.2259 22.623
9.2411 22.704
9.2563 22.664
9.2715 22.621
9.2866 22.951
9.3018 23.156
9.3170 23.043
9.3322 23.184
9.3473 23.158
9.3625 23.164
9.3777 23.568
9.3929 23.379
9.4080 23.602
9.4232 23.568
9.4384 23.190
9.4536 23.433
9.4687 23.778
9.4839 23.281
9.4991 23.112
9.5143 23.229
9.5294 23.043
9.5446 23.124
9.5598 23.330
9.5750 23.253
9.5901 23.228
9.6053 23.561
9.6205 23.589
9.6357 23.240
9.6508 23.284
9.6660 23.533
9.6812 23.722
9.6964 23.870
9.7115 24.034
9.7267 24.076
9.7419 23.978
9.7571 24.373
9.7722 24.473
9.7874 24.151
9.8026 23.672
9.8178 23.663
9.8329 23.964
9.8481 23.506
9.8633 23.355
9.8785 23.411
9.8936 23.420
9.9088 23.420
9.9240 23.356
9.9392 23.263
9.9543 23.334
9.9695 23.454
9.9847 23.650
9.9999 23.658
10.0150 23.511
10.0302 23.565
10.0454 23.653
10.0606 23.766
10.0757 23.827
10.0909 23.691
10.1061 23.790
10.1213 23.921
10.1364 23.664
10.1516 23.426
10.1668 23.115
10.1820 23.283
10.1971 23.349
10.2123 23.583
10.2275 24.008
10.2427 24.063
10.2578 23.991
10.2730 23.993
10.2882 23.866
10.3034 23.314
10.3185 22.891
10.3337 23.054
10.3489 23.423
10.3641 23.449
10.3792 23.224
10.3944 23.335
10.4096 23.103
10.4248 22.981
10.4399 22.807
10.4551 22.828
10.4703 22.838
10.4855 23.071
10.5006 23.068
10.5158 22.447
10.5310 22.591
10.5462 22.751
10.5613 22.561
10.5765 22.705
10.5917 22.789
10.6069 22.737
10.6220 22.312
10.6372 22.707
10.6524 22.541
10.6676 22.489
10.6827 22.419
10.6979 22.640
10.7131 22.609
10.7283 22.512
10.7434 22.393
10.7586 22.303
10.7738 22.352
10.7890 22.765
10.8041 22.391
10.8193 22.597
10.8345 22.371
10.8497 22.532
10.8648 22.606
10.8800 22.334
10.8952 22.334
10.9104 22.257
10.9255 22.320
10.9407 22.682
10.9559 22.468
10.9711 22.123
10.9862 22.114
11.0014 22.249
11.0166 22.520
11.0318 22.499
11.0469 22.059
11.0621 21.832
11.0773 21.808
11.0925 22.124
11.1076 22.206
11.1228 22.056
11.1380 22.216
11.1532 22.365
11.1683 22.106
11.1835 21.936
11.1987 21.892
11.2139 21.974
11.2290 22.328
11.2442 22.206
11.2594 21.987
11.2746 21.785
11.2897 21.906
11.3049 21.845
11.3201 21.698
11.3353 21.697
11.3504 22.087
11.3656 21.515
11.3808 21.240
11.3960 21.218
11.4111 21.368
11.4263 21.015
11.4415 21.159
11.4567 21.538
11.4718 21.478
11.4870 20.931
11.5022 20.714
11.5174 21.276
11.5325 21.360
11.5477 21.287
11.5629 20.892
11.5781 20.699
11.5932 21.066
11.6084 21.196
11.6236 20.922
11.6388 20.865
11.6539 20.640
11.6691 20.367
11.6843 20.589
11.6995 20.844
11.7146 21.001
11.7298 20.867
11.7450 20.608
11.7602 20.405
11.7753 20.468
11.7905 20.482
11.8057 20.278
11.8209 20.243
11.8360 19.880
11.8512 20.013
11.8664 20.240
11.8816 19.931
11.8967 19.816
11.9119 19.304
11.9271 19.657
11.9423 19.775
11.9574 19.791
11.9726 19.570
11.9878 18.909
12.0030 19.166
12.0181 19.407
12.0333 18.879
12.0485 18.966
12.0637 19.084
12.0788 19.109
12.0940 19.078
12.1092 19.240
12.1244 18.831
12.1395 18.358
12.1547 18.337
12.1699 18.566
12.1851 18.439
12.2002 18.021
12.2154 18.178
12.2306 18.249
12.2458 17.833
12.2609 17.789
12.2761 17.866
12.2913 17.906
12.3065 17.534
12.3216 17.340
12.3368 17.647
12.3520 17.520
12.3672 17.315
12.3823 17.300
12.3975 17.613
12.4127 17.679
12.4279 17.404
12.4430 17.213
12.4582 17.427
12.4734 17.467
12.4886 17.524
12.5037 17.110
12.5189 16.637
12.5341 16.735
12.5493 16.621
12.5644 16.369
12.5796 16.264
12.5948 16.176
12.6100 15.894
12.6251 15.818
12.6403 16.128
12.6555 16.264
12.6707 16.102
12.6858 16.076
12.7010 16.108
12.7162 15.669
12.7314 15.170
12.7465 15.165
12.7617 15.302
12.7769 15.225
12.7921 15.305
12.8072 15.381
12.8224 15.225
12.8376 15.152
12.8528 14.879
12.8679 14.787
12.8831 14.892
12.8983 14.913
12.9135 14.860
12.9286 14.884
12.9438 14.855
12.9590 14.646
12.9742 14.686
12.9893 14.578
13.0045 14.130
13.0197 13.972
13.0349 14.184
13.0500 14.193
13.0652 14.236
13.0804 14.122
13.0956 14.010
13.1107 14.121
13.1259 13.793
13.1411 13.750
13.1563 13.661
13.1714 13.638
13.1866 13.796
13.2018 13.595
13.2170 13.679
13.2321 13.711
13.2473 13.479
13.2625 13.477
13.2777 13.568
13.2928 13.502
13.3080 13.259
13.3232 13.059
13.3384 13.100
13.3535 13.219
13.3687 13.490
13.3839 13.295
13.3991 13.018
13.4142 13.036
13.4294 12.991
13.4446 12.904
13.4598 12.996
13.4749 13.002
13.4901 12.715
13.5053 12.702
13.5205 12.880
13.5356 12.671
13.5508 12.532
13.5660 12.441
13.5812 12.526
13.5963 12.455
13.6115 12.176
13.6267 12.411
13.6419 12.385
13.6570 12.078
13.6722 12.076
13.6874 12.224
13.7026 12.075
13.7177 12.289
13.7329 12.275
13.7481 12.120
13.7633 12.034
13.7784 12.112
13.7936 12.290
13.8088 12.157
13.8239 12.121
13.8391 12.341
13.8543 12.480
13.8695 12.413
13.8846 12.155
13.8998 12.208
13.9150 12.173
13.9302 12.238
13.9453 12.017
13.9605 11.823
13.9757 11.736
13.9909 11.493
14.0060 11.592
14.0212 11.691
14.0364 11.620
14.0516 11.597
14.0667 11.581
14.0819 11.694
14.0971 11.726
14.1123 11.652
14.1274 11.451
14.1426 11.550
14.1578 11.474
14.1730 11.763
14.1881 11.944
14.2033 11.808
14.2185 11.697
14.2337 11.718
14.2488 12.015
14.2640 12.402
14.2792 12.127
14.2944 11.965
14.3095 12.046
14.3247 12.050
14.3399 12.236
14.3551 12.349
14.3702 12.670
14.3854 13.006
14.4006 12.764
14.4158 12.778
14.4309 12.638
14.4461 12.460
14.4613 12.179
14.4765 12.065
14.4916 12.286
14.5068 11.901
14.5220 11.715
14.5372 11.569
14.5523 11.464
14.5675 11.244
14.5827 11.139
14.5979 11.033
14.6130 11.243
14.6282 10.858
14.6434 11.078
14.6586 10.894
14.6737 11.044
14.6889 11.031
14.7041 10.871
14.7193 11.073
14.7344 10.758
14.7496 10.755
14.7648 10.761
14.7800 10.783
14.7951 10.694
14.8103 10.785
14.8255 10.716
14.8407 10.862
14.8558 11.002
14.8710 10.647
14.8862 10.759
14.9014 10.625
14.9165 11.177
14.9317 10.921
14.9469 10.657
14.9621 10.668
14.9772 10.369
14.9924 10.498
15.0076 10.359
15.0228 10.655
15.0379 10.393
15.0531 10.529
15.0683 10.544
15.0835 10.306
15.0986 10.396
15.1138 10.471
15.1290 10.427
15.1442 10.964
15.1593 10.615
15.1745 10.146
15.1897 10.584
15.2049 10.644
15.2200 10.580
15.2352 10.314
15.2504 10.755
15.2656 10.281
15.2807 10.234
15.2959 10.405
15.3111 10.241
15.3263 10.201
15.3414 10.401
15.3566 10.501
15.3718 10.539
15.3870 10.189
15.4021 10.300
15.4173 10.423
15.4325 10.929
15.4477 10.521
15.4628 10.613
15.4780 10.526
15.4932 10.568
15.5084 10.254
15.5235 10.289
15.5387 10.300
15.5539 10.408
15.5691 10.312
15.5842 10.184
15.5994 10.445
15.6146 10.028
15.6298 9.876
15.6449 10.011
15.6601 10.207
15.6753 9.945
15.6905 10.052
15.7056 9.912
15.7208 9.947
15.7360 9.839
15.7512 10.058
15.7663 9.873
15.7815 10.060
15.7967 9.918
15.8119 10.053
15.8270 9.969
15.8422 9.840
15.8574 9.883
15.8726 9.969
15.8877 9.699
15.9029 9.676
15.9181 9.755
15.9333 9.818
15.9484 10.145
15.9636 9.997
15.9788 9.679
15.9940 9.677
16.0091 10.054
16.0243 9.965
16.0395 9.953
16.0547 9.804
16.0698 9.706
16.0850 9.721
16.1002 9.760
16.1154 9.997
16.1305 9.977
16.1457 9.723
16.1609 9.745
16.1761 9.575
16.1912 9.537
16.2064 9.641
16.2216 9.693
16.2368 9.989
16.2519 9.940
16.2671 9.850
16.2823 10.100
16.2975 10.211
16.3126 10.120
16.3278 10.084
16.3430 10.059
16.3582 10.301
16.3733 10.463
16.3885 10.055
16.4037 10.012
16.4189 9.983
16.4340 9.984
16.4492 9.780
16.4644 9.953
16.4796 10.098
16.4947 9.931
16.5099 9.673
16.5251 9.611
16.5403 9.508
16.5554 9.733
16.5706 9.959
16.5858 9.883
16.6010 9.588
16.6161 9.506
16.6313 9.816
16.6465 9.781
16.6617 9.924
16.6768 10.139
16.6920 9.956
16.7072 9.756
16.7224 9.856
16.7375 10.085
16.7527 9.940
16.7679 9.979
16.7831 10.322
16.7982 10.281
16.8134 10.084
16.8286 10.356
16.8438 10.202
16.8589 9.797
16.8741 9.785
16.8893 9.943
16.9045 9.839
16.9196 9.990
16.9348 9.715
16.9500 9.493
16.9652 9.707
16.9803 9.946
16.9955 9.989
17.0107 9.914
17.0259 10.145
17.0410 10.301
17.0562 10.250
17.0714 10.135
17.0866 10.331
17.1017 10.640
17.1169 10.727
17.1321 10.965
17.1473 11.386
17.1624 11.814
17.1776 12.302
17.1928 13.052
17.2080 14.068
17.2231 15.208
17.2383 16.610
17.2535 17.787
17.2687 18.672
17.2838 18.817
17.2990 18.123
17.3142 17.140
17.3294 16.550
17.3445 16.368
17.3597 16.087
17.3749 15.791
17.3901 15.032
17.4052 14.286
17.4204 13.496
17.4356 12.473
17.4508 11.952
17.4659 11.620
17.4811 11.615
17.4963 11.705
17.5115 11.588
17.5266 11.540
17.5418 11.425
17.5570 11.415
17.5722 11.444
17.5873 11.493
17.6025 11.473
17.6177 11.241
17.6329 11.029
17.6480 10.979
17.6632 10.976
17.6784 10.947
17.6936 10.760
17.7087 10.570
17.7239 10.419
17.7391 10.318
17.7543 10.308
17.7694 10.443
17.7846 10.428
17.7998 10.189
17.8150 10.287
17.8301 10.388
17.8453 10.195
17.8605 10.354
17.8757 10.482
17.8908 10.352
17.9060 10.404
17.9212 10.368
17.9364 10.410
17.9515 10.306
17.9667 10.170
17.9819 10.372
17.9971 10.410
18.0122 10.247
18.0274 10.289
18.0426 10.257
18.0578 10.124
18.0729 10.077
18.0881 10.158
18.1033 10.091
18.1185 9.993
18.1336 10.182
18.1488 10.264
18.1640 10.244
18.1792 10.119
18.1943 9.926
18.2095 9.924
18.2247 9.835
18.2399 9.808
18.2550 9.967
18.2702 9.919
18.2854 9.893
18.3006 9.688
18.3157 9.550
18.3309 9.625
18.3461 9.834
18.3613 9.930
18.3764 9.918
18.3916 9.857
18.4068 9.688
18.4220 9.803
18.4371 9.648
18.4523 9.695
18.4675 9.932
18.4827 9.965
18.4978 10.008
18.5130 9.801
18.5282 9.858
18.5434 10.080
18.5585 9.842
18.5737 9.754
18.5889 9.791
18.6041 9.763
18.6192 9.766
18.6344 9.627
18.6496 9.757
18.6648 9.646
18.6799 9.680
18.6951 9.717
18.7103 9.624
18.7255 9.645
18.7406 9.675
18.7558 9.726
18.7710 9.766
18.7862 9.662
18.8013 9.670
18.8165 9.741
18.8317 9.737
18.8469 9.729
18.8620 9.832
18.8772 10.033
18.8924 9.992
18.9076 10.025
18.9227 10.095
18.9379 9.924
18.9531 9.975
18.9683 9.911
18.9834 9.858
18.9986 9.860
19.0138 10.036
19.0290 10.140
19.0441 10.205
19.0593 10.293
19.0745 10.121
19.0897 10.335
19.1048 10.408
19.1200 10.159
19.1352 10.389
19.1504 10.546
19.1655 10.445
19.1807 10.586
19.1959 10.797
19.2111 10.816
19.2262 10.853
19.2414 10.806
19.2566 10.809
19.2718 10.633
19.2869 10.676
19.3021 10.862
19.3173 10.875
19.3325 10.984
19.3476 11.078
19.3628 11.125
19.3780 11.330
19.3932 11.222
19.4083 11.142
19.4235 11.278
19.4387 11.318
19.4539 11.264
19.4690 11.298
19.4842 11.508
19.4994 11.311
19.5146 11.316
19.5297 11.568
19.5449 11.599
19.5601 11.664
19.5753 11.848
19.5904 11.750
19.6056 11.433
19.6208 11.316
19.6360 11.503
19.6511 11.786
19.6663 11.734
19.6815 11.567
19.6967 11.632
19.7118 11.780
19.7270 12.062
19.7422 11.831
19.7574 11.526
19.7725 11.808
19.7877 12.216
19.8029 12.138
19.8180 11.837
19.8332 11.753
19.8484 12.000
19.8636 12.390
19.8787 12.642
19.8939 12.885
19.9091 12.981
19.9243 13.289
19.9394 13.792
19.9546 14.113
19.9698 14.412
19.9850 14.641
20.0001 14.584
20.0153 14.344
20.0305 13.993
20.0457 13.766
20.0608 13.539
20.0760 13.730
20.0912 13.889
20.1064 13.797
20.1215 13.567
20.1367 13.196
20.1519 13.027
20.1671 13.297
20.1822 13.177
20.1974 12.954
20.2126 12.847
20.2278 12.623
20.2429 12.636
20.2581 12.428
20.2733 12.148
20.2885 11.975
20.3036 11.884
20.3188 11.819
20.3340 11.798
20.3492 11.899
20.3643 11.683
20.3795 11.349
20.3947 11.124
20.4099 11.173
20.4250 10.936
20.4402 10.874
20.4554 10.846
20.4706 10.799
20.4857 10.684
20.5009 10.662
20.5161 10.548
20.5313 10.600
20.5464 10.685
20.5616 10.769
20.5768 10.903
20.5920 10.355
20.6071 10.532
20.6223 10.714
20.6375 10.581
20.6527 10.829
20.6678 10.568
20.6830 10.626
20.6982 10.687
20.7134 10.421
20.7285 10.462
20.7437 10.600
20.7589 10.593
20.7741 10.443
20.7892 10.410
20.8044 10.483
20.8196 10.215
20.8348 10.134
20.8499 10.337
20.8651 10.380
20.8803 10.092
20.8955 9.945
20.9106 9.987
20.9258 10.318
20.9410 10.251
20.9562 10.224
20.9713 10.183
20.9865 10.150
21.0017 9.760
21.0169 9.971
21.0320 10.232
21.0472 10.028
21.0624 10.146
21.0776 10.049
21.0927 9.872
21.1079 9.745
21.1231 10.038
21.1383 10.019
21.1534 9.356
21.1686 9.707
21.1838 9.808
21.1990 9.488
21.2141 9.770
21.2293 9.812
21.2445 9.807
21.2597 9.552
21.2748 9.979
21.2900 9.334
21.3052 9.628
21.3204 9.734
21.3355 9.852
21.3507 9.304
21.3659 9.539
21.3811 9.115
21.3962 9.671
21.4114 9.583
21.4266 9.656
21.4418 9.642
21.4569 9.397
21.4721 9.563
21.4873 9.403
21.5025 9.490
21.5176 9.425
21.5328 9.289
21.5480 9.276
21.5632 9.232
21.5783 9.118
21.5935 9.052
21.6087 9.069
21.6239 9.353
21.6390 9.203
21.6542 9.152
21.6694 9.461
21.6846 9.328
21.6997 9.121
21.7149 9.078
21.7301 8.936
21.7453 8.925
21.7604 9.147
21.7756 9.018
21.7908 8.999
21.8060 9.014
21.8211 9.043
21.8363 8.858
21.8515 8.802
21.8667 8.879
21.8818 8.957
21.8970 8.974
21.9122 9.140
21.9274 8.953
21.9425 8.948
21.9577 9.295
21.9729 9.253
21.9881 9.030
22.0032 9.082
22.0184 9.242
22.0336 9.155
22.0488 8.876
22.0639 8.769
22.0791 8.826
22.0943 8.836
22.1095 8.780
22.1246 8.547
22.1398 8.706
22.1550 8.687
22.1702 8.604
22.1853 8.608
22.2005 8.770
22.2157 8.712
22.2309 8.714
22.2460 8.660
22.2612 8.543
22.2764 8.640
22.2916 8.744
22.3067 8.827
22.3219 8.784
22.3371 8.603
22.3523 8.555
22.3674 8.653
22.3826 8.683
22.3978 8.448
22.4130 8.526
22.4281 8.637
22.4433 8.671
22.4585 8.926
22.4737 8.901
22.4888 8.596
22.5040 8.417
22.5192 8.352
22.5344 8.675
22.5495 8.649
22.5647 8.546
22.5799 8.591
22.5951 8.570
22.6102 8.565
22.6254 8.642
22.6406 8.275
22.6558 8.491
22.6709 8.459
22.6861 8.629
22.7013 8.476
22.7165 8.218
22.7316 6.518
