'Id: "" Comment: "" Operator: "Lab Manager" Anode: "Mo" Scantype: "Still (Eiger2R_500K (1D mode))" TimePerStep: "300" X: "11.8" Y: "9.4" Z: "11.284" 
7.2532 19.103
7.2684 19.035
7.2836 19.245
7.2987 18.861
7.3139 19.522
7.3291 19.630
7.3443 19.541
7.3594 19.257
7.3746 19.652
7.3898 19.477
7.4050 19.845
7.4201 19.137
7.4353 19.515
7.4505 19.627
7.4657 19.675
7.4808 19.957
7.4960 19.636
7.5112 19.815
7.5264 19.622
7.5415 19.535
7.5567 19.817
7.5719 19.855
7.5871 20.058
7.6022 20.223
7.6174 20.465
7.6326 20.044
7.6478 20.048
7.6629 20.364
7.6781 20.314
7.6933 20.503
7.7085 20.361
7.7236 20.263
7.7388 20.348
7.7540 20.250
7.7692 20.498
7.7843 20.629
7.7995 20.684
7.8147 20.761
7.8299 20.818
7.8450 20.754
7.8602 20.517
7.8754 20.472
7.8905 20.713
7.9057 20.861
7.9209 21.074
7.9361 21.335
7.9512 21.173
7.9664 21.118
7.9816 21.275
7.9968 21.164
8.0119 21.320
8.0271 21.440
8.0423 21.372
8.0575 21.393
8.0726 21.464
8.0878 21.416
8.1030 21.488
8.1182 21.618
8.1333 21.615
8.1485 21.894
8.1637 21.862
8.1789 21.505
8.1940 21.599
8.2092 21.863
8.2244 22.026
8.2396 21.868
8.2547 21.845
8.2699 22.139
8.2851 21.867
8.3003 21.983
8.3154 21.801
8.3306 22.103
8.3458 21.978
8.3610 21.752
8.3761 21.834
8.3913 21.715
8.4065 21.807
8.4217 21.892
8.4368 22.218
8.4520 21.966
8.4672 22.157
8.4824 22.461
8.4975 22.477
8.5127 22.212
8.5279 22.021
8.5431 21.716
8.5582 21.965
8.5734 22.295
8.5886 22.336
8.6038 22.321
8.6189 22.802
8.6341 22.254
8.6493 23.039
8.6645 22.615
8.6796 22.100
8.6948 22.499
8.7100 22.462
8.7252 22.747
8.7403 22.425
8.7555 22.279
8.7707 22.110
8.7859 22.298
8.8010 22.836
8.8162 22.952
8.8314 22.808
8.8466 22.863
8.8617 22.446
8.8769 22.652
8.8921 22.534
8.9073 22.369
8.9224 22.929
8.9376 22.799
8.9528 22.656
8.9680 22.818
8.9831 22.886
8.9983 22.508
9.0135 22.850
9.0287 22.594
9.0438 22.583
9.0590 23.037
9.0742 23.068
9.0894 23.183
9.1045 22.896
9.1197 23.160
9.1349 22.683
9.1501 22.904
9.1652 22.896
9.1804 23.119
9.1956 23.008
9.2108 22.845
9.2259 22.975
9.2411 22.744
9.2563 22.860
9.2715 22.935
9.2866 22.940
9.3018 23.043
9.3170 22.888
9.3322 23.110
9.3473 23.206
9.3625 23.307
9.3777 23.213
9.3929 23.294
9.4080 23.552
9.4232 23.301
9.4384 23.176
9.4536 23.394
9.4687 23.167
9.4839 23.396
9.4991 23.306
9.5143 23.055
9.5294 23.164
9.5446 23.441
9.5598 23.614
9.5750 23.524
9.5901 23.324
9.6053 23.264
9.6205 23.727
9.6357 23.937
9.6508 24.060
9.6660 23.970
9.6812 23.943
9.6964 24.064
9.7115 24.035
9.7267 24.247
9.7419 24.212
9.7571 24.096
9.7722 24.035
9.7874 24.070
9.8026 24.021
9.8178 23.671
9.8329 23.797
9.8481 23.618
9.8633 23.192
9.8785 23.333
9.8936 23.414
9.9088 23.636
9.9240 23.695
9.9392 23.626
9.9543 23.705
9.9695 23.866
9.9847 23.875
9.9999 23.786
10.0150 23.660
10.0302 23.548
10.0454 23.599
10.0606 23.434
10.0757 23.685
10.0909 23.848
10.1061 24.031
10.1213 23.871
10.1364 23.972
10.1516 24.176
10.1668 23.720
10.1820 23.698
10.1971 23.843
10.2123 23.655
10.2275 23.751
10.2427 24.266
10.2578 24.167
10.2730 23.858
10.2882 24.032
10.3034 23.965
10.3185 23.640
10.3337 23.433
10.3489 23.279
10.3641 23.181
10.3792 23.269
10.3944 23.337
10.4096 23.136
10.4248 23.490
10.4399 23.453
10.4551 23.069
10.4703 23.013
10.4855 22.891
10.5006 22.802
10.5158 22.810
10.5310 23.190
10.5462 23.282
10.5613 23.280
10.5765 22.596
10.5917 22.645
10.6069 22.666
10.6220 22.600
10.6372 22.809
10.6524 22.788
10.6676 22.502
10.6827 22.671
10.6979 22.740
10.7131 22.640
10.7283 22.501
10.7434 22.437
10.7586 22.508
10.7738 21.953
10.7890 21.946
10.8041 22.608
10.8193 22.636
10.8345 22.450
10.8497 22.218
10.8648 22.043
10.8800 22.109
10.8952 22.150
10.9104 22.145
10.9255 22.086
10.9407 21.962
10.9559 21.644
10.9711 21.669
10.9862 21.880
11.0014 22.019
11.0166 22.157
11.0318 21.853
11.0469 21.664
11.0621 22.429
11.0773 22.302
11.0925 21.961
11.1076 22.076
11.1228 21.733
11.1380 21.403
11.1532 21.703
11.1683 21.701
11.1835 21.690
11.1987 21.945
11.2139 21.768
11.2290 22.048
11.2442 21.826
11.2594 21.650
11.2746 22.037
11.2897 21.606
11.3049 21.466
11.3201 21.494
11.3353 21.551
11.3504 21.468
11.3656 21.232
11.3808 21.524
11.3960 21.438
11.4111 21.255
11.4263 21.464
11.4415 21.165
11.4567 21.228
11.4718 21.106
11.4870 21.147
11.5022 20.834
11.5174 20.996
11.5325 21.155
11.5477 20.965
11.5629 20.714
11.5781 20.866
11.5932 20.629
11.6084 20.893
11.6236 20.851
11.6388 20.794
11.6539 20.998
11.6691 20.700
11.6843 20.282
11.6995 20.716
11.7146 20.629
11.7298 20.285
11.7450 20.444
11.7602 20.537
11.7753 20.275
11.7905 19.939
11.8057 19.885
11.8209 19.795
11.8360 20.025
11.8512 20.106
11.8664 19.700
11.8816 19.544
11.8967 19.621
11.9119 19.514
11.9271 19.570
11.9423 19.522
11.9574 19.685
11.9726 19.661
11.9878 19.495
12.0030 19.397
12.0181 19.165
12.0333 19.208
12.0485 18.624
12.0637 18.703
12.0788 18.852
12.0940 19.110
12.1092 18.726
12.1244 18.756
12.1395 18.757
12.1547 18.551
12.1699 18.521
12.1851 18.334
12.2002 18.032
12.2154 17.874
12.2306 17.955
12.2458 18.090
12.2609 18.044
12.2761 17.822
12.2913 17.878
12.3065 17.645
12.3216 17.730
12.3368 17.629
12.3520 17.372
12.3672 17.193
12.3823 17.139
12.3975 17.061
12.4127 16.921
12.4279 17.223
12.4430 17.165
12.4582 16.935
12.4734 16.951
12.4886 17.112
12.5037 16.751
12.5189 16.648
12.5341 16.617
12.5493 16.619
12.5644 16.440
12.5796 16.209
12.5948 16.076
12.6100 16.224
12.6251 16.254
12.6403 15.877
12.6555 15.786
12.6707 15.677
12.6858 15.448
12.7010 15.454
12.7162 15.341
12.7314 15.350
12.7465 15.505
12.7617 15.610
12.7769 15.409
12.7921 15.116
12.8072 14.993
12.8224 14.905
12.8376 14.901
12.8528 15.079
12.8679 14.880
12.8831 14.840
12.8983 14.809
12.9135 14.827
12.9286 14.506
12.9438 14.369
12.9590 14.573
12.9742 14.568
12.9893 14.273
13.0045 13.935
13.0197 13.839
13.0349 13.856
13.0500 14.196
13.0652 14.162
13.0804 13.870
13.0956 13.903
13.1107 13.816
13.1259 13.587
13.1411 13.589
13.1563 13.670
13.1714 13.496
13.1866 13.409
13.2018 13.365
13.2170 13.232
13.2321 13.254
13.2473 13.222
13.2625 13.104
13.2777 13.167
13.2928 13.177
13.3080 12.857
13.3232 12.851
13.3384 13.027
13.3535 12.979
13.3687 13.070
13.3839 12.888
13.3991 12.926
13.4142 13.032
13.4294 12.870
13.4446 12.937
13.4598 12.556
13.4749 12.512
13.4901 12.613
13.5053 12.535
13.5205 12.532
13.5356 12.350
13.5508 12.402
13.5660 12.468
13.5812 12.170
13.5963 12.002
13.6115 12.145
13.6267 12.193
13.6419 12.135
13.6570 11.913
13.6722 11.881
13.6874 12.098
13.7026 12.223
13.7177 12.154
13.7329 12.061
13.7481 12.161
13.7633 12.061
13.7784 11.834
13.7936 12.261
13.8088 12.312
13.8239 12.342
13.8391 12.113
13.8543 12.057
13.8695 12.199
13.8846 12.147
13.8998 12.005
13.9150 12.064
13.9302 11.900
13.9453 12.042
13.9605 11.835
13.9757 11.513
13.9909 11.549
14.0060 11.561
14.0212 11.687
14.0364 11.254
14.0516 11.276
14.0667 11.627
14.0819 11.578
14.0971 11.264
14.1123 11.269
14.1274 11.299
14.1426 11.629
14.1578 11.630
14.1730 11.379
14.1881 11.140
14.2033 11.428
14.2185 11.759
14.2337 11.782
14.2488 11.681
14.2640 11.707
14.2792 11.652
14.2944 11.769
14.3095 11.895
14.3247 12.097
14.3399 12.340
14.3551 12.476
14.3702 12.546
14.3854 12.984
14.4006 13.285
14.4158 13.264
14.4309 13.172
14.4461 13.419
14.4613 13.341
14.4765 13.247
14.4916 13.146
14.5068 13.079
14.5220 13.047
14.5372 13.020
14.5523 12.674
14.5675 12.436
14.5827 12.351
14.5979 12.264
14.6130 12.231
14.6282 12.057
14.6434 11.917
14.6586 11.627
14.6737 11.684
14.6889 11.628
14.7041 11.808
14.7193 11.658
14.7344 11.228
14.7496 11.127
14.7648 11.421
14.7800 11.136
14.7951 10.873
14.8103 10.812
14.8255 10.851
14.8407 10.795
14.8558 10.806
14.8710 10.997
14.8862 10.502
14.9014 10.794
14.9165 11.126
14.9317 11.239
14.9469 10.805
14.9621 10.740
14.9772 10.787
14.9924 10.582
15.0076 10.392
15.0228 10.912
15.0379 10.577
15.0531 10.804
15.0683 10.482
15.0835 10.592
15.0986 10.248
15.1138 10.504
15.1290 10.823
15.1442 10.714
15.1593 10.411
15.1745 10.423
15.1897 10.035
15.2049 10.543
15.2200 10.418
15.2352 10.467
15.2504 10.594
15.2656 10.413
15.2807 10.642
15.2959 10.405
15.3111 10.353
15.3263 10.209
15.3414 10.424
15.3566 10.704
15.3718 10.548
15.3870 10.391
15.4021 10.461
15.4173 10.352
15.4325 10.674
15.4477 10.465
15.4628 10.549
15.4780 10.543
15.4932 10.574
15.5084 10.584
15.5235 10.721
15.5387 10.373
15.5539 10.397
15.5691 10.312
15.5842 10.347
15.5994 10.342
15.6146 10.420
15.6298 10.214
15.6449 10.264
15.6601 10.184
15.6753 10.391
15.6905 10.149
15.7056 10.081
15.7208 9.710
15.7360 10.031
15.7512 10.192
15.7663 9.972
15.7815 9.852
15.7967 9.877
15.8119 9.935
15.8270 10.182
15.8422 10.039
15.8574 9.985
15.8726 9.904
15.8877 9.735
15.9029 9.693
15.9181 9.933
15.9333 9.763
15.9484 9.829
15.9636 9.880
15.9788 9.925
15.9940 9.880
16.0091 9.690
16.0243 9.856
16.0395 9.785
16.0547 9.734
16.0698 9.768
16.0850 9.880
16.1002 9.973
16.1154 10.050
16.1305 9.823
16.1457 9.949
16.1609 9.583
16.1761 9.548
16.1912 9.625
16.2064 9.826
16.2216 9.931
16.2368 9.932
16.2519 9.558
16.2671 9.900
16.2823 10.276
16.2975 10.178
16.3126 10.287
16.3278 10.287
16.3430 10.123
16.3582 9.958
16.3733 10.065
16.3885 10.252
16.4037 10.457
16.4189 10.020
16.4340 9.983
16.4492 9.880
16.4644 9.999
16.4796 10.052
16.4947 10.063
16.5099 9.874
16.5251 9.748
16.5403 9.872
16.5554 9.896
16.5706 9.776
16.5858 9.726
16.6010 9.632
16.6161 9.456
16.6313 9.711
16.6465 10.027
16.6617 9.692
16.6768 9.537
16.6920 9.748
16.7072 10.110
16.7224 9.950
16.7375 10.022
16.7527 9.994
16.7679 10.062
16.7831 9.931
16.7982 9.596
16.8134 9.726
16.8286 10.092
16.8438 10.117
16.8589 9.936
16.8741 9.962
16.8893 9.952
16.9045 9.828
16.9196 9.691
16.9348 9.734
16.9500 9.699
16.9652 9.718
16.9803 9.938
16.9955 10.041
17.0107 10.110
17.0259 10.127
17.0410 9.991
17.0562 9.801
17.0714 10.069
17.0866 10.517
17.1017 10.455
17.1169 10.443
17.1321 10.899
17.1473 11.465
17.1624 11.809
17.1776 12.158
17.1928 12.798
17.2080 13.855
17.2231 15.034
17.2383 16.248
17.2535 17.530
17.2687 18.641
17.2838 18.834
17.2990 18.062
17.3142 16.992
17.3294 16.115
17.3445 15.980
17.3597 15.941
17.3749 15.673
17.3901 15.159
17.4052 14.165
17.4204 13.099
17.4356 12.312
17.4508 11.920
17.4659 11.627
17.4811 11.373
17.4963 11.308
17.5115 11.201
17.5266 11.034
17.5418 10.941
17.5570 10.780
17.5722 10.833
17.5873 11.038
17.6025 11.055
17.6177 10.961
17.6329 10.901
17.6480 10.811
17.6632 10.516
17.6784 10.357
17.6936 10.487
17.7087 10.622
17.7239 10.633
17.7391 10.803
17.7543 10.865
17.7694 10.956
17.7846 10.977
17.7998 11.013
17.8150 11.404
17.8301 11.761
17.8453 11.890
17.8605 11.936
17.8757 12.003
17.8908 11.889
17.9060 11.941
17.9212 11.692
17.9364 11.525
17.9515 11.644
17.9667 11.511
17.9819 11.319
17.9971 11.000
18.0122 10.829
18.0274 10.712
18.0426 10.463
18.0578 10.374
18.0729 10.382
18.0881 10.314
18.1033 10.133
18.1185 9.970
18.1336 9.809
18.1488 9.973
18.1640 10.204
18.1792 10.079
18.1943 9.984
18.2095 10.018
18.2247 10.062
18.2399 9.867
18.2550 9.936
18.2702 9.943
18.2854 10.013
18.3006 10.000
18.3157 9.842
18.3309 9.862
18.3461 9.563
18.3613 9.616
18.3764 9.898
18.3916 10.123
18.4068 9.772
18.4220 9.773
18.4371 9.906
18.4523 9.884
18.4675 9.925
18.4827 10.079
18.4978 10.096
18.5130 10.018
18.5282 9.714
18.5434 9.628
18.5585 9.757
18.5737 9.921
18.5889 9.971
18.6041 9.934
18.6192 9.794
18.6344 9.888
18.6496 9.981
18.6648 9.880
18.6799 9.877
18.6951 9.943
18.7103 9.914
18.7255 9.756
18.7406 9.578
18.7558 9.715
18.7710 9.806
18.7862 9.847
18.8013 9.728
18.8165 9.677
18.8317 9.684
18.8469 9.894
18.8620 9.989
18.8772 9.835
18.8924 9.912
18.9076 9.907
18.9227 9.820
18.9379 10.152
18.9531 10.176
18.9683 10.132
18.9834 9.998
18.9986 10.126
19.0138 10.373
19.0290 10.272
19.0441 10.198
19.0593 10.388
19.0745 10.390
19.0897 10.316
19.1048 10.436
19.1200 10.473
19.1352 10.536
19.1504 10.416
19.1655 10.583
19.1807 10.632
19.1959 10.658
19.2111 10.679
19.2262 10.662
19.2414 10.622
19.2566 10.784
19.2718 10.978
19.2869 10.883
19.3021 10.852
19.3173 11.105
19.3325 11.125
19.3476 11.001
19.3628 11.137
19.3780 11.106
19.3932 11.203
19.4083 11.306
19.4235 11.433
19.4387 11.471
19.4539 11.277
19.4690 11.352
19.4842 11.573
19.4994 11.581
19.5146 11.340
19.5297 11.165
19.5449 11.256
19.5601 11.677
19.5753 12.031
19.5904 11.728
19.6056 11.458
19.6208 11.538
19.6360 11.487
19.6511 11.672
19.6663 11.691
19.6815 11.644
19.6967 11.556
19.7118 11.510
19.7270 11.604
19.7422 11.682
19.7574 11.561
19.7725 11.581
19.7877 11.652
19.8029 11.594
19.8180 11.865
19.8332 11.793
19.8484 11.824
19.8636 12.227
19.8787 12.590
19.8939 12.667
19.9091 12.847
19.9243 13.440
19.9394 13.817
19.9546 14.031
19.9698 14.378
19.9850 14.309
20.0001 14.309
20.0153 14.208
20.0305 13.835
20.0457 13.830
20.0608 13.710
20.0760 13.648
20.0912 13.724
20.1064 13.617
20.1215 13.522
20.1367 13.309
20.1519 13.133
20.1671 12.941
20.1822 12.983
20.1974 13.124
20.2126 12.842
20.2278 12.847
20.2429 12.647
20.2581 12.314
20.2733 11.944
20.2885 11.911
20.3036 11.861
20.3188 11.860
20.3340 11.932
20.3492 11.767
20.3643 11.675
20.3795 11.553
20.3947 11.279
20.4099 11.142
20.4250 10.875
20.4402 10.768
20.4554 10.930
20.4706 10.972
20.4857 10.845
20.5009 10.924
20.5161 10.736
20.5313 11.209
20.5464 11.345
20.5616 11.235
20.5768 11.022
20.5920 10.939
20.6071 10.917
20.6223 10.915
20.6375 10.792
20.6527 10.803
20.6678 10.869
20.6830 10.874
20.6982 10.715
20.7134 10.766
20.7285 10.816
20.7437 10.901
20.7589 10.951
20.7741 10.624
20.7892 10.572
20.8044 10.453
20.8196 10.544
20.8348 10.597
20.8499 10.469
20.8651 10.490
20.8803 10.401
20.8955 10.552
20.9106 10.326
20.9258 10.410
20.9410 10.335
20.9562 10.434
20.9713 10.301
20.9865 10.413
21.0017 10.267
21.0169 9.998
21.0320 10.414
21.0472 10.177
21.0624 10.577
21.0776 10.171
21.0927 10.431
21.1079 10.101
21.1231 10.121
21.1383 9.884
21.1534 9.822
21.1686 9.929
21.1838 9.659
21.1990 9.867
21.2141 9.408
21.2293 9.720
21.2445 9.557
21.2597 10.000
21.2748 9.590
21.2900 9.433
21.3052 9.643
21.3204 9.874
21.3355 9.502
21.3507 9.512
21.3659 9.331
21.3811 9.410
21.3962 9.605
21.4114 9.675
21.4266 9.615
21.4418 9.614
21.4569 9.394
21.4721 9.285
21.4873 9.372
21.5025 9.442
21.5176 9.228
21.5328 9.164
21.5480 9.470
21.5632 9.356
21.5783 9.306
21.5935 9.420
21.6087 9.057
21.6239 9.070
21.6390 9.195
21.6542 9.293
21.6694 9.104
21.6846 9.081
21.6997 9.006
21.7149 8.962
21.7301 8.975
21.7453 8.982
21.7604 9.148
21.7756 9.031
21.7908 9.039
21.8060 9.062
21.8211 9.180
21.8363 9.428
21.8515 9.059
21.8667 8.953
21.8818 8.970
21.8970 9.015
21.9122 8.848
21.9274 8.847
21.9425 8.857
21.9577 8.910
21.9729 8.881
21.9881 8.784
22.0032 8.839
22.0184 8.780
22.0336 8.578
22.0488 8.490
22.0639 8.697
22.0791 8.784
22.0943 8.540
22.1095 8.414
22.1246 8.679
22.1398 8.912
22.1550 8.590
22.1702 8.604
22.1853 8.688
22.2005 8.582
22.2157 8.421
22.2309 8.247
22.2460 8.386
22.2612 8.466
22.2764 8.474
22.2916 8.519
22.3067 8.406
22.3219 8.395
22.3371 8.518
22.3523 8.592
22.3674 8.409
22.3826 8.518
22.3978 8.515
22.4130 8.624
22.4281 8.286
22.4433 8.545
22.4585 8.572
22.4737 8.360
22.4888 8.530
22.5040 8.635
22.5192 8.511
22.5344 8.384
22.5495 8.410
22.5647 8.389
22.5799 8.260
22.5951 8.391
22.6102 8.298
22.6254 8.369
22.6406 8.562
22.6558 8.652
22.6709 8.280
22.6861 8.098
22.7013 7.991
22.7165 8.002
22.7316 6.439
