'Id: "" Comment: "" Operator: "Lab Manager" Anode: "Mo" Scantype: "Still (Eiger2R_500K (1D mode))" TimePerStep: "300" X: "11.8" Y: "9.4" Z: "11.284" 
7.2532 18.476
7.2684 18.504
7.2836 18.739
7.2987 19.142
7.3139 18.567
7.3291 19.053
7.3443 19.164
7.3594 18.987
7.3746 18.761
7.3898 19.687
7.4050 19.574
7.4201 19.308
7.4353 18.983
7.4505 19.013
7.4657 19.566
7.4808 19.566
7.4960 19.497
7.5112 19.762
7.5264 19.471
7.5415 19.498
7.5567 19.719
7.5719 20.191
7.5871 20.000
7.6022 19.625
7.6174 19.696
7.6326 19.643
7.6478 19.744
7.6629 20.316
7.6781 20.333
7.6933 20.218
7.7085 20.231
7.7236 20.199
7.7388 20.172
7.7540 19.980
7.7692 20.219
7.7843 20.390
7.7995 20.459
7.8147 20.549
7.8299 20.459
7.8450 20.479
7.8602 20.604
7.8754 20.520
7.8905 20.466
7.9057 20.554
7.9209 20.500
7.9361 20.637
7.9512 21.056
7.9664 20.787
7.9816 20.662
7.9968 21.041
8.0119 21.032
8.0271 20.626
8.0423 20.712
8.0575 20.939
8.0726 21.194
8.0878 21.272
8.1030 20.913
8.1182 20.747
8.1333 20.770
8.1485 21.299
8.1637 21.348
8.1789 21.437
8.1940 21.498
8.2092 21.392
8.2244 21.516
8.2396 21.217
8.2547 21.334
8.2699 21.319
8.2851 21.674
8.3003 21.752
8.3154 21.353
8.3306 21.841
8.3458 21.288
8.3610 21.455
8.3761 21.447
8.3913 21.997
8.4065 21.829
8.4217 21.971
8.4368 21.470
8.4520 22.145
8.4672 22.019
8.4824 22.087
8.4975 21.758
8.5127 21.728
8.5279 21.743
8.5431 22.362
8.5582 21.852
8.5734 21.669
8.5886 21.783
8.6038 22.390
8.6189 21.965
8.6341 22.382
8.6493 22.054
8.6645 22.690
8.6796 22.035
8.6948 22.104
8.7100 22.385
8.7252 21.755
8.7403 22.134
8.7555 22.292
8.7707 22.856
8.7859 22.280
8.8010 22.295
8.8162 22.364
8.8314 22.450
8.8466 22.167
8.8617 22.520
8.8769 22.425
8.8921 22.625
8.9073 22.076
8.9224 22.790
8.9376 22.634
8.9528 22.338
8.9680 22.547
8.9831 22.687
8.9983 22.459
9.0135 22.742
9.0287 22.432
9.0438 22.475
9.0590 22.402
9.0742 22.409
9.0894 22.252
9.1045 22.336
9.1197 22.660
9.1349 22.830
9.1501 22.708
9.1652 22.588
9.1804 23.070
9.1956 23.021
9.2108 22.725
9.2259 22.483
9.2411 22.706
9.2563 22.851
9.2715 23.182
9.2866 22.964
9.3018 22.852
9.3170 22.909
9.3322 22.929
9.3473 22.770
9.3625 22.967
9.3777 22.935
9.3929 22.787
9.4080 22.945
9.4232 22.847
9.4384 22.571
9.4536 22.698
9.4687 22.850
9.4839 23.218
9.4991 23.277
9.5143 22.915
9.5294 23.070
9.5446 23.365
9.5598 23.196
9.5750 23.085
9.5901 22.955
9.6053 23.090
9.6205 23.505
9.6357 23.360
9.6508 23.286
9.6660 23.377
9.6812 23.579
9.6964 23.828
9.7115 23.906
9.7267 23.808
9.7419 24.151
9.7571 24.190
9.7722 24.134
9.7874 23.793
9.8026 23.325
9.8178 23.409
9.8329 23.432
9.8481 23.297
9.8633 23.496
9.8785 23.328
9.8936 23.080
9.9088 23.553
9.9240 23.479
9.9392 22.671
9.9543 22.621
9.9695 22.831
9.9847 22.868
9.9999 23.080
10.0150 22.920
10.0302 23.007
10.0454 23.384
10.0606 23.316
10.0757 23.118
10.0909 23.095
10.1061 23.282
10.1213 23.393
10.1364 23.283
10.1516 23.328
10.1668 23.310
10.1820 23.368
10.1971 23.081
10.2123 22.989
10.2275 23.304
10.2427 23.096
10.2578 22.956
10.2730 22.847
10.2882 23.003
10.3034 22.952
10.3185 22.453
10.3337 22.073
10.3489 22.293
10.3641 22.349
10.3792 22.419
10.3944 22.412
10.4096 22.674
10.4248 22.795
10.4399 22.527
10.4551 22.167
10.4703 22.430
10.4855 22.405
10.5006 22.291
10.5158 22.550
10.5310 22.302
10.5462 22.238
10.5613 22.091
10.5765 22.396
10.5917 22.405
10.6069 22.075
10.6220 22.628
10.6372 23.102
10.6524 22.266
10.6676 21.790
10.6827 21.941
10.6979 22.018
10.7131 22.265
10.7283 22.478
10.7434 21.960
10.7586 22.036
10.7738 22.122
10.7890 22.261
10.8041 22.081
10.8193 22.193
10.8345 22.321
10.8497 21.696
10.8648 21.763
10.8800 22.187
10.8952 22.345
10.9104 22.218
10.9255 22.064
10.9407 22.288
10.9559 21.924
10.9711 21.853
10.9862 21.946
11.0014 21.655
11.0166 21.807
11.0318 22.197
11.0469 21.465
11.0621 21.593
11.0773 21.844
11.0925 21.657
11.1076 21.402
11.1228 21.512
11.1380 21.631
11.1532 21.818
11.1683 21.802
11.1835 21.675
11.1987 21.691
11.2139 21.524
11.2290 21.676
11.2442 21.752
11.2594 21.533
11.2746 21.626
11.2897 21.769
11.3049 21.221
11.3201 21.048
11.3353 21.332
11.3504 21.494
11.3656 21.385
11.3808 21.231
11.3960 21.310
11.4111 21.065
11.4263 20.951
11.4415 20.972
11.4567 21.214
11.4718 21.296
11.4870 21.044
11.5022 20.991
11.5174 20.825
11.5325 20.869
11.5477 21.207
11.5629 21.179
11.5781 21.054
11.5932 20.789
11.6084 20.567
11.6236 20.622
11.6388 20.672
11.6539 20.360
11.6691 20.336
11.6843 20.247
11.6995 20.282
11.7146 20.407
11.7298 20.513
11.7450 20.476
11.7602 20.592
11.7753 20.576
11.7905 20.244
11.8057 19.894
11.8209 19.947
11.8360 20.126
11.8512 20.044
11.8664 19.891
11.8816 19.831
11.8967 19.963
11.9119 19.758
11.9271 19.801
11.9423 19.292
11.9574 19.143
11.9726 19.250
11.9878 19.022
12.0030 19.163
12.0181 19.346
12.0333 19.239
12.0485 19.296
12.0637 19.228
12.0788 19.030
12.0940 18.755
12.1092 18.556
12.1244 18.438
12.1395 18.470
12.1547 18.471
12.1699 18.226
12.1851 18.324
12.2002 18.503
12.2154 18.200
12.2306 17.912
12.2458 17.992
12.2609 17.671
12.2761 17.635
12.2913 17.558
12.3065 17.602
12.3216 17.782
12.3368 17.644
12.3520 17.247
12.3672 17.155
12.3823 17.447
12.3975 17.415
12.4127 17.263
12.4279 17.111
12.4430 17.215
12.4582 16.822
12.4734 16.617
12.4886 16.490
12.5037 16.712
12.5189 16.771
12.5341 16.646
12.5493 16.598
12.5644 16.228
12.5796 16.008
12.5948 16.163
12.6100 16.319
12.6251 16.174
12.6403 16.113
12.6555 15.996
12.6707 15.876
12.6858 15.962
12.7010 15.937
12.7162 15.596
12.7314 15.399
12.7465 15.444
12.7617 15.356
12.7769 15.303
12.7921 15.162
12.8072 15.100
12.8224 15.134
12.8376 14.909
12.8528 14.759
12.8679 14.923
12.8831 14.652
12.8983 14.495
12.9135 14.655
12.9286 14.666
12.9438 14.590
12.9590 14.409
12.9742 14.575
12.9893 14.529
13.0045 14.281
13.0197 14.246
13.0349 14.155
13.0500 14.068
13.0652 13.897
13.0804 13.818
13.0956 13.798
13.1107 13.743
13.1259 13.635
13.1411 13.575
13.1563 13.703
13.1714 13.685
13.1866 13.441
13.2018 13.150
13.2170 13.271
13.2321 13.543
13.2473 13.388
13.2625 13.091
13.2777 13.008
13.2928 13.338
13.3080 13.305
13.3232 13.130
13.3384 13.232
13.3535 12.956
13.3687 12.998
13.3839 13.075
13.3991 12.934
13.4142 13.031
13.4294 12.984
13.4446 12.933
13.4598 12.860
13.4749 12.779
13.4901 12.751
13.5053 12.591
13.5205 12.490
13.5356 12.457
13.5508 12.544
13.5660 12.532
13.5812 12.166
13.5963 12.224
13.6115 12.295
13.6267 12.066
13.6419 11.952
13.6570 12.069
13.6722 12.118
13.6874 12.006
13.7026 11.987
13.7177 12.037
13.7329 12.018
13.7481 12.093
13.7633 12.240
13.7784 12.350
13.7936 12.174
13.8088 12.152
13.8239 12.326
13.8391 12.416
13.8543 12.326
13.8695 12.193
13.8846 12.059
13.8998 12.062
13.9150 12.252
13.9302 12.109
13.9453 11.885
13.9605 11.876
13.9757 11.663
13.9909 11.650
14.0060 11.778
14.0212 11.694
14.0364 11.513
14.0516 11.666
14.0667 11.502
14.0819 11.643
14.0971 11.629
14.1123 11.756
14.1274 11.537
14.1426 11.466
14.1578 11.585
14.1730 11.661
14.1881 11.805
14.2033 11.961
14.2185 12.072
14.2337 11.927
14.2488 11.928
14.2640 11.577
14.2792 11.788
14.2944 11.860
14.3095 12.040
14.3247 12.457
14.3399 12.222
14.3551 12.479
14.3702 12.959
14.3854 12.950
14.4006 13.245
14.4158 13.490
14.4309 12.985
14.4461 12.583
14.4613 12.305
14.4765 12.150
14.4916 12.168
14.5068 12.108
14.5220 11.830
14.5372 11.262
14.5523 11.214
14.5675 10.871
14.5827 10.894
14.5979 11.004
14.6130 10.989
14.6282 10.754
14.6434 10.622
14.6586 10.872
14.6737 10.722
14.6889 10.633
14.7041 10.675
14.7193 10.678
14.7344 10.704
14.7496 10.287
14.7648 10.379
14.7800 10.469
14.7951 10.392
14.8103 10.807
14.8255 10.801
14.8407 10.733
14.8558 10.692
14.8710 10.528
14.8862 10.282
14.9014 10.453
14.9165 10.935
14.9317 10.889
14.9469 10.579
14.9621 10.796
14.9772 10.548
14.9924 10.092
15.0076 10.191
15.0228 10.378
15.0379 9.948
15.0531 10.150
15.0683 10.148
15.0835 10.388
15.0986 10.686
15.1138 10.279
15.1290 10.382
15.1442 10.175
15.1593 10.380
15.1745 10.386
15.1897 10.369
15.2049 9.926
15.2200 10.176
15.2352 10.361
15.2504 10.220
15.2656 9.705
15.2807 10.269
15.2959 10.232
15.3111 10.247
15.3263 10.056
15.3414 10.019
15.3566 10.127
15.3718 9.925
15.3870 9.931
15.4021 10.071
15.4173 10.599
15.4325 10.236
15.4477 10.082
15.4628 10.009
15.4780 10.363
15.4932 10.108
15.5084 10.416
15.5235 10.147
15.5387 10.021
15.5539 9.718
15.5691 10.106
15.5842 9.908
15.5994 10.011
15.6146 9.829
15.6298 9.943
15.6449 9.909
15.6601 9.719
15.6753 9.632
15.6905 9.555
15.7056 9.667
15.7208 9.428
15.7360 9.636
15.7512 9.714
15.7663 9.670
15.7815 9.890
15.7967 9.885
15.8119 9.705
15.8270 9.877
15.8422 9.453
15.8574 9.830
15.8726 9.525
15.8877 9.295
15.9029 9.350
15.9181 9.530
15.9333 9.607
15.9484 10.030
15.9636 9.665
15.9788 9.660
15.9940 9.553
16.0091 9.390
16.0243 9.676
16.0395 9.533
16.0547 9.565
16.0698 9.815
16.0850 9.688
16.1002 9.575
16.1154 9.768
16.1305 9.846
16.1457 9.608
16.1609 9.500
16.1761 9.759
16.1912 9.827
16.2064 9.623
16.2216 9.829
16.2368 9.714
16.2519 9.653
16.2671 9.516
16.2823 9.790
16.2975 9.604
16.3126 9.799
16.3278 9.775
16.3430 9.737
16.3582 9.632
16.3733 9.893
16.3885 9.956
16.4037 9.849
16.4189 9.803
16.4340 10.012
16.4492 9.921
16.4644 9.848
16.4796 9.617
16.4947 9.795
16.5099 9.891
16.5251 9.797
16.5403 9.786
16.5554 9.796
16.5706 9.682
16.5858 9.689
16.6010 9.676
16.6161 9.478
16.6313 9.483
16.6465 9.626
16.6617 9.739
16.6768 9.855
16.6920 9.930
16.7072 9.874
16.7224 9.885
16.7375 9.808
16.7527 9.762
16.7679 10.059
16.7831 9.925
16.7982 9.929
16.8134 9.984
16.8286 9.896
16.8438 9.797
16.8589 9.824
16.8741 9.704
16.8893 9.772
16.9045 9.825
16.9196 9.767
16.9348 9.681
16.9500 9.457
16.9652 9.540
16.9803 9.863
16.9955 9.899
17.0107 9.781
17.0259 10.027
17.0410 10.114
17.0562 10.094
17.0714 10.259
17.0866 10.377
17.1017 10.619
17.1169 10.778
17.1321 10.853
17.1473 11.109
17.1624 11.730
17.1776 12.433
17.1928 13.111
17.2080 14.008
17.2231 15.041
17.2383 16.454
17.2535 17.563
17.2687 18.307
17.2838 18.301
17.2990 17.610
17.3142 17.008
17.3294 16.456
17.3445 16.209
17.3597 16.189
17.3749 16.070
17.3901 15.589
17.4052 14.555
17.4204 13.516
17.4356 12.876
17.4508 12.194
17.4659 11.723
17.4811 11.719
17.4963 11.688
17.5115 11.280
17.5266 11.053
17.5418 10.972
17.5570 10.943
17.5722 11.184
17.5873 11.186
17.6025 11.163
17.6177 11.139
17.6329 11.260
17.6480 11.525
17.6632 11.422
17.6784 11.395
17.6936 11.540
17.7087 11.528
17.7239 11.233
17.7391 10.925
17.7543 10.994
17.7694 11.006
17.7846 10.936
17.7998 10.889
17.8150 10.680
17.8301 10.381
17.8453 10.247
17.8605 10.426
17.8757 10.530
17.8908 10.282
17.9060 10.328
17.9212 10.384
17.9364 10.123
17.9515 10.022
17.9667 10.109
17.9819 10.163
17.9971 9.999
18.0122 10.052
18.0274 10.134
18.0426 10.105
18.0578 10.220
18.0729 10.291
18.0881 10.191
18.1033 9.946
18.1185 9.904
18.1336 9.963
18.1488 9.884
18.1640 9.820
18.1792 10.075
18.1943 9.911
18.2095 9.797
18.2247 9.875
18.2399 9.987
18.2550 9.987
18.2702 9.966
18.2854 9.685
18.3006 9.614
18.3157 9.812
18.3309 9.915
18.3461 10.054
18.3613 9.939
18.3764 9.685
18.3916 9.802
18.4068 10.104
18.4220 10.128
18.4371 10.127
18.4523 9.940
18.4675 9.719
18.4827 9.748
18.4978 9.692
18.5130 9.930
18.5282 9.761
18.5434 9.581
18.5585 9.871
18.5737 9.949
18.5889 10.014
18.6041 9.969
18.6192 9.791
18.6344 9.918
18.6496 9.867
18.6648 9.879
18.6799 9.847
18.6951 9.674
18.7103 9.648
18.7255 9.630
18.7406 9.769
18.7558 9.600
18.7710 9.811
18.7862 9.981
18.8013 9.766
18.8165 9.679
18.8317 9.867
18.8469 9.952
18.8620 9.902
18.8772 10.087
18.8924 10.181
18.9076 10.120
18.9227 9.786
18.9379 9.689
18.9531 9.909
18.9683 9.824
18.9834 9.796
18.9986 9.904
19.0138 10.027
19.0290 10.114
19.0441 10.309
19.0593 10.461
19.0745 10.278
19.0897 10.152
19.1048 10.416
19.1200 10.376
19.1352 10.303
19.1504 10.453
19.1655 10.658
19.1807 10.586
19.1959 10.638
19.2111 10.856
19.2262 10.941
19.2414 11.027
19.2566 10.779
19.2718 10.769
19.2869 11.023
19.3021 10.898
19.3173 10.875
19.3325 10.985
19.3476 11.092
19.3628 11.139
19.3780 11.136
19.3932 11.233
19.4083 11.152
19.4235 11.129
19.4387 11.215
19.4539 11.411
19.4690 11.290
19.4842 11.272
19.4994 11.392
19.5146 11.176
19.5297 11.355
19.5449 11.345
19.5601 11.290
19.5753 11.555
19.5904 11.700
19.6056 11.586
19.6208 11.590
19.6360 11.792
19.6511 11.681
19.6663 11.795
19.6815 11.793
19.6967 11.561
19.7118 11.730
19.7270 11.775
19.7422 11.773
19.7574 11.749
19.7725 11.711
19.7877 11.863
19.8029 11.842
19.8180 11.913
19.8332 12.122
19.8484 12.362
19.8636 12.446
19.8787 12.589
19.8939 12.824
19.9091 13.223
19.9243 13.478
19.9394 13.796
19.9546 14.217
19.9698 14.431
19.9850 14.386
20.0001 14.495
20.0153 14.490
20.0305 14.296
20.0457 14.047
20.0608 13.795
20.0760 13.716
20.0912 13.714
20.1064 13.712
20.1215 13.477
20.1367 13.236
20.1519 13.266
20.1671 13.195
20.1822 13.160
20.1974 12.900
20.2126 12.758
20.2278 12.764
20.2429 12.485
20.2581 12.427
20.2733 12.300
20.2885 11.913
20.3036 11.889
20.3188 11.766
20.3340 12.036
20.3492 12.170
20.3643 12.143
20.3795 11.955
20.3947 11.860
20.4099 11.917
20.4250 11.877
20.4402 12.124
20.4554 11.836
20.4706 11.719
20.4857 11.686
20.5009 11.646
20.5161 11.715
20.5313 11.493
20.5464 11.262
20.5616 11.235
20.5768 11.219
20.5920 11.464
20.6071 11.349
20.6223 11.118
20.6375 10.928
20.6527 10.753
20.6678 10.974
20.6830 10.676
20.6982 10.666
20.7134 10.224
20.7285 10.280
20.7437 10.297
20.7589 10.341
20.7741 10.329
20.7892 10.568
20.8044 10.406
20.8196 10.532
20.8348 10.234
20.8499 10.499
20.8651 10.465
20.8803 10.345
20.8955 10.305
20.9106 10.270
20.9258 10.285
20.9410 10.163
20.9562 10.183
20.9713 10.153
20.9865 10.026
21.0017 9.846
21.0169 10.002
21.0320 10.223
21.0472 10.033
21.0624 9.988
21.0776 9.773
21.0927 9.601
21.1079 9.750
21.1231 9.591
21.1383 10.078
21.1534 9.872
21.1686 9.830
21.1838 9.726
21.1990 10.030
21.2141 9.742
21.2293 9.816
21.2445 9.692
21.2597 9.603
21.2748 9.423
21.2900 9.698
21.3052 9.472
21.3204 9.064
21.3355 9.529
21.3507 9.703
21.3659 9.360
21.3811 9.236
21.3962 9.554
21.4114 9.463
21.4266 9.249
21.4418 9.383
21.4569 9.604
21.4721 9.507
21.4873 9.271
21.5025 9.331
21.5176 9.361
21.5328 9.397
21.5480 9.240
21.5632 9.060
21.5783 9.583
21.5935 9.221
21.6087 9.426
21.6239 9.269
21.6390 9.219
21.6542 9.182
21.6694 9.135
21.6846 9.215
21.6997 9.285
21.7149 9.190
21.7301 9.174
21.7453 9.426
21.7604 9.200
21.7756 8.935
21.7908 9.072
21.8060 9.224
21.8211 9.109
21.8363 9.046
21.8515 9.178
21.8667 9.161
21.8818 9.240
21.8970 9.282
21.9122 8.948
21.9274 8.914
21.9425 9.036
21.9577 8.784
21.9729 8.895
21.9881 8.975
22.0032 8.959
22.0184 9.076
22.0336 8.858
22.0488 8.726
22.0639 8.703
22.0791 8.607
22.0943 8.579
22.1095 8.588
22.1246 8.522
22.1398 8.692
22.1550 8.702
22.1702 8.617
22.1853 8.592
22.2005 8.519
22.2157 8.522
22.2309 8.754
22.2460 8.604
22.2612 8.650
22.2764 8.848
22.2916 8.801
22.3067 8.414
22.3219 8.334
22.3371 8.224
22.3523 8.336
22.3674 8.501
22.3826 8.578
22.3978 8.440
22.4130 8.389
22.4281 8.299
22.4433 8.374
22.4585 8.542
22.4737 8.313
22.4888 8.569
22.5040 8.320
22.5192 8.396
22.5344 8.573
22.5495 8.412
22.5647 8.339
22.5799 8.423
22.5951 8.193
22.6102 8.291
22.6254 8.434
22.6406 8.344
22.6558 8.247
22.6709 8.343
22.6861 8.267
22.7013 8.188
22.7165 7.751
22.7316 6.510
