'Id: "" Comment: "" Operator: "Lab Manager" Anode: "Mo" Scantype: "Still (Eiger2R_500K (1D mode))" TimePerStep: "300" X: "11.8" Y: "9.4" Z: "11.284" 
7.2532 18.814
7.2684 18.849
7.2836 18.889
7.2987 18.868
7.3139 19.157
7.3291 19.036
7.3443 19.145
7.3594 19.236
7.3746 19.210
7.3898 19.152
7.4050 19.253
7.4201 19.670
7.4353 19.315
7.4505 19.149
7.4657 19.483
7.4808 19.397
7.4960 19.394
7.5112 19.694
7.5264 19.441
7.5415 20.126
7.5567 19.977
7.5719 19.596
7.5871 19.878
7.6022 19.888
7.6174 20.058
7.6326 20.293
7.6478 20.055
7.6629 19.883
7.6781 20.106
7.6933 20.110
7.7085 20.513
7.7236 20.567
7.7388 20.336
7.7540 20.625
7.7692 20.680
7.7843 20.745
7.7995 20.675
7.8147 20.351
7.8299 20.327
7.8450 20.782
7.8602 20.829
7.8754 20.913
7.8905 21.286
7.9057 21.314
7.9209 21.169
7.9361 20.861
7.9512 20.929
7.9664 20.936
7.9816 20.626
7.9968 20.935
8.0119 20.985
8.0271 21.042
8.0423 20.995
8.0575 21.359
8.0726 21.373
8.0878 21.184
8.1030 21.291
8.1182 21.162
8.1333 21.670
8.1485 21.577
8.1637 21.343
8.1789 21.368
8.1940 21.597
8.2092 21.406
8.2244 21.563
8.2396 21.546
8.2547 21.844
8.2699 21.608
8.2851 22.126
8.3003 21.568
8.3154 21.671
8.3306 21.911
8.3458 21.876
8.3610 22.268
8.3761 21.728
8.3913 22.083
8.4065 22.217
8.4217 21.988
8.4368 22.332
8.4520 21.853
8.4672 22.109
8.4824 21.833
8.4975 22.573
8.5127 22.211
8.5279 22.285
8.5431 22.019
8.5582 22.497
8.5734 22.456
8.5886 21.966
8.6038 22.211
8.6189 22.397
8.6341 22.538
8.6493 22.484
8.6645 22.513
8.6796 22.830
8.6948 22.646
8.7100 22.642
8.7252 22.887
8.7403 22.521
8.7555 22.820
8.7707 23.033
8.7859 22.821
8.8010 22.791
8.8162 22.695
8.8314 22.525
8.8466 22.980
8.8617 22.348
8.8769 22.736
8.8921 22.907
8.9073 22.352
8.9224 22.303
8.9376 22.798
8.9528 22.756
8.9680 22.607
8.9831 22.892
8.9983 22.959
9.0135 22.886
9.0287 23.116
9.0438 22.865
9.0590 22.693
9.0742 22.877
9.0894 23.021
9.1045 22.827
9.1197 22.937
9.1349 22.988
9.1501 22.778
9.1652 22.730
9.1804 23.166
9.1956 22.981
9.2108 22.645
9.2259 23.054
9.2411 22.967
9.2563 22.913
9.2715 23.105
9.2866 22.992
9.3018 23.227
9.3170 23.381
9.3322 23.247
9.3473 23.103
9.3625 23.581
9.3777 23.462
9.3929 23.117
9.4080 23.264
9.4232 23.319
9.4384 23.277
9.4536 23.352
9.4687 23.150
9.4839 22.895
9.4991 22.965
9.5143 23.636
9.5294 23.711
9.5446 23.382
9.5598 23.262
9.5750 23.261
9.5901 23.502
9.6053 23.635
9.6205 23.691
9.6357 23.669
9.6508 23.538
9.6660 23.660
9.6812 23.781
9.6964 23.712
9.7115 23.924
9.7267 24.111
9.7419 24.341
9.7571 24.265
9.7722 23.772
9.7874 23.795
9.8026 23.897
9.8178 23.704
9.8329 23.322
9.8481 23.274
9.8633 23.413
9.8785 23.426
9.8936 23.155
9.9088 23.120
9.9240 23.488
9.9392 23.550
9.9543 23.326
9.9695 23.269
9.9847 23.459
9.9999 23.687
10.0150 23.626
10.0302 23.324
10.0454 23.620
10.0606 23.794
10.0757 23.475
10.0909 23.407
10.1061 23.573
10.1213 23.539
10.1364 23.562
10.1516 23.460
10.1668 23.413
10.1820 23.551
10.1971 23.901
10.2123 24.049
10.2275 24.035
10.2427 23.987
10.2578 24.080
10.2730 23.878
10.2882 23.417
10.3034 23.481
10.3185 23.628
10.3337 22.972
10.3489 22.740
10.3641 23.209
10.3792 23.105
10.3944 22.970
10.4096 22.978
10.4248 22.952
10.4399 22.664
10.4551 22.898
10.4703 22.894
10.4855 22.708
10.5006 22.599
10.5158 22.463
10.5310 22.576
10.5462 22.766
10.5613 22.811
10.5765 22.626
10.5917 22.839
10.6069 22.962
10.6220 22.921
10.6372 22.819
10.6524 22.713
10.6676 22.517
10.6827 22.575
10.6979 22.637
10.7131 22.246
10.7283 22.324
10.7434 22.506
10.7586 21.973
10.7738 22.220
10.7890 22.178
10.8041 22.263
10.8193 22.601
10.8345 22.362
10.8497 22.438
10.8648 21.993
10.8800 22.054
10.8952 22.552
10.9104 22.393
10.9255 22.300
10.9407 21.970
10.9559 22.047
10.9711 22.046
10.9862 22.068
11.0014 22.314
11.0166 22.507
11.0318 22.305
11.0469 21.646
11.0621 21.906
11.0773 21.856
11.0925 22.176
11.1076 22.126
11.1228 21.847
11.1380 21.893
11.1532 21.821
11.1683 21.734
11.1835 21.724
11.1987 21.915
11.2139 22.189
11.2290 22.207
11.2442 22.069
11.2594 21.866
11.2746 21.780
11.2897 21.699
11.3049 21.830
11.3201 21.806
11.3353 21.951
11.3504 21.694
11.3656 21.711
11.3808 21.630
11.3960 21.151
11.4111 21.337
11.4263 21.557
11.4415 21.455
11.4567 21.408
11.4718 21.700
11.4870 21.452
11.5022 21.060
11.5174 21.226
11.5325 21.356
11.5477 20.891
11.5629 20.644
11.5781 20.793
11.5932 20.798
11.6084 20.984
11.6236 20.854
11.6388 20.661
11.6539 20.795
11.6691 20.574
11.6843 20.693
11.6995 20.464
11.7146 20.485
11.7298 20.752
11.7450 20.445
11.7602 20.379
11.7753 20.183
11.7905 20.110
11.8057 20.362
11.8209 19.917
11.8360 20.089
11.8512 19.767
11.8664 19.894
11.8816 20.460
11.8967 19.910
11.9119 19.633
11.9271 19.529
11.9423 19.700
11.9574 19.422
11.9726 19.234
11.9878 19.076
12.0030 19.372
12.0181 18.888
12.0333 19.071
12.0485 19.033
12.0637 19.187
12.0788 18.614
12.0940 18.413
12.1092 18.831
12.1244 18.752
12.1395 18.688
12.1547 18.714
12.1699 18.120
12.1851 17.883
12.2002 17.990
12.2154 17.930
12.2306 18.282
12.2458 18.101
12.2609 17.997
12.2761 17.992
12.2913 18.065
12.3065 17.699
12.3216 17.437
12.3368 17.619
12.3520 17.679
12.3672 17.499
12.3823 17.461
12.3975 17.569
12.4127 17.466
12.4279 17.243
12.4430 17.632
12.4582 17.399
12.4734 17.240
12.4886 17.196
12.5037 17.090
12.5189 16.914
12.5341 16.695
12.5493 16.405
12.5644 16.458
12.5796 16.593
12.5948 16.348
12.6100 15.933
12.6251 15.804
12.6403 15.949
12.6555 15.670
12.6707 15.824
12.6858 16.241
12.7010 15.883
12.7162 15.820
12.7314 15.832
12.7465 15.470
12.7617 15.398
12.7769 15.275
12.7921 15.487
12.8072 15.398
12.8224 15.467
12.8376 15.367
12.8528 15.176
12.8679 15.029
12.8831 14.884
12.8983 14.893
12.9135 14.904
12.9286 14.670
12.9438 14.587
12.9590 14.703
12.9742 14.928
12.9893 14.718
13.0045 14.425
13.0197 14.360
13.0349 14.091
13.0500 14.102
13.0652 14.216
13.0804 14.070
13.0956 13.846
13.1107 13.937
13.1259 14.042
13.1411 13.921
13.1563 13.857
13.1714 13.724
13.1866 13.620
13.2018 13.727
13.2170 13.734
13.2321 13.432
13.2473 13.224
13.2625 13.465
13.2777 13.444
13.2928 13.145
13.3080 13.300
13.3232 13.299
13.3384 13.044
13.3535 13.103
13.3687 13.184
13.3839 13.038
13.3991 12.918
13.4142 13.080
13.4294 13.293
13.4446 13.084
13.4598 12.715
13.4749 12.502
13.4901 12.433
13.5053 12.342
13.5205 12.479
13.5356 12.286
13.5508 12.230
13.5660 12.310
13.5812 12.391
13.5963 12.390
13.6115 12.182
13.6267 12.182
13.6419 12.100
13.6570 11.950
13.6722 11.974
13.6874 12.035
13.7026 11.920
13.7177 11.966
13.7329 11.817
13.7481 12.003
13.7633 12.147
13.7784 12.249
13.7936 12.224
13.8088 12.097
13.8239 12.340
13.8391 12.126
13.8543 11.985
13.8695 12.237
13.8846 11.921
13.8998 11.903
13.9150 12.011
13.9302 12.089
13.9453 12.019
13.9605 11.922
13.9757 11.784
13.9909 11.767
14.0060 11.674
14.0212 11.739
14.0364 11.569
14.0516 11.331
14.0667 11.405
14.0819 11.528
14.0971 11.359
14.1123 11.437
14.1274 11.219
14.1426 11.586
14.1578 11.596
14.1730 11.668
14.1881 11.923
14.2033 11.931
14.2185 11.781
14.2337 11.683
14.2488 11.830
14.2640 12.306
14.2792 12.263
14.2944 11.987
14.3095 12.277
14.3247 12.689
14.3399 12.624
14.3551 12.500
14.3702 12.860
14.3854 13.152
14.4006 13.349
14.4158 13.078
14.4309 12.918
14.4461 12.987
14.4613 12.987
14.4765 12.675
14.4916 12.526
14.5068 12.180
14.5220 11.724
14.5372 11.878
14.5523 11.725
14.5675 11.612
14.5827 11.495
14.5979 11.361
14.6130 11.387
14.6282 11.451
14.6434 11.130
14.6586 11.043
14.6737 11.378
14.6889 11.332
14.7041 11.185
14.7193 11.039
14.7344 11.171
14.7496 11.241
14.7648 11.282
14.7800 10.671
14.7951 10.998
14.8103 10.501
14.8255 10.676
14.8407 10.572
14.8558 10.531
14.8710 10.657
14.8862 10.726
14.9014 10.432
14.9165 10.757
14.9317 10.994
14.9469 10.294
14.9621 10.653
14.9772 10.318
14.9924 10.317
15.0076 10.599
15.0228 10.596
15.0379 10.613
15.0531 10.385
15.0683 10.674
15.0835 10.594
15.0986 10.762
15.1138 10.259
15.1290 10.231
15.1442 10.368
15.1593 10.552
15.1745 10.391
15.1897 10.512
15.2049 10.171
15.2200 10.455
15.2352 10.533
15.2504 10.579
15.2656 10.337
15.2807 10.352
15.2959 10.225
15.3111 10.279
15.3263 10.142
15.3414 10.269
15.3566 10.640
15.3718 10.619
15.3870 10.432
15.4021 10.491
15.4173 10.607
15.4325 10.453
15.4477 10.418
15.4628 10.241
15.4780 10.547
15.4932 10.605
15.5084 10.545
15.5235 10.434
15.5387 10.168
15.5539 10.341
15.5691 10.274
15.5842 9.855
15.5994 10.065
15.6146 10.451
15.6298 10.156
15.6449 10.170
15.6601 9.713
15.6753 9.988
15.6905 9.708
15.7056 9.865
15.7208 10.056
15.7360 9.830
15.7512 10.187
15.7663 9.991
15.7815 10.172
15.7967 9.757
15.8119 9.788
15.8270 9.924
15.8422 9.756
15.8574 9.756
15.8726 9.556
15.8877 9.648
15.9029 9.739
15.9181 9.788
15.9333 9.882
15.9484 9.914
15.9636 9.924
15.9788 9.842
15.9940 9.628
16.0091 9.807
16.0243 9.969
16.0395 9.792
16.0547 9.744
16.0698 9.796
16.0850 9.867
16.1002 9.737
16.1154 9.663
16.1305 9.894
16.1457 10.005
16.1609 9.712
16.1761 9.727
16.1912 9.671
16.2064 9.691
16.2216 9.871
16.2368 9.767
16.2519 9.975
16.2671 9.865
16.2823 9.919
16.2975 10.214
16.3126 10.072
16.3278 9.828
16.3430 9.858
16.3582 9.979
16.3733 10.105
16.3885 10.367
16.4037 9.954
16.4189 9.862
16.4340 9.883
16.4492 9.897
16.4644 9.653
16.4796 10.025
16.4947 9.852
16.5099 9.923
16.5251 9.813
16.5403 9.737
16.5554 9.790
16.5706 9.672
16.5858 9.424
16.6010 9.713
16.6161 9.966
16.6313 9.955
16.6465 9.763
16.6617 9.875
16.6768 9.847
16.6920 9.890
16.7072 9.757
16.7224 9.968
16.7375 10.195
16.7527 10.045
16.7679 9.948
16.7831 9.953
16.7982 9.929
16.8134 10.060
16.8286 9.934
16.8438 9.768
16.8589 9.671
16.8741 9.737
16.8893 9.598
16.9045 9.729
16.9196 10.004
16.9348 9.931
16.9500 9.899
16.9652 9.575
16.9803 9.729
16.9955 9.958
17.0107 10.119
17.0259 10.135
17.0410 10.287
17.0562 10.081
17.0714 9.967
17.0866 10.154
17.1017 10.204
17.1169 10.664
17.1321 11.020
17.1473 11.147
17.1624 11.788
17.1776 12.545
17.1928 13.150
17.2080 14.092
17.2231 15.195
17.2383 16.050
17.2535 17.257
17.2687 18.384
17.2838 18.443
17.2990 18.001
17.3142 17.304
17.3294 16.668
17.3445 16.530
17.3597 16.220
17.3749 15.974
17.3901 15.524
17.4052 14.492
17.4204 13.342
17.4356 12.472
17.4508 12.141
17.4659 11.983
17.4811 11.799
17.4963 11.617
17.5115 11.529
17.5266 11.307
17.5418 11.127
17.5570 11.320
17.5722 11.642
17.5873 11.812
17.6025 11.721
17.6177 11.515
17.6329 11.367
17.6480 11.095
17.6632 10.774
17.6784 10.777
17.6936 10.942
17.7087 10.946
17.7239 10.971
17.7391 10.896
17.7543 10.802
17.7694 10.821
17.7846 10.793
17.7998 10.654
17.8150 10.473
17.8301 10.388
17.8453 10.440
17.8605 10.495
17.8757 10.610
17.8908 10.674
17.9060 10.600
17.9212 10.546
17.9364 10.511
17.9515 10.298
17.9667 10.438
17.9819 10.635
17.9971 10.330
18.0122 10.250
18.0274 10.348
18.0426 10.318
18.0578 10.227
18.0729 10.137
18.0881 10.037
18.1033 10.178
18.1185 10.169
18.1336 10.389
18.1488 10.276
18.1640 10.076
18.1792 9.936
18.1943 9.838
18.2095 9.716
18.2247 9.730
18.2399 9.799
18.2550 9.867
18.2702 9.819
18.2854 9.818
18.3006 9.824
18.3157 9.882
18.3309 9.882
18.3461 9.749
18.3613 9.804
18.3764 9.609
18.3916 9.501
18.4068 9.563
18.4220 9.874
18.4371 9.850
18.4523 9.817
18.4675 9.908
18.4827 9.810
18.4978 9.716
18.5130 9.733
18.5282 9.754
18.5434 9.741
18.5585 9.564
18.5737 9.851
18.5889 9.907
18.6041 9.477
18.6192 9.609
18.6344 9.647
18.6496 9.842
18.6648 10.065
18.6799 9.650
18.6951 9.511
18.7103 9.699
18.7255 9.633
18.7406 9.735
18.7558 9.845
18.7710 9.641
18.7862 9.748
18.8013 9.643
18.8165 9.579
18.8317 10.036
18.8469 9.792
18.8620 9.832
18.8772 10.031
18.8924 9.870
18.9076 9.634
18.9227 9.785
18.9379 10.054
18.9531 9.996
18.9683 9.925
18.9834 10.029
18.9986 10.154
19.0138 10.237
19.0290 10.464
19.0441 10.298
19.0593 10.352
19.0745 10.427
19.0897 10.258
19.1048 10.279
19.1200 10.499
19.1352 10.465
19.1504 10.297
19.1655 10.442
19.1807 10.499
19.1959 10.619
19.2111 10.545
19.2262 10.436
19.2414 10.564
19.2566 10.702
19.2718 10.956
19.2869 10.824
19.3021 10.873
19.3173 10.871
19.3325 10.748
19.3476 10.673
19.3628 10.939
19.3780 11.089
19.3932 11.154
19.4083 11.176
19.4235 11.156
19.4387 11.325
19.4539 11.339
19.4690 11.209
19.4842 11.244
19.4994 11.324
19.5146 11.296
19.5297 11.457
19.5449 11.784
19.5601 11.640
19.5753 11.514
19.5904 11.656
19.6056 11.656
19.6208 11.564
19.6360 11.685
19.6511 11.589
19.6663 11.513
19.6815 11.772
19.6967 11.716
19.7118 11.698
19.7270 11.714
19.7422 11.688
19.7574 11.610
19.7725 11.636
19.7877 11.821
19.8029 11.843
19.8180 11.738
19.8332 11.942
19.8484 12.228
19.8636 12.322
19.8787 12.334
19.8939 12.758
19.9091 13.013
19.9243 13.395
19.9394 13.918
19.9546 13.956
19.9698 14.218
19.9850 14.561
20.0001 14.405
20.0153 13.954
20.0305 13.829
20.0457 13.681
20.0608 13.572
20.0760 13.628
20.0912 13.717
20.1064 13.379
20.1215 13.292
20.1367 13.224
20.1519 12.923
20.1671 13.123
20.1822 13.189
20.1974 13.057
20.2126 13.016
20.2278 13.022
20.2429 12.537
20.2581 12.235
20.2733 12.131
20.2885 12.115
20.3036 11.975
20.3188 11.833
20.3340 11.830
20.3492 11.830
20.3643 11.639
20.3795 11.308
20.3947 11.174
20.4099 10.922
20.4250 10.897
20.4402 10.801
20.4554 10.696
20.4706 10.776
20.4857 10.842
20.5009 10.724
20.5161 10.624
20.5313 10.800
20.5464 10.743
20.5616 10.713
20.5768 10.800
20.5920 10.771
20.6071 10.656
20.6223 10.466
20.6375 10.723
20.6527 10.798
20.6678 10.716
20.6830 10.642
20.6982 10.589
20.7134 10.665
20.7285 10.785
20.7437 10.794
20.7589 10.373
20.7741 10.521
20.7892 10.633
20.8044 10.504
20.8196 10.407
20.8348 10.258
20.8499 10.138
20.8651 10.177
20.8803 10.334
20.8955 9.737
20.9106 10.161
20.9258 10.136
20.9410 10.309
20.9562 10.189
20.9713 10.099
20.9865 10.103
21.0017 10.135
21.0169 9.839
21.0320 10.080
21.0472 10.162
21.0624 10.153
21.0776 9.925
21.0927 9.803
21.1079 9.792
21.1231 9.685
21.1383 9.797
21.1534 9.380
21.1686 9.907
21.1838 9.587
21.1990 9.575
21.2141 9.710
21.2293 9.340
21.2445 9.561
21.2597 9.315
21.2748 9.792
21.2900 9.444
21.3052 9.520
21.3204 9.956
21.3355 9.386
21.3507 9.778
21.3659 9.633
21.3811 9.687
21.3962 9.483
21.4114 9.656
21.4266 9.891
21.4418 9.419
21.4569 9.211
21.4721 9.326
21.4873 9.445
21.5025 9.430
21.5176 9.411
21.5328 9.227
21.5480 9.220
21.5632 9.023
21.5783 8.888
21.5935 9.319
21.6087 9.397
21.6239 9.345
21.6390 9.097
21.6542 9.068
21.6694 9.005
21.6846 8.849
21.6997 9.331
21.7149 8.851
21.7301 9.050
21.7453 9.395
21.7604 9.130
21.7756 8.847
21.7908 8.907
21.8060 8.956
21.8211 8.844
21.8363 9.074
21.8515 9.233
21.8667 9.095
21.8818 8.948
21.8970 8.990
21.9122 9.000
21.9274 8.873
21.9425 8.903
21.9577 9.159
21.9729 9.039
21.9881 8.889
22.0032 9.014
22.0184 8.832
22.0336 8.878
22.0488 8.937
22.0639 8.779
22.0791 8.823
22.0943 8.788
22.1095 8.564
22.1246 8.660
22.1398 8.711
22.1550 8.640
22.1702 8.497
22.1853 8.658
22.2005 8.794
22.2157 8.776
22.2309 8.726
22.2460 8.676
22.2612 8.584
22.2764 8.551
22.2916 8.590
22.3067 8.567
22.3219 8.750
22.3371 8.601
22.3523 8.351
22.3674 8.411
22.3826 8.375
22.3978 8.526
22.4130 8.308
22.4281 8.354
22.4433 8.439
22.4585 8.526
22.4737 8.735
22.4888 8.734
22.5040 8.557
22.5192 8.455
22.5344 8.314
22.5495 8.325
22.5647 8.739
22.5799 8.532
22.5951 8.387
22.6102 8.146
22.6254 8.524
22.6406 8.511
22.6558 8.537
22.6709 8.205
22.6861 8.553
22.7013 8.649
22.7165 8.297
22.7316 6.434
