'Id: "" Comment: "" Operator: "Lab Manager" Anode: "Mo" Scantype: "Still (Eiger2R_500K (1D mode))" TimePerStep: "300" X: "11.8" Y: "9.4" Z: "11.284" 
7.2532 18.505
7.2684 18.486
7.2836 18.730
7.2987 18.934
7.3139 18.868
7.3291 19.010
7.3443 19.200
7.3594 19.202
7.3746 19.293
7.3898 19.071
7.4050 19.476
7.4201 19.365
7.4353 19.501
7.4505 19.400
7.4657 19.414
7.4808 19.824
7.4960 18.853
7.5112 19.060
7.5264 19.733
7.5415 19.647
7.5567 19.573
7.5719 19.650
7.5871 19.588
7.6022 19.569
7.6174 19.849
7.6326 19.569
7.6478 19.590
7.6629 20.057
7.6781 19.896
7.6933 19.773
7.7085 20.163
7.7236 20.406
7.7388 20.276
7.7540 20.339
7.7692 20.572
7.7843 20.563
7.7995 20.661
7.8147 20.563
7.8299 19.980
7.8450 20.025
7.8602 20.040
7.8754 20.082
7.8905 20.609
7.9057 20.586
7.9209 20.503
7.9361 20.675
7.9512 20.709
7.9664 20.614
7.9816 20.687
7.9968 20.922
8.0119 20.744
8.0271 20.890
8.0423 20.973
8.0575 21.275
8.0726 21.580
8.0878 21.156
8.1030 21.108
8.1182 21.109
8.1333 21.253
8.1485 21.126
8.1637 21.083
8.1789 21.071
8.1940 20.862
8.2092 21.107
8.2244 21.540
8.2396 21.702
8.2547 22.030
8.2699 21.630
8.2851 21.401
8.3003 21.597
8.3154 21.518
8.3306 21.542
8.3458 21.904
8.3610 21.611
8.3761 21.884
8.3913 22.078
8.4065 21.594
8.4217 21.735
8.4368 21.741
8.4520 21.936
8.4672 21.803
8.4824 22.196
8.4975 21.757
8.5127 21.897
8.5279 21.890
8.5431 21.729
8.5582 22.345
8.5734 22.098
8.5886 22.427
8.6038 21.897
8.6189 22.153
8.6341 21.807
8.6493 21.731
8.6645 22.022
8.6796 22.075
8.6948 22.162
8.7100 21.682
8.7252 22.024
8.7403 22.020
8.7555 21.973
8.7707 22.489
8.7859 22.679
8.8010 22.546
8.8162 22.341
8.8314 22.227
8.8466 22.300
8.8617 22.199
8.8769 21.920
8.8921 22.360
8.9073 22.383
8.9224 22.254
8.9376 22.609
8.9528 22.906
8.9680 22.411
8.9831 22.421
8.9983 22.407
9.0135 22.408
9.0287 22.554
9.0438 22.743
9.0590 22.639
9.0742 22.334
9.0894 22.492
9.1045 22.704
9.1197 22.734
9.1349 22.718
9.1501 22.649
9.1652 22.542
9.1804 22.609
9.1956 22.590
9.2108 22.681
9.2259 22.496
9.2411 22.486
9.2563 22.616
9.2715 22.695
9.2866 22.881
9.3018 22.537
9.3170 22.614
9.3322 22.743
9.3473 22.878
9.3625 22.754
9.3777 22.642
9.3929 22.773
9.4080 22.630
9.4232 22.587
9.4384 23.087
9.4536 22.883
9.4687 22.558
9.4839 22.627
9.4991 22.709
9.5143 22.988
9.5294 23.180
9.5446 23.297
9.5598 23.116
9.5750 22.767
9.5901 22.648
9.6053 22.884
9.6205 23.007
9.6357 23.288
9.6508 23.697
9.6660 23.509
9.6812 23.583
9.6964 23.765
9.7115 23.549
9.7267 23.677
9.7419 23.795
9.7571 23.653
9.7722 23.627
9.7874 23.512
9.8026 23.115
9.8178 23.244
9.8329 23.319
9.8481 23.112
9.8633 23.139
9.8785 22.884
9.8936 22.809
9.9088 23.287
9.9240 23.275
9.9392 23.006
9.9543 23.070
9.9695 23.397
9.9847 23.350
9.9999 23.204
10.0150 23.114
10.0302 22.970
10.0454 23.170
10.0606 23.256
10.0757 23.013
10.0909 23.125
10.1061 23.170
10.1213 23.280
10.1364 23.410
10.1516 23.096
10.1668 22.850
10.1820 23.100
10.1971 23.080
10.2123 22.801
10.2275 22.771
10.2427 22.743
10.2578 22.897
10.2730 23.203
10.2882 22.673
10.3034 22.532
10.3185 22.625
10.3337 22.576
10.3489 22.429
10.3641 22.407
10.3792 22.529
10.3944 22.623
10.4096 22.277
10.4248 22.434
10.4399 22.691
10.4551 22.689
10.4703 22.436
10.4855 22.525
10.5006 22.487
10.5158 22.609
10.5310 22.922
10.5462 22.489
10.5613 22.404
10.5765 22.303
10.5917 22.622
10.6069 22.636
10.6220 22.346
10.6372 22.091
10.6524 22.281
10.6676 22.424
10.6827 22.301
10.6979 22.464
10.7131 22.040
10.7283 22.455
10.7434 22.339
10.7586 22.476
10.7738 22.276
10.7890 21.996
10.8041 22.301
10.8193 22.224
10.8345 22.004
10.8497 22.265
10.8648 22.160
10.8800 22.271
10.8952 22.191
10.9104 21.944
10.9255 21.780
10.9407 21.723
10.9559 21.768
10.9711 21.591
10.9862 21.940
11.0014 22.028
11.0166 22.262
11.0318 22.157
11.0469 21.716
11.0621 21.714
11.0773 21.981
11.0925 21.720
11.1076 21.555
11.1228 21.877
11.1380 22.240
11.1532 21.787
11.1683 22.289
11.1835 21.709
11.1987 21.598
11.2139 21.559
11.2290 21.744
11.2442 21.926
11.2594 21.471
11.2746 21.818
11.2897 21.809
11.3049 21.781
11.3201 21.273
11.3353 21.347
11.3504 21.505
11.3656 21.286
11.3808 21.294
11.3960 21.435
11.4111 21.290
11.4263 20.996
11.4415 20.816
11.4567 21.460
11.4718 20.924
11.4870 20.983
11.5022 21.387
11.5174 21.224
11.5325 20.770
11.5477 21.144
11.5629 20.813
11.5781 20.960
11.5932 20.701
11.6084 20.674
11.6236 20.541
11.6388 20.416
11.6539 20.685
11.6691 20.470
11.6843 20.510
11.6995 20.577
11.7146 20.266
11.7298 20.315
11.7450 20.278
11.7602 20.101
11.7753 19.904
11.7905 19.846
11.8057 19.990
11.8209 19.898
11.8360 20.064
11.8512 20.205
11.8664 19.790
11.8816 19.673
11.8967 19.721
11.9119 19.725
11.9271 19.520
11.9423 19.754
11.9574 19.481
11.9726 19.420
11.9878 19.235
12.0030 19.340
12.0181 19.303
12.0333 18.948
12.0485 18.879
12.0637 18.819
12.0788 18.441
12.0940 18.511
12.1092 18.523
12.1244 18.470
12.1395 18.573
12.1547 18.386
12.1699 18.293
12.1851 18.286
12.2002 18.352
12.2154 17.881
12.2306 17.924
12.2458 18.562
12.2609 18.408
12.2761 17.980
12.2913 17.768
12.3065 17.784
12.3216 17.444
12.3368 17.287
12.3520 17.592
12.3672 17.629
12.3823 17.319
12.3975 17.066
12.4127 17.265
12.4279 17.043
12.4430 16.942
12.4582 17.042
12.4734 16.812
12.4886 16.766
12.5037 16.496
12.5189 16.490
12.5341 16.419
12.5493 16.617
12.5644 16.427
12.5796 15.958
12.5948 16.231
12.6100 16.091
12.6251 15.942
12.6403 15.779
12.6555 15.647
12.6707 15.800
12.6858 15.789
12.7010 15.654
12.7162 15.614
12.7314 15.384
12.7465 15.503
12.7617 15.695
12.7769 15.352
12.7921 15.088
12.8072 15.182
12.8224 15.041
12.8376 15.011
12.8528 15.091
12.8679 15.076
12.8831 14.845
12.8983 14.669
12.9135 14.592
12.9286 14.592
12.9438 14.553
12.9590 14.495
12.9742 14.612
12.9893 14.263
13.0045 14.225
13.0197 14.186
13.0349 13.799
13.0500 13.840
13.0652 13.985
13.0804 13.954
13.0956 13.764
13.1107 13.616
13.1259 13.686
13.1411 13.827
13.1563 13.690
13.1714 13.584
13.1866 13.601
13.2018 13.457
13.2170 13.379
13.2321 13.470
13.2473 13.462
13.2625 13.262
13.2777 13.146
13.2928 13.048
13.3080 13.090
13.3232 13.220
13.3384 13.128
13.3535 13.042
13.3687 12.929
13.3839 12.897
13.3991 12.803
13.4142 12.859
13.4294 13.009
13.4446 12.792
13.4598 13.039
13.4749 12.981
13.4901 12.659
13.5053 12.565
13.5205 12.633
13.5356 12.777
13.5508 12.579
13.5660 12.413
13.5812 12.279
13.5963 12.381
13.6115 12.366
13.6267 12.232
13.6419 12.101
13.6570 12.183
13.6722 12.102
13.6874 12.124
13.7026 12.098
13.7177 12.089
13.7329 12.072
13.7481 11.901
13.7633 11.961
13.7784 12.014
13.7936 12.239
13.8088 12.286
13.8239 12.138
13.8391 12.493
13.8543 12.636
13.8695 12.193
13.8846 12.443
13.8998 12.272
13.9150 11.942
13.9302 11.902
13.9453 11.493
13.9605 11.562
13.9757 11.823
13.9909 11.709
14.0060 11.697
14.0212 11.672
14.0364 11.580
14.0516 11.584
14.0667 11.481
14.0819 11.638
14.0971 11.784
14.1123 11.754
14.1274 11.607
14.1426 11.641
14.1578 11.748
14.1730 11.590
14.1881 11.415
14.2033 11.865
14.2185 11.848
14.2337 11.887
14.2488 11.696
14.2640 11.922
14.2792 11.983
14.2944 12.079
14.3095 11.978
14.3247 12.123
14.3399 12.295
14.3551 12.346
14.3702 12.688
14.3854 12.765
14.4006 12.960
14.4158 13.141
14.4309 13.051
14.4461 12.306
14.4613 12.422
14.4765 12.285
14.4916 12.284
14.5068 11.962
14.5220 11.488
14.5372 11.712
14.5523 11.351
14.5675 11.054
14.5827 11.141
14.5979 11.139
14.6130 10.845
14.6282 10.860
14.6434 10.943
14.6586 10.839
14.6737 10.443
14.6889 10.791
14.7041 10.601
14.7193 10.804
14.7344 10.688
14.7496 10.695
14.7648 10.828
14.7800 10.757
14.7951 10.335
14.8103 10.550
14.8255 10.775
14.8407 10.367
14.8558 10.480
14.8710 10.460
14.8862 10.388
14.9014 10.488
14.9165 10.828
14.9317 10.701
14.9469 10.365
14.9621 10.716
14.9772 10.544
14.9924 10.106
15.0076 10.273
15.0228 10.722
15.0379 10.400
15.0531 10.157
15.0683 10.404
15.0835 10.106
15.0986 10.632
15.1138 10.311
15.1290 10.136
15.1442 10.195
15.1593 10.216
15.1745 10.038
15.1897 9.987
15.2049 10.457
15.2200 9.982
15.2352 9.948
15.2504 10.145
15.2656 9.976
15.2807 9.984
15.2959 9.992
15.3111 9.886
15.3263 10.017
15.3414 10.167
15.3566 10.139
15.3718 10.167
15.3870 10.022
15.4021 9.956
15.4173 10.275
15.4325 10.576
15.4477 9.912
15.4628 10.234
15.4780 10.291
15.4932 9.921
15.5084 9.988
15.5235 10.194
15.5387 10.106
15.5539 9.802
15.5691 10.069
15.5842 10.043
15.5994 9.770
15.6146 9.913
15.6298 9.626
15.6449 9.565
15.6601 9.839
15.6753 9.768
15.6905 9.445
15.7056 9.571
15.7208 9.856
15.7360 9.743
15.7512 9.415
15.7663 9.744
15.7815 9.704
15.7967 9.980
15.8119 9.854
15.8270 9.658
15.8422 9.689
15.8574 9.710
15.8726 9.468
15.8877 9.301
15.9029 9.218
15.9181 9.652
15.9333 9.494
15.9484 9.434
15.9636 9.424
15.9788 9.572
15.9940 9.760
16.0091 9.355
16.0243 9.602
16.0395 9.616
16.0547 9.461
16.0698 9.603
16.0850 9.585
16.1002 9.496
16.1154 9.798
16.1305 9.723
16.1457 9.438
16.1609 9.546
16.1761 9.410
16.1912 9.602
16.2064 9.731
16.2216 9.692
16.2368 9.732
16.2519 9.709
16.2671 9.769
16.2823 9.713
16.2975 9.771
16.3126 9.765
16.3278 9.762
16.3430 9.826
16.3582 9.941
16.3733 10.037
16.3885 10.067
16.4037 10.177
16.4189 9.848
16.4340 9.637
16.4492 9.820
16.4644 9.604
16.4796 9.575
16.4947 9.603
16.5099 9.662
16.5251 9.678
16.5403 9.461
16.5554 9.485
16.5706 9.620
16.5858 9.613
16.6010 9.612
16.6161 9.605
16.6313 9.594
16.6465 9.460
16.6617 9.580
16.6768 9.758
16.6920 9.844
16.7072 9.870
16.7224 9.897
16.7375 9.824
16.7527 10.024
16.7679 9.895
16.7831 9.772
16.7982 9.847
16.8134 9.886
16.8286 9.660
16.8438 9.748
16.8589 9.962
16.8741 9.816
16.8893 9.739
16.9045 9.740
16.9196 9.612
16.9348 9.651
16.9500 9.752
16.9652 9.768
16.9803 9.686
16.9955 9.724
17.0107 9.912
17.0259 9.965
17.0410 9.822
17.0562 9.897
17.0714 9.886
17.0866 10.138
17.1017 10.654
17.1169 10.800
17.1321 11.001
17.1473 11.084
17.1624 11.633
17.1776 12.141
17.1928 12.771
17.2080 13.746
17.2231 14.834
17.2383 16.079
17.2535 17.357
17.2687 18.554
17.2838 18.885
17.2990 18.042
17.3142 16.933
17.3294 16.298
17.3445 16.057
17.3597 16.279
17.3749 16.117
17.3901 15.296
17.4052 14.343
17.4204 13.380
17.4356 12.724
17.4508 12.290
17.4659 12.070
17.4811 11.732
17.4963 11.191
17.5115 11.147
17.5266 11.233
17.5418 11.109
17.5570 11.056
17.5722 11.053
17.5873 10.974
17.6025 10.985
17.6177 11.208
17.6329 11.193
17.6480 11.023
17.6632 11.179
17.6784 11.384
17.6936 11.380
17.7087 11.214
17.7239 11.132
17.7391 11.277
17.7543 11.096
17.7694 10.866
17.7846 10.820
17.7998 10.952
17.8150 10.833
17.8301 10.527
17.8453 10.445
17.8605 10.401
17.8757 10.399
17.8908 10.399
17.9060 10.544
17.9212 10.354
17.9364 10.048
17.9515 10.032
17.9667 10.076
17.9819 10.107
17.9971 10.329
18.0122 10.334
18.0274 10.209
18.0426 10.391
18.0578 10.287
18.0729 10.098
18.0881 10.161
18.1033 9.801
18.1185 9.810
18.1336 10.060
18.1488 10.058
18.1640 9.858
18.1792 9.860
18.1943 9.773
18.2095 9.851
18.2247 9.987
18.2399 9.929
18.2550 9.991
18.2702 9.965
18.2854 9.901
18.3006 9.785
18.3157 9.855
18.3309 9.758
18.3461 9.902
18.3613 9.931
18.3764 9.819
18.3916 9.974
18.4068 9.926
18.4220 9.978
18.4371 9.861
18.4523 9.669
18.4675 9.853
18.4827 9.984
18.4978 9.767
18.5130 9.702
18.5282 9.789
18.5434 9.653
18.5585 9.778
18.5737 9.921
18.5889 9.913
18.6041 9.734
18.6192 9.766
18.6344 9.741
18.6496 9.835
18.6648 9.832
18.6799 9.739
18.6951 9.901
18.7103 9.722
18.7255 9.476
18.7406 9.768
18.7558 9.836
18.7710 9.836
18.7862 9.782
18.8013 9.624
18.8165 9.685
18.8317 10.001
18.8469 9.978
18.8620 9.955
18.8772 10.083
18.8924 10.034
18.9076 10.018
18.9227 9.900
18.9379 10.053
18.9531 9.902
18.9683 9.760
18.9834 10.135
18.9986 10.250
19.0138 10.137
19.0290 10.085
19.0441 10.158
19.0593 10.225
19.0745 10.185
19.0897 10.109
19.1048 10.189
19.1200 10.332
19.1352 10.338
19.1504 10.476
19.1655 10.484
19.1807 10.456
19.1959 10.527
19.2111 10.627
19.2262 10.770
19.2414 10.813
19.2566 10.785
19.2718 10.816
19.2869 10.857
19.3021 11.053
19.3173 11.119
19.3325 11.069
19.3476 11.200
19.3628 11.181
19.3780 11.257
19.3932 11.462
19.4083 11.342
19.4235 11.427
19.4387 11.463
19.4539 11.363
19.4690 11.570
19.4842 11.641
19.4994 11.525
19.5146 11.863
19.5297 11.848
19.5449 11.712
19.5601 11.883
19.5753 11.606
19.5904 11.865
19.6056 12.125
19.6208 11.948
19.6360 11.858
19.6511 11.852
19.6663 11.858
19.6815 11.810
19.6967 11.901
19.7118 12.007
19.7270 11.884
19.7422 11.932
19.7574 12.106
19.7725 12.113
19.7877 11.903
19.8029 11.920
19.8180 12.222
19.8332 12.380
19.8484 12.307
19.8636 12.595
19.8787 12.994
19.8939 13.104
19.9091 13.369
19.9243 13.649
19.9394 13.914
19.9546 14.096
19.9698 14.468
19.9850 14.771
20.0001 14.627
20.0153 14.379
20.0305 14.279
20.0457 14.044
20.0608 14.086
20.0760 13.959
20.0912 13.765
20.1064 13.888
20.1215 13.637
20.1367 13.291
20.1519 13.415
20.1671 13.230
20.1822 13.069
20.1974 12.741
20.2126 12.884
20.2278 12.922
20.2429 12.519
20.2581 12.329
20.2733 12.162
20.2885 12.032
20.3036 12.203
20.3188 12.103
20.3340 12.199
20.3492 11.931
20.3643 11.972
20.3795 12.113
20.3947 11.850
20.4099 11.953
20.4250 11.964
20.4402 11.913
20.4554 11.768
20.4706 11.474
20.4857 11.621
20.5009 11.698
20.5161 11.628
20.5313 11.641
20.5464 11.529
20.5616 11.273
20.5768 11.044
20.5920 11.515
20.6071 11.267
20.6223 11.155
20.6375 10.828
20.6527 10.847
20.6678 10.939
20.6830 10.675
20.6982 10.781
20.7134 11.029
20.7285 10.929
20.7437 10.700
20.7589 10.721
20.7741 10.457
20.7892 10.782
20.8044 10.533
20.8196 10.410
20.8348 10.710
20.8499 10.322
20.8651 10.449
20.8803 10.317
20.8955 10.211
20.9106 10.118
20.9258 10.236
20.9410 9.818
20.9562 10.138
20.9713 10.023
20.9865 9.999
21.0017 10.237
21.0169 10.142
21.0320 10.034
21.0472 9.960
21.0624 10.101
21.0776 10.148
21.0927 10.006
21.1079 9.984
21.1231 10.148
21.1383 9.873
21.1534 9.717
21.1686 9.887
21.1838 9.575
21.1990 9.553
21.2141 9.912
21.2293 9.756
21.2445 9.604
21.2597 9.866
21.2748 9.832
21.2900 9.817
21.3052 9.616
21.3204 9.609
21.3355 9.416
21.3507 9.595
21.3659 9.510
21.3811 9.494
21.3962 9.816
21.4114 9.484
21.4266 9.724
21.4418 9.760
21.4569 9.286
21.4721 9.261
21.4873 9.292
21.5025 9.344
21.5176 9.445
21.5328 9.413
21.5480 9.296
21.5632 9.094
21.5783 9.109
21.5935 9.166
21.6087 9.270
21.6239 9.416
21.6390 9.303
21.6542 9.114
21.6694 9.124
21.6846 9.150
21.6997 9.379
21.7149 9.362
21.7301 8.999
21.7453 9.210
21.7604 9.348
21.7756 9.226
21.7908 9.114
21.8060 8.980
21.8211 9.116
21.8363 9.072
21.8515 9.215
21.8667 9.125
21.8818 8.945
21.8970 8.932
21.9122 9.113
21.9274 9.139
21.9425 8.990
21.9577 9.006
21.9729 8.986
21.9881 8.887
22.0032 8.800
22.0184 8.522
22.0336 8.730
22.0488 8.873
22.0639 8.867
22.0791 8.917
22.0943 8.677
22.1095 8.534
22.1246 8.719
22.1398 8.650
22.1550 8.552
22.1702 8.566
22.1853 8.695
22.2005 8.903
22.2157 8.629
22.2309 8.621
22.2460 8.713
22.2612 8.505
22.2764 8.648
22.2916 8.459
22.3067 8.485
22.3219 8.633
22.3371 8.663
22.3523 8.329
22.3674 8.383
22.3826 8.585
22.3978 8.498
22.4130 8.534
22.4281 8.363
22.4433 8.337
22.4585 8.483
22.4737 8.788
22.4888 8.627
22.5040 8.795
22.5192 8.221
22.5344 8.311
22.5495 8.396
22.5647 8.405
22.5799 8.547
22.5951 8.597
22.6102 8.356
22.6254 8.306
22.6406 8.156
22.6558 7.998
22.6709 8.567
22.6861 8.155
22.7013 8.163
22.7165 7.982
22.7316 6.438
