'Id: "" Comment: "" Operator: "Lab Manager" Anode: "Mo" Scantype: "Still (Eiger2R_500K (1D mode))" TimePerStep: "300" X: "11.8" Y: "9.4" Z: "11.284" 
7.2532 18.797
7.2684 19.152
7.2836 19.024
7.2987 19.050
7.3139 19.324
7.3291 19.376
7.3443 18.897
7.3594 19.099
7.3746 19.549
7.3898 19.025
7.4050 19.399
7.4201 19.645
7.4353 19.398
7.4505 19.060
7.4657 19.081
7.4808 19.555
7.4960 19.625
7.5112 19.708
7.5264 19.765
7.5415 19.678
7.5567 19.612
7.5719 19.539
7.5871 19.824
7.6022 20.185
7.6174 20.289
7.6326 20.251
7.6478 20.604
7.6629 20.402
7.6781 20.492
7.6933 20.427
7.7085 20.404
7.7236 20.719
7.7388 20.446
7.7540 19.972
7.7692 20.592
7.7843 20.660
7.7995 20.491
7.8147 20.450
7.8299 20.488
7.8450 20.561
7.8602 20.690
7.8754 21.105
7.8905 20.894
7.9057 20.806
7.9209 20.823
7.9361 21.138
7.9512 21.200
7.9664 20.908
7.9816 21.311
7.9968 21.361
8.0119 21.184
8.0271 21.205
8.0423 21.403
8.0575 21.259
8.0726 20.988
8.0878 21.363
8.1030 21.323
8.1182 21.272
8.1333 20.826
8.1485 21.435
8.1637 21.544
8.1789 21.493
8.1940 21.498
8.2092 21.605
8.2244 21.604
8.2396 21.623
8.2547 21.416
8.2699 21.561
8.2851 21.719
8.3003 21.472
8.3154 21.565
8.3306 21.931
8.3458 21.955
8.3610 21.772
8.3761 21.419
8.3913 21.508
8.4065 21.835
8.4217 21.903
8.4368 22.020
8.4520 22.081
8.4672 22.191
8.4824 22.087
8.4975 22.170
8.5127 22.034
8.5279 21.985
8.5431 22.198
8.5582 21.889
8.5734 22.029
8.5886 22.001
8.6038 22.291
8.6189 22.476
8.6341 22.529
8.6493 22.647
8.6645 22.211
8.6796 22.767
8.6948 22.574
8.7100 22.953
8.7252 22.918
8.7403 23.253
8.7555 22.800
8.7707 22.785
8.7859 22.608
8.8010 22.725
8.8162 22.792
8.8314 22.536
8.8466 22.594
8.8617 22.728
8.8769 22.540
8.8921 22.318
8.9073 22.423
8.9224 22.624
8.9376 22.318
8.9528 22.491
8.9680 22.614
8.9831 22.914
8.9983 22.803
9.0135 22.797
9.0287 22.873
9.0438 22.942
9.0590 22.795
9.0742 23.165
9.0894 23.044
9.1045 22.782
9.1197 23.039
9.1349 22.913
9.1501 23.126
9.1652 22.919
9.1804 22.903
9.1956 23.067
9.2108 22.973
9.2259 22.921
9.2411 22.994
9.2563 23.142
9.2715 23.294
9.2866 22.998
9.3018 22.816
9.3170 23.051
9.3322 22.859
9.3473 22.857
9.3625 22.909
9.3777 23.579
9.3929 23.389
9.4080 23.096
9.4232 23.307
9.4384 23.575
9.4536 23.409
9.4687 23.448
9.4839 23.272
9.4991 23.433
9.5143 23.256
9.5294 23.201
9.5446 23.371
9.5598 23.618
9.5750 23.507
9.5901 22.940
9.6053 23.131
9.6205 23.347
9.6357 23.251
9.6508 23.383
9.6660 23.735
9.6812 23.642
9.6964 23.737
9.7115 24.268
9.7267 24.322
9.7419 24.311
9.7571 24.066
9.7722 23.865
9.7874 23.832
9.8026 23.777
9.8178 23.541
9.8329 23.519
9.8481 23.571
9.8633 23.633
9.8785 23.819
9.8936 23.339
9.9088 23.204
9.9240 23.620
9.9392 23.523
9.9543 23.349
9.9695 23.287
9.9847 23.223
9.9999 23.214
10.0150 23.198
10.0302 23.143
10.0454 23.108
10.0606 22.925
10.0757 23.038
10.0909 23.170
10.1061 23.084
10.1213 23.151
10.1364 23.242
10.1516 23.266
10.1668 23.434
10.1820 23.386
10.1971 23.135
10.2123 23.235
10.2275 23.374
10.2427 23.397
10.2578 23.835
10.2730 23.876
10.2882 23.476
10.3034 23.490
10.3185 23.080
10.3337 22.925
10.3489 22.782
10.3641 22.683
10.3792 23.072
10.3944 22.863
10.4096 22.606
10.4248 22.629
10.4399 22.703
10.4551 22.755
10.4703 22.895
10.4855 22.733
10.5006 22.422
10.5158 22.853
10.5310 22.663
10.5462 22.466
10.5613 22.544
10.5765 22.822
10.5917 22.775
10.6069 22.338
10.6220 22.593
10.6372 22.618
10.6524 22.480
10.6676 22.935
10.6827 23.003
10.6979 22.799
10.7131 22.551
10.7283 22.140
10.7434 22.399
10.7586 22.503
10.7738 22.711
10.7890 22.320
10.8041 22.455
10.8193 22.639
10.8345 22.302
10.8497 22.270
10.8648 22.373
10.8800 22.492
10.8952 22.431
10.9104 22.473
10.9255 22.506
10.9407 22.157
10.9559 22.237
10.9711 22.258
10.9862 22.212
11.0014 22.172
11.0166 22.125
11.0318 22.297
11.0469 22.232
11.0621 21.970
11.0773 22.100
11.0925 22.362
11.1076 22.174
11.1228 21.668
11.1380 21.188
11.1532 21.706
11.1683 21.949
11.1835 22.066
11.1987 22.019
11.2139 21.931
11.2290 21.644
11.2442 21.568
11.2594 21.779
11.2746 21.423
11.2897 21.814
11.3049 21.721
11.3201 21.526
11.3353 21.596
11.3504 21.665
11.3656 21.408
11.3808 21.368
11.3960 21.362
11.4111 21.269
11.4263 21.413
11.4415 21.615
11.4567 21.820
11.4718 21.249
11.4870 21.126
11.5022 21.301
11.5174 20.930
11.5325 20.498
11.5477 20.799
11.5629 21.134
11.5781 20.860
11.5932 20.946
11.6084 20.777
11.6236 20.546
11.6388 20.518
11.6539 20.926
11.6691 21.077
11.6843 20.588
11.6995 20.327
11.7146 20.584
11.7298 20.344
11.7450 20.536
11.7602 20.414
11.7753 19.951
11.7905 19.904
11.8057 20.186
11.8209 20.139
11.8360 20.060
11.8512 19.854
11.8664 19.760
11.8816 19.655
11.8967 19.693
11.9119 19.828
11.9271 19.871
11.9423 19.341
11.9574 19.236
11.9726 19.277
11.9878 19.377
12.0030 19.467
12.0181 19.625
12.0333 19.268
12.0485 19.260
12.0637 18.954
12.0788 19.017
12.0940 18.864
12.1092 18.643
12.1244 18.553
12.1395 18.526
12.1547 18.512
12.1699 18.558
12.1851 18.665
12.2002 18.252
12.2154 18.302
12.2306 18.052
12.2458 18.002
12.2609 18.318
12.2761 18.188
12.2913 18.043
12.3065 17.795
12.3216 17.941
12.3368 17.802
12.3520 17.505
12.3672 17.419
12.3823 17.331
12.3975 17.306
12.4127 17.585
12.4279 17.329
12.4430 16.866
12.4582 17.055
12.4734 17.102
12.4886 17.023
12.5037 17.171
12.5189 16.877
12.5341 16.564
12.5493 16.735
12.5644 16.670
12.5796 16.541
12.5948 16.465
12.6100 16.119
12.6251 15.823
12.6403 15.674
12.6555 15.799
12.6707 15.851
12.6858 15.685
12.7010 15.770
12.7162 15.727
12.7314 15.828
12.7465 15.635
12.7617 15.570
12.7769 15.478
12.7921 15.404
12.8072 15.370
12.8224 15.355
12.8376 15.129
12.8528 14.939
12.8679 15.209
12.8831 15.094
12.8983 14.999
12.9135 14.707
12.9286 14.537
12.9438 14.785
12.9590 14.796
12.9742 14.882
12.9893 14.681
13.0045 14.364
13.0197 14.280
13.0349 14.100
13.0500 14.208
13.0652 14.325
13.0804 14.169
13.0956 13.945
13.1107 13.819
13.1259 13.678
13.1411 13.597
13.1563 13.716
13.1714 13.862
13.1866 13.814
13.2018 13.446
13.2170 13.323
13.2321 13.357
13.2473 13.455
13.2625 13.541
13.2777 13.512
13.2928 13.258
13.3080 12.984
13.3232 13.009
13.3384 13.155
13.3535 13.376
13.3687 13.205
13.3839 13.022
13.3991 13.135
13.4142 13.057
13.4294 12.763
13.4446 12.983
13.4598 13.001
13.4749 12.859
13.4901 12.873
13.5053 12.951
13.5205 12.530
13.5356 12.457
13.5508 12.399
13.5660 12.267
13.5812 12.371
13.5963 12.402
13.6115 12.412
13.6267 12.419
13.6419 12.268
13.6570 12.086
13.6722 12.141
13.6874 11.982
13.7026 12.194
13.7177 12.281
13.7329 12.237
13.7481 12.228
13.7633 12.285
13.7784 12.309
13.7936 12.336
13.8088 12.340
13.8239 12.303
13.8391 12.337
13.8543 12.528
13.8695 12.351
13.8846 12.208
13.8998 12.040
13.9150 12.114
13.9302 12.190
13.9453 11.856
13.9605 11.720
13.9757 11.614
13.9909 11.921
14.0060 11.866
14.0212 11.886
14.0364 11.833
14.0516 11.815
14.0667 11.840
14.0819 11.612
14.0971 11.393
14.1123 11.540
14.1274 11.700
14.1426 11.524
14.1578 11.652
14.1730 11.516
14.1881 11.658
14.2033 11.945
14.2185 11.766
14.2337 11.787
14.2488 11.921
14.2640 11.579
14.2792 11.774
14.2944 11.731
14.3095 11.960
14.3247 12.281
14.3399 12.201
14.3551 12.278
14.3702 12.498
14.3854 12.698
14.4006 12.486
14.4158 12.381
14.4309 12.326
14.4461 12.185
14.4613 12.035
14.4765 12.131
14.4916 11.852
14.5068 11.729
14.5220 11.535
14.5372 11.386
14.5523 11.212
14.5675 11.310
14.5827 11.216
14.5979 11.137
14.6130 11.056
14.6282 10.955
14.6434 11.227
14.6586 11.152
14.6737 10.979
14.6889 10.892
14.7041 10.558
14.7193 10.949
14.7344 10.968
14.7496 10.768
14.7648 10.823
14.7800 10.730
14.7951 10.738
14.8103 10.631
14.8255 11.028
14.8407 10.624
14.8558 10.649
14.8710 10.577
14.8862 10.590
14.9014 10.915
14.9165 11.120
14.9317 11.029
14.9469 10.378
14.9621 10.535
14.9772 10.260
14.9924 10.514
15.0076 10.628
15.0228 10.830
15.0379 10.792
15.0531 10.411
15.0683 10.439
15.0835 10.334
15.0986 10.327
15.1138 10.595
15.1290 10.704
15.1442 10.729
15.1593 10.694
15.1745 10.254
15.1897 10.401
15.2049 10.190
15.2200 10.455
15.2352 10.146
15.2504 10.354
15.2656 10.185
15.2807 10.535
15.2959 10.249
15.3111 10.585
15.3263 10.291
15.3414 10.351
15.3566 10.460
15.3718 10.740
15.3870 10.351
15.4021 10.542
15.4173 10.393
15.4325 10.686
15.4477 10.251
15.4628 10.524
15.4780 10.549
15.4932 10.396
15.5084 10.502
15.5235 10.184
15.5387 10.214
15.5539 10.417
15.5691 10.114
15.5842 9.999
15.5994 10.156
15.6146 10.162
15.6298 10.421
15.6449 10.040
15.6601 9.818
15.6753 10.045
15.6905 10.472
15.7056 10.203
15.7208 9.864
15.7360 10.005
15.7512 9.994
15.7663 9.904
15.7815 9.950
15.7967 9.671
15.8119 9.814
15.8270 9.764
15.8422 9.927
15.8574 9.724
15.8726 9.904
15.8877 10.012
15.9029 9.945
15.9181 9.674
15.9333 9.954
15.9484 9.866
15.9636 9.996
15.9788 9.857
15.9940 9.836
16.0091 9.864
16.0243 9.916
16.0395 10.162
16.0547 10.033
16.0698 9.651
16.0850 9.655
16.1002 9.700
16.1154 9.823
16.1305 9.740
16.1457 9.546
16.1609 9.893
16.1761 9.599
16.1912 9.959
16.2064 9.879
16.2216 9.939
16.2368 9.919
16.2519 9.743
16.2671 9.826
16.2823 10.061
16.2975 10.099
16.3126 10.245
16.3278 10.194
16.3430 9.967
16.3582 10.113
16.3733 10.246
16.3885 9.956
16.4037 9.933
16.4189 10.107
16.4340 9.957
16.4492 10.069
16.4644 10.020
16.4796 9.912
16.4947 9.861
16.5099 9.848
16.5251 10.084
16.5403 9.968
16.5554 9.820
16.5706 9.579
16.5858 9.645
16.6010 9.876
16.6161 9.826
16.6313 9.786
16.6465 10.092
16.6617 9.944
16.6768 9.910
16.6920 9.840
16.7072 9.990
16.7224 10.027
16.7375 9.953
16.7527 10.130
16.7679 10.011
16.7831 10.033
16.7982 9.914
16.8134 9.917
16.8286 9.972
16.8438 9.855
16.8589 9.926
16.8741 9.986
16.8893 9.899
16.9045 9.755
16.9196 9.878
16.9348 9.722
16.9500 9.802
16.9652 10.034
16.9803 10.113
16.9955 10.185
17.0107 10.235
17.0259 10.129
17.0410 10.220
17.0562 10.348
17.0714 10.335
17.0866 10.304
17.1017 10.572
17.1169 10.951
17.1321 10.997
17.1473 11.326
17.1624 11.768
17.1776 12.204
17.1928 13.055
17.2080 13.980
17.2231 15.024
17.2383 16.395
17.2535 17.856
17.2687 18.826
17.2838 18.799
17.2990 17.985
17.3142 16.982
17.3294 16.386
17.3445 16.124
17.3597 16.086
17.3749 15.986
17.3901 15.349
17.4052 14.269
17.4204 13.157
17.4356 12.439
17.4508 12.061
17.4659 11.825
17.4811 11.627
17.4963 11.443
17.5115 11.240
17.5266 11.061
17.5418 11.039
17.5570 11.088
17.5722 11.115
17.5873 11.141
17.6025 11.135
17.6177 11.100
17.6329 10.955
17.6480 10.596
17.6632 10.461
17.6784 10.492
17.6936 10.460
17.7087 10.415
17.7239 10.174
17.7391 10.089
17.7543 10.140
17.7694 10.239
17.7846 10.190
17.7998 10.138
17.8150 10.132
17.8301 10.133
17.8453 10.148
17.8605 10.129
17.8757 10.141
17.8908 10.097
17.9060 10.140
17.9212 10.214
17.9364 10.102
17.9515 9.860
17.9667 10.022
17.9819 10.174
17.9971 10.276
18.0122 10.170
18.0274 10.014
18.0426 10.086
18.0578 10.215
18.0729 10.291
18.0881 10.153
18.1033 10.123
18.1185 10.226
18.1336 10.360
18.1488 10.291
18.1640 9.982
18.1792 9.901
18.1943 9.987
18.2095 9.909
18.2247 9.907
18.2399 9.901
18.2550 9.850
18.2702 10.085
18.2854 10.155
18.3006 9.859
18.3157 9.994
18.3309 9.936
18.3461 9.968
18.3613 9.863
18.3764 9.801
18.3916 9.899
18.4068 10.112
18.4220 9.966
18.4371 9.931
18.4523 10.107
18.4675 10.051
18.4827 9.920
18.4978 9.756
18.5130 9.900
18.5282 9.871
18.5434 9.985
18.5585 9.724
18.5737 9.558
18.5889 9.787
18.6041 9.908
18.6192 9.652
18.6344 9.566
18.6496 9.736
18.6648 9.825
18.6799 9.803
18.6951 9.765
18.7103 9.791
18.7255 9.850
18.7406 9.716
18.7558 9.542
18.7710 9.662
18.7862 9.823
18.8013 9.815
18.8165 9.775
18.8317 10.006
18.8469 9.977
18.8620 9.882
18.8772 9.973
18.8924 9.736
18.9076 9.675
18.9227 9.745
18.9379 9.871
18.9531 10.050
18.9683 10.046
18.9834 10.241
18.9986 10.365
19.0138 10.233
19.0290 10.275
19.0441 10.299
19.0593 10.307
19.0745 10.253
19.0897 10.159
19.1048 10.282
19.1200 10.548
19.1352 10.474
19.1504 10.477
19.1655 10.499
19.1807 10.616
19.1959 10.811
19.2111 10.865
19.2262 10.989
19.2414 10.856
19.2566 10.716
19.2718 10.998
19.2869 11.070
19.3021 10.964
19.3173 10.746
19.3325 10.943
19.3476 11.010
19.3628 11.091
19.3780 11.126
19.3932 11.230
19.4083 11.346
19.4235 11.359
19.4387 11.248
19.4539 11.314
19.4690 11.244
19.4842 11.288
19.4994 11.339
19.5146 11.420
19.5297 11.525
19.5449 11.439
19.5601 11.480
19.5753 11.755
19.5904 11.578
19.6056 11.547
19.6208 11.672
19.6360 11.574
19.6511 11.676
19.6663 11.622
19.6815 11.575
19.6967 11.884
19.7118 11.854
19.7270 11.563
19.7422 11.599
19.7574 11.784
19.7725 11.818
19.7877 11.878
19.8029 11.956
19.8180 11.965
19.8332 12.189
19.8484 12.238
19.8636 12.181
19.8787 12.467
19.8939 12.769
19.9091 13.042
19.9243 13.508
19.9394 13.808
19.9546 14.089
19.9698 14.314
19.9850 14.395
20.0001 14.197
20.0153 14.049
20.0305 13.798
20.0457 13.585
20.0608 13.946
20.0760 13.915
20.0912 13.826
20.1064 13.865
20.1215 13.894
20.1367 13.590
20.1519 13.298
20.1671 13.021
20.1822 12.943
20.1974 13.097
20.2126 12.876
20.2278 12.856
20.2429 12.800
20.2581 12.510
20.2733 12.163
20.2885 11.769
20.3036 11.685
20.3188 11.579
20.3340 11.655
20.3492 11.740
20.3643 11.572
20.3795 11.247
20.3947 10.997
20.4099 10.758
20.4250 10.593
20.4402 10.642
20.4554 10.788
20.4706 10.934
20.4857 10.894
20.5009 10.813
20.5161 10.655
20.5313 10.509
20.5464 10.851
20.5616 10.652
20.5768 10.632
20.5920 10.634
20.6071 10.727
20.6223 10.694
20.6375 10.576
20.6527 10.735
20.6678 10.555
20.6830 10.743
20.6982 10.663
20.7134 10.433
20.7285 10.396
20.7437 10.447
20.7589 10.359
20.7741 10.471
20.7892 10.633
20.8044 10.218
20.8196 10.538
20.8348 10.288
20.8499 9.832
20.8651 10.275
20.8803 10.128
20.8955 10.107
20.9106 10.119
20.9258 10.136
20.9410 9.959
20.9562 10.171
20.9713 10.081
20.9865 10.118
21.0017 9.842
21.0169 9.875
21.0320 10.099
21.0472 9.958
21.0624 10.132
21.0776 9.646
21.0927 10.012
21.1079 9.707
21.1231 9.752
21.1383 9.801
21.1534 9.923
21.1686 9.888
21.1838 9.848
21.1990 9.707
21.2141 9.682
21.2293 9.564
21.2445 9.478
21.2597 9.906
21.2748 9.792
21.2900 9.885
21.3052 9.579
21.3204 9.730
21.3355 9.716
21.3507 9.729
21.3659 9.576
21.3811 9.620
21.3962 9.682
21.4114 9.474
21.4266 9.633
21.4418 9.238
21.4569 9.467
21.4721 9.808
21.4873 9.712
21.5025 9.043
21.5176 9.099
21.5328 9.181
21.5480 9.252
21.5632 9.410
21.5783 9.471
21.5935 9.006
21.6087 8.988
21.6239 9.190
21.6390 8.983
21.6542 9.013
21.6694 8.948
21.6846 9.173
21.6997 9.358
21.7149 9.216
21.7301 9.157
21.7453 9.269
21.7604 9.168
21.7756 9.125
21.7908 9.046
21.8060 9.172
21.8211 9.235
21.8363 9.125
21.8515 8.982
21.8667 9.079
21.8818 9.284
21.8970 9.352
21.9122 9.165
21.9274 8.954
21.9425 8.957
21.9577 8.988
21.9729 9.013
21.9881 9.046
22.0032 8.865
22.0184 8.778
22.0336 8.704
22.0488 8.787
22.0639 8.895
22.0791 8.868
22.0943 8.727
22.1095 8.684
22.1246 8.608
22.1398 8.572
22.1550 8.627
22.1702 8.566
22.1853 8.720
22.2005 8.766
22.2157 8.856
22.2309 8.783
22.2460 8.777
22.2612 8.718
22.2764 8.553
22.2916 8.759
22.3067 8.843
22.3219 8.628
22.3371 8.560
22.3523 8.750
22.3674 8.470
22.3826 8.286
22.3978 8.616
22.4130 8.661
22.4281 8.720
22.4433 8.441
22.4585 8.419
22.4737 8.487
22.4888 8.695
22.5040 8.549
22.5192 8.659
22.5344 8.589
22.5495 8.348
22.5647 8.580
22.5799 8.567
22.5951 8.184
22.6102 8.507
22.6254 8.275
22.6406 8.491
22.6558 8.181
22.6709 8.654
22.6861 8.655
22.7013 8.300
22.7165 7.824
22.7316 6.486
