'Id: "" Comment: "" Operator: "Lab Manager" Anode: "Mo" Scantype: "Still (Eiger2R_500K (1D mode))" TimePerStep: "300" X: "11.8" Y: "9.4" Z: "11.284" 
7.2532 18.956
7.2684 19.123
7.2836 19.189
7.2987 18.846
7.3139 19.007
7.3291 18.981
7.3443 19.417
7.3594 19.446
7.3746 19.415
7.3898 19.438
7.4050 19.003
7.4201 19.839
7.4353 19.524
7.4505 19.290
7.4657 19.409
7.4808 19.407
7.4960 19.529
7.5112 19.908
7.5264 20.169
7.5415 20.033
7.5567 19.603
7.5719 19.784
7.5871 19.817
7.6022 20.208
7.6174 20.059
7.6326 19.998
7.6478 19.977
7.6629 19.886
7.6781 19.841
7.6933 20.149
7.7085 20.370
7.7236 20.458
7.7388 20.425
7.7540 20.296
7.7692 20.301
7.7843 20.354
7.7995 20.707
7.8147 20.973
7.8299 20.699
7.8450 20.465
7.8602 20.693
7.8754 20.966
7.8905 21.113
7.9057 20.880
7.9209 21.184
7.9361 20.965
7.9512 21.030
7.9664 21.145
7.9816 21.020
7.9968 21.186
8.0119 21.253
8.0271 21.175
8.0423 21.321
8.0575 21.212
8.0726 21.000
8.0878 21.075
8.1030 21.253
8.1182 21.242
8.1333 21.559
8.1485 21.584
8.1637 21.771
8.1789 21.666
8.1940 21.674
8.2092 21.713
8.2244 21.941
8.2396 21.493
8.2547 21.851
8.2699 21.511
8.2851 21.843
8.3003 21.786
8.3154 22.118
8.3306 21.983
8.3458 21.794
8.3610 21.830
8.3761 21.680
8.3913 22.223
8.4065 21.859
8.4217 22.024
8.4368 21.734
8.4520 22.333
8.4672 21.944
8.4824 21.962
8.4975 22.118
8.5127 22.168
8.5279 22.082
8.5431 22.226
8.5582 22.213
8.5734 22.363
8.5886 22.199
8.6038 22.092
8.6189 22.148
8.6341 21.708
8.6493 22.576
8.6645 22.620
8.6796 22.008
8.6948 23.007
8.7100 22.769
8.7252 22.889
8.7403 23.061
8.7555 22.542
8.7707 23.118
8.7859 23.099
8.8010 22.808
8.8162 22.565
8.8314 22.861
8.8466 22.644
8.8617 22.923
8.8769 22.696
8.8921 22.305
8.9073 22.422
8.9224 22.524
8.9376 22.379
8.9528 22.755
8.9680 22.400
8.9831 22.377
8.9983 22.740
9.0135 22.662
9.0287 23.117
9.0438 22.787
9.0590 23.075
9.0742 22.915
9.0894 22.791
9.1045 23.273
9.1197 22.869
9.1349 23.081
9.1501 22.857
9.1652 22.945
9.1804 23.311
9.1956 23.066
9.2108 23.448
9.2259 23.265
9.2411 22.968
9.2563 23.042
9.2715 23.146
9.2866 22.860
9.3018 23.166
9.3170 23.028
9.3322 22.861
9.3473 23.276
9.3625 23.471
9.3777 23.402
9.3929 23.263
9.4080 23.298
9.4232 23.122
9.4384 23.286
9.4536 23.657
9.4687 23.406
9.4839 23.250
9.4991 23.143
9.5143 23.270
9.5294 23.025
9.5446 23.224
9.5598 23.645
9.5750 23.493
9.5901 23.317
9.6053 23.408
9.6205 23.420
9.6357 23.546
9.6508 23.932
9.6660 24.054
9.6812 23.814
9.6964 23.976
9.7115 24.059
9.7267 23.889
9.7419 24.160
9.7571 24.207
9.7722 23.923
9.7874 23.827
9.8026 23.674
9.8178 23.834
9.8329 23.838
9.8481 23.537
9.8633 23.513
9.8785 23.773
9.8936 23.688
9.9088 23.711
9.9240 23.909
9.9392 23.612
9.9543 23.276
9.9695 23.494
9.9847 23.783
9.9999 23.591
10.0150 23.319
10.0302 23.507
10.0454 23.940
10.0606 23.725
10.0757 23.293
10.0909 23.369
10.1061 23.294
10.1213 23.550
10.1364 23.620
10.1516 23.362
10.1668 23.455
10.1820 23.610
10.1971 23.593
10.2123 23.505
10.2275 23.852
10.2427 23.806
10.2578 23.582
10.2730 23.656
10.2882 23.656
10.3034 23.625
10.3185 23.415
10.3337 23.025
10.3489 22.783
10.3641 22.649
10.3792 22.859
10.3944 22.823
10.4096 22.829
10.4248 22.851
10.4399 22.546
10.4551 22.623
10.4703 22.827
10.4855 23.574
10.5006 23.079
10.5158 22.581
10.5310 22.441
10.5462 22.511
10.5613 22.648
10.5765 22.902
10.5917 22.759
10.6069 22.921
10.6220 23.015
10.6372 22.846
10.6524 22.874
10.6676 22.749
10.6827 22.527
10.6979 22.375
10.7131 22.610
10.7283 22.767
10.7434 22.620
10.7586 22.623
10.7738 22.803
10.7890 22.514
10.8041 22.347
10.8193 22.417
10.8345 22.111
10.8497 22.746
10.8648 22.269
10.8800 22.268
10.8952 22.580
10.9104 22.371
10.9255 21.961
10.9407 22.033
10.9559 22.255
10.9711 21.938
10.9862 22.158
11.0014 21.999
11.0166 22.328
11.0318 22.703
11.0469 22.371
11.0621 22.437
11.0773 22.082
11.0925 22.155
11.1076 22.496
11.1228 22.155
11.1380 21.600
11.1532 21.497
11.1683 21.783
11.1835 22.029
11.1987 22.070
11.2139 22.243
11.2290 22.203
11.2442 22.242
11.2594 21.691
11.2746 22.004
11.2897 22.050
11.3049 21.784
11.3201 21.810
11.3353 21.818
11.3504 21.360
11.3656 21.564
11.3808 21.498
11.3960 21.570
11.4111 21.664
11.4263 21.534
11.4415 21.200
11.4567 21.023
11.4718 21.166
11.4870 21.208
11.5022 21.030
11.5174 20.878
11.5325 20.985
11.5477 21.168
11.5629 21.000
11.5781 20.997
11.5932 21.210
11.6084 21.080
11.6236 20.886
11.6388 20.837
11.6539 21.007
11.6691 20.642
11.6843 20.724
11.6995 21.099
11.7146 20.952
11.7298 20.602
11.7450 20.500
11.7602 20.403
11.7753 20.347
11.7905 20.406
11.8057 20.210
11.8209 19.782
11.8360 20.095
11.8512 19.959
11.8664 19.646
11.8816 19.567
11.8967 19.754
11.9119 19.502
11.9271 19.513
11.9423 19.497
11.9574 19.699
11.9726 19.657
11.9878 19.566
12.0030 19.678
12.0181 19.594
12.0333 19.215
12.0485 19.141
12.0637 19.004
12.0788 18.988
12.0940 19.075
12.1092 18.513
12.1244 18.860
12.1395 18.645
12.1547 18.209
12.1699 18.151
12.1851 18.353
12.2002 18.544
12.2154 18.089
12.2306 18.057
12.2458 18.137
12.2609 17.860
12.2761 17.925
12.2913 17.596
12.3065 17.368
12.3216 17.587
12.3368 17.530
12.3520 17.336
12.3672 17.630
12.3823 17.546
12.3975 17.495
12.4127 17.306
12.4279 17.353
12.4430 17.326
12.4582 17.202
12.4734 17.100
12.4886 16.939
12.5037 17.038
12.5189 16.815
12.5341 16.961
12.5493 17.200
12.5644 16.766
12.5796 16.493
12.5948 16.565
12.6100 16.367
12.6251 15.921
12.6403 15.846
12.6555 15.854
12.6707 15.810
12.6858 15.584
12.7010 15.620
12.7162 15.699
12.7314 15.718
12.7465 15.628
12.7617 15.460
12.7769 15.357
12.7921 15.377
12.8072 15.214
12.8224 15.248
12.8376 15.272
12.8528 15.104
12.8679 15.115
12.8831 15.111
12.8983 14.745
12.9135 14.509
12.9286 14.608
12.9438 14.622
12.9590 14.560
12.9742 14.316
12.9893 14.258
13.0045 14.555
13.0197 14.347
13.0349 14.061
13.0500 14.232
13.0652 14.164
13.0804 13.938
13.0956 13.867
13.1107 13.792
13.1259 13.751
13.1411 13.753
13.1563 13.662
13.1714 13.663
13.1866 13.877
13.2018 13.587
13.2170 13.436
13.2321 13.498
13.2473 13.389
13.2625 13.420
13.2777 13.403
13.2928 13.496
13.3080 13.316
13.3232 13.120
13.3384 13.260
13.3535 13.247
13.3687 12.883
13.3839 12.890
13.3991 13.081
13.4142 13.108
13.4294 13.077
13.4446 13.032
13.4598 12.854
13.4749 12.849
13.4901 12.818
13.5053 12.877
13.5205 12.505
13.5356 12.186
13.5508 12.373
13.5660 12.638
13.5812 12.476
13.5963 12.111
13.6115 12.071
13.6267 12.196
13.6419 12.089
13.6570 12.020
13.6722 11.886
13.6874 11.842
13.7026 12.057
13.7177 12.226
13.7329 12.127
13.7481 12.220
13.7633 12.038
13.7784 12.017
13.7936 12.020
13.8088 12.050
13.8239 12.131
13.8391 12.158
13.8543 12.295
13.8695 12.556
13.8846 12.482
13.8998 12.112
13.9150 12.058
13.9302 11.980
13.9453 12.032
13.9605 12.040
13.9757 11.684
13.9909 11.469
14.0060 11.485
14.0212 11.560
14.0364 11.705
14.0516 11.715
14.0667 11.592
14.0819 11.593
14.0971 11.863
14.1123 11.955
14.1274 11.492
14.1426 11.611
14.1578 11.699
14.1730 11.972
14.1881 11.813
14.2033 11.742
14.2185 11.674
14.2337 12.101
14.2488 11.947
14.2640 12.071
14.2792 12.090
14.2944 12.248
14.3095 12.149
14.3247 12.327
14.3399 12.680
14.3551 12.700
14.3702 13.043
14.3854 12.674
14.4006 13.169
14.4158 13.054
14.4309 12.273
14.4461 12.107
14.4613 12.557
14.4765 12.257
14.4916 11.697
14.5068 12.068
14.5220 11.774
14.5372 11.602
14.5523 11.390
14.5675 11.393
14.5827 11.260
14.5979 11.292
14.6130 11.148
14.6282 11.391
14.6434 11.161
14.6586 11.074
14.6737 10.951
14.6889 11.034
14.7041 10.972
14.7193 10.757
14.7344 10.919
14.7496 10.968
14.7648 11.069
14.7800 10.699
14.7951 10.635
14.8103 10.873
14.8255 10.697
14.8407 10.729
14.8558 10.748
14.8710 10.847
14.8862 10.610
14.9014 10.620
14.9165 10.696
14.9317 11.093
14.9469 10.457
14.9621 10.620
14.9772 10.611
14.9924 10.579
15.0076 10.457
15.0228 10.680
15.0379 10.420
15.0531 10.556
15.0683 10.723
15.0835 10.520
15.0986 10.698
15.1138 10.648
15.1290 10.870
15.1442 10.355
15.1593 10.959
15.1745 10.420
15.1897 10.089
15.2049 10.368
15.2200 10.303
15.2352 10.544
15.2504 10.459
15.2656 10.166
15.2807 10.367
15.2959 10.249
15.3111 10.350
15.3263 10.475
15.3414 10.327
15.3566 10.488
15.3718 10.383
15.3870 10.153
15.4021 10.351
15.4173 10.220
15.4325 10.685
15.4477 10.404
15.4628 10.309
15.4780 10.495
15.4932 10.110
15.5084 10.330
15.5235 10.629
15.5387 10.536
15.5539 10.383
15.5691 10.190
15.5842 10.162
15.5994 10.184
15.6146 10.084
15.6298 10.205
15.6449 10.100
15.6601 9.724
15.6753 9.916
15.6905 9.846
15.7056 9.957
15.7208 9.914
15.7360 9.917
15.7512 10.016
15.7663 9.700
15.7815 9.979
15.7967 9.863
15.8119 10.073
15.8270 10.010
15.8422 9.569
15.8574 9.787
15.8726 9.744
15.8877 9.736
15.9029 9.896
15.9181 10.007
15.9333 10.110
15.9484 10.054
15.9636 9.920
15.9788 9.983
15.9940 9.931
16.0091 9.711
16.0243 9.480
16.0395 9.525
16.0547 9.642
16.0698 9.877
16.0850 9.555
16.1002 9.594
16.1154 9.408
16.1305 9.815
16.1457 9.803
16.1609 9.787
16.1761 9.509
16.1912 9.838
16.2064 9.852
16.2216 9.964
16.2368 9.956
16.2519 9.834
16.2671 10.045
16.2823 10.225
16.2975 10.009
16.3126 10.051
16.3278 9.982
16.3430 9.995
16.3582 10.160
16.3733 10.044
16.3885 10.236
16.4037 10.284
16.4189 10.087
16.4340 9.617
16.4492 9.807
16.4644 9.919
16.4796 9.761
16.4947 9.648
16.5099 9.773
16.5251 10.115
16.5403 9.836
16.5554 9.677
16.5706 9.802
16.5858 9.797
16.6010 9.514
16.6161 9.810
16.6313 10.008
16.6465 9.825
16.6617 9.971
16.6768 10.100
16.6920 9.869
16.7072 10.037
16.7224 10.032
16.7375 9.991
16.7527 10.063
16.7679 10.011
16.7831 9.996
16.7982 9.931
16.8134 10.090
16.8286 10.033
16.8438 9.764
16.8589 9.656
16.8741 9.705
16.8893 9.860
16.9045 9.994
16.9196 9.906
16.9348 9.847
16.9500 10.109
16.9652 10.240
16.9803 9.969
16.9955 9.820
17.0107 9.598
17.0259 9.781
17.0410 9.957
17.0562 10.186
17.0714 10.313
17.0866 10.301
17.1017 10.340
17.1169 10.462
17.1321 10.850
17.1473 11.341
17.1624 11.675
17.1776 12.396
17.1928 13.118
17.2080 13.920
17.2231 15.147
17.2383 16.515
17.2535 17.929
17.2687 18.495
17.2838 18.442
17.2990 18.148
17.3142 17.281
17.3294 16.408
17.3445 16.023
17.3597 16.130
17.3749 16.164
17.3901 15.373
17.4052 13.900
17.4204 13.085
17.4356 12.701
17.4508 12.087
17.4659 12.031
17.4811 12.045
17.4963 11.551
17.5115 11.218
17.5266 11.232
17.5418 11.420
17.5570 11.547
17.5722 11.462
17.5873 11.609
17.6025 11.657
17.6177 11.511
17.6329 11.130
17.6480 10.817
17.6632 11.071
17.6784 11.009
17.6936 10.609
17.7087 10.587
17.7239 10.543
17.7391 10.449
17.7543 10.225
17.7694 10.158
17.7846 10.337
17.7998 10.247
17.8150 10.290
17.8301 10.236
17.8453 10.257
17.8605 10.123
17.8757 10.130
17.8908 10.288
17.9060 10.281
17.9212 10.235
17.9364 10.245
17.9515 10.061
17.9667 10.100
17.9819 10.425
17.9971 10.305
18.0122 10.153
18.0274 10.177
18.0426 10.255
18.0578 10.358
18.0729 10.471
18.0881 10.223
18.1033 9.907
18.1185 9.931
18.1336 10.045
18.1488 10.094
18.1640 10.146
18.1792 10.018
18.1943 9.879
18.2095 9.904
18.2247 10.103
18.2399 10.062
18.2550 9.963
18.2702 9.938
18.2854 9.894
18.3006 9.813
18.3157 9.851
18.3309 9.913
18.3461 9.896
18.3613 9.823
18.3764 9.674
18.3916 9.611
18.4068 9.690
18.4220 9.775
18.4371 9.901
18.4523 9.838
18.4675 9.734
18.4827 9.718
18.4978 9.748
18.5130 9.708
18.5282 9.737
18.5434 9.872
18.5585 9.792
18.5737 9.790
18.5889 9.891
18.6041 10.005
18.6192 9.801
18.6344 9.491
18.6496 9.491
18.6648 9.526
18.6799 9.678
18.6951 9.663
18.7103 9.669
18.7255 9.767
18.7406 9.778
18.7558 9.905
18.7710 9.862
18.7862 9.865
18.8013 9.707
18.8165 9.805
18.8317 9.953
18.8469 9.851
18.8620 9.917
18.8772 10.110
18.8924 10.057
18.9076 9.906
18.9227 9.996
18.9379 10.004
18.9531 9.889
18.9683 9.876
18.9834 10.088
18.9986 10.201
19.0138 9.866
19.0290 9.891
19.0441 10.205
19.0593 10.206
19.0745 10.243
19.0897 10.428
19.1048 10.270
19.1200 10.108
19.1352 10.339
19.1504 10.251
19.1655 10.435
19.1807 10.604
19.1959 10.724
19.2111 10.767
19.2262 10.605
19.2414 10.745
19.2566 10.918
19.2718 10.750
19.2869 10.745
19.3021 10.883
19.3173 11.039
19.3325 11.082
19.3476 11.027
19.3628 11.087
19.3780 11.195
19.3932 10.999
19.4083 11.088
19.4235 11.414
19.4387 11.302
19.4539 11.240
19.4690 11.396
19.4842 11.488
19.4994 11.366
19.5146 11.431
19.5297 11.527
19.5449 11.367
19.5601 11.556
19.5753 11.767
19.5904 11.890
19.6056 11.828
19.6208 11.676
19.6360 11.590
19.6511 11.504
19.6663 11.449
19.6815 11.404
19.6967 11.699
19.7118 11.965
19.7270 11.877
19.7422 11.840
19.7574 11.859
19.7725 11.738
19.7877 11.801
19.8029 11.991
19.8180 12.082
19.8332 12.160
19.8484 12.209
19.8636 12.479
19.8787 12.754
19.8939 12.956
19.9091 13.262
19.9243 13.345
19.9394 13.579
19.9546 14.214
19.9698 14.356
19.9850 14.502
20.0001 14.580
20.0153 14.555
20.0305 14.243
20.0457 13.902
20.0608 13.769
20.0760 13.723
20.0912 13.751
20.1064 13.627
20.1215 13.669
20.1367 13.512
20.1519 13.077
20.1671 13.209
20.1822 12.963
20.1974 12.996
20.2126 13.139
20.2278 13.088
20.2429 12.929
20.2581 12.651
20.2733 12.227
20.2885 11.919
20.3036 11.883
20.3188 11.862
20.3340 11.680
20.3492 11.580
20.3643 11.511
20.3795 11.527
20.3947 11.389
20.4099 10.986
20.4250 11.036
20.4402 10.885
20.4554 10.797
20.4706 10.788
20.4857 10.900
20.5009 10.891
20.5161 10.704
20.5313 10.787
20.5464 10.684
20.5616 10.867
20.5768 10.934
20.5920 10.878
20.6071 10.741
20.6223 10.683
20.6375 10.885
20.6527 10.576
20.6678 10.343
20.6830 10.761
20.6982 10.637
20.7134 10.447
20.7285 10.667
20.7437 10.359
20.7589 10.542
20.7741 10.707
20.7892 10.480
20.8044 10.255
20.8196 10.218
20.8348 10.487
20.8499 10.255
20.8651 10.133
20.8803 10.217
20.8955 10.106
20.9106 10.181
20.9258 9.815
20.9410 9.979
20.9562 10.043
20.9713 10.294
20.9865 10.016
21.0017 10.214
21.0169 10.093
21.0320 10.052
21.0472 9.836
21.0624 9.545
21.0776 9.852
21.0927 9.951
21.1079 9.697
21.1231 10.175
21.1383 10.133
21.1534 9.966
21.1686 9.753
21.1838 9.563
21.1990 9.742
21.2141 10.260
21.2293 9.683
21.2445 9.648
21.2597 9.872
21.2748 9.523
21.2900 9.553
21.3052 9.574
21.3204 9.426
21.3355 9.570
21.3507 9.944
21.3659 9.873
21.3811 9.393
21.3962 9.609
21.4114 9.560
21.4266 9.603
21.4418 9.860
21.4569 9.646
21.4721 9.437
21.4873 9.480
21.5025 9.294
21.5176 9.223
21.5328 9.493
21.5480 9.327
21.5632 9.071
21.5783 9.190
21.5935 9.114
21.6087 9.227
21.6239 9.179
21.6390 9.046
21.6542 9.315
21.6694 9.005
21.6846 8.918
21.6997 9.089
21.7149 9.012
21.7301 9.166
21.7453 9.008
21.7604 8.765
21.7756 8.766
21.7908 8.897
21.8060 9.034
21.8211 9.258
21.8363 9.197
21.8515 9.108
21.8667 8.846
21.8818 8.939
21.8970 9.161
21.9122 9.175
21.9274 9.039
21.9425 8.950
21.9577 8.852
21.9729 8.812
21.9881 8.850
22.0032 8.810
22.0184 8.906
22.0336 8.930
22.0488 8.935
22.0639 9.007
22.0791 8.770
22.0943 8.770
22.1095 8.854
22.1246 8.773
22.1398 8.721
22.1550 8.767
22.1702 8.840
22.1853 8.839
22.2005 8.570
22.2157 8.541
22.2309 8.728
22.2460 8.648
22.2612 8.604
22.2764 8.669
22.2916 8.874
22.3067 8.768
22.3219 8.596
22.3371 8.475
22.3523 8.562
22.3674 8.808
22.3826 8.659
22.3978 8.427
22.4130 8.565
22.4281 8.494
22.4433 8.394
22.4585 8.651
22.4737 8.652
22.4888 8.695
22.5040 8.589
22.5192 8.440
22.5344 8.538
22.5495 8.693
22.5647 8.409
22.5799 8.522
22.5951 8.386
22.6102 8.217
22.6254 8.617
22.6406 8.616
22.6558 8.576
22.6709 8.545
22.6861 8.579
22.7013 8.378
22.7165 8.129
22.7316 6.565
