'Id: "" Comment: "" Operator: "Lab Manager" Anode: "Mo" Scantype: "Still (Eiger2R_500K (1D mode))" TimePerStep: "300" X: "11.8" Y: "9.4" Z: "11.284" 
7.2532 18.393
7.2684 18.900
7.2836 18.881
7.2987 18.899
7.3139 18.721
7.3291 19.127
7.3443 18.765
7.3594 18.869
7.3746 19.318
7.3898 19.400
7.4050 19.077
7.4201 19.291
7.4353 18.919
7.4505 19.166
7.4657 19.568
7.4808 19.446
7.4960 19.679
7.5112 19.488
7.5264 19.568
7.5415 19.508
7.5567 19.579
7.5719 19.710
7.5871 19.891
7.6022 20.135
7.6174 20.155
7.6326 19.987
7.6478 19.987
7.6629 19.901
7.6781 19.871
7.6933 20.322
7.7085 20.484
7.7236 20.338
7.7388 20.264
7.7540 20.050
7.7692 20.244
7.7843 20.714
7.7995 20.837
7.8147 20.529
7.8299 20.253
7.8450 20.367
7.8602 20.652
7.8754 20.820
7.8905 20.800
7.9057 20.789
7.9209 20.722
7.9361 20.784
7.9512 20.591
7.9664 20.751
7.9816 20.851
7.9968 20.830
8.0119 21.347
8.0271 21.178
8.0423 20.771
8.0575 20.432
8.0726 20.630
8.0878 20.702
8.1030 20.746
8.1182 20.852
8.1333 21.265
8.1485 21.207
8.1637 20.855
8.1789 21.131
8.1940 21.195
8.2092 21.610
8.2244 21.369
8.2396 21.014
8.2547 21.660
8.2699 21.135
8.2851 21.469
8.3003 21.632
8.3154 21.934
8.3306 21.854
8.3458 21.527
8.3610 21.601
8.3761 21.649
8.3913 21.395
8.4065 21.634
8.4217 21.787
8.4368 22.115
8.4520 22.234
8.4672 21.825
8.4824 21.992
8.4975 21.772
8.5127 21.749
8.5279 22.039
8.5431 21.842
8.5582 22.025
8.5734 21.646
8.5886 21.772
8.6038 21.709
8.6189 22.373
8.6341 21.609
8.6493 21.524
8.6645 22.048
8.6796 22.110
8.6948 22.149
8.7100 22.153
8.7252 22.189
8.7403 22.296
8.7555 21.769
8.7707 22.414
8.7859 21.987
8.8010 22.033
8.8162 22.202
8.8314 22.043
8.8466 22.755
8.8617 22.582
8.8769 22.310
8.8921 22.274
8.9073 22.525
8.9224 22.072
8.9376 22.270
8.9528 22.694
8.9680 22.596
8.9831 22.523
8.9983 22.587
9.0135 22.446
9.0287 22.610
9.0438 22.742
9.0590 22.852
9.0742 22.999
9.0894 23.001
9.1045 22.566
9.1197 22.775
9.1349 23.021
9.1501 23.081
9.1652 22.614
9.1804 22.603
9.1956 22.661
9.2108 22.856
9.2259 22.943
9.2411 22.712
9.2563 22.590
9.2715 22.869
9.2866 22.943
9.3018 23.213
9.3170 22.941
9.3322 22.786
9.3473 22.770
9.3625 22.804
9.3777 22.587
9.3929 22.829
9.4080 23.050
9.4232 22.883
9.4384 23.018
9.4536 23.252
9.4687 23.118
9.4839 22.992
9.4991 22.942
9.5143 23.079
9.5294 22.873
9.5446 22.904
9.5598 23.149
9.5750 23.055
9.5901 23.116
9.6053 23.105
9.6205 23.132
9.6357 23.244
9.6508 23.259
9.6660 23.479
9.6812 23.916
9.6964 23.561
9.7115 23.671
9.7267 24.149
9.7419 24.286
9.7571 24.079
9.7722 23.709
9.7874 23.509
9.8026 23.323
9.8178 23.310
9.8329 23.265
9.8481 23.129
9.8633 23.251
9.8785 23.116
9.8936 23.088
9.9088 23.046
9.9240 23.018
9.9392 23.182
9.9543 23.218
9.9695 23.084
9.9847 23.065
9.9999 22.930
10.0150 22.914
10.0302 23.312
10.0454 23.128
10.0606 23.064
10.0757 23.108
10.0909 23.287
10.1061 23.562
10.1213 23.495
10.1364 23.300
10.1516 22.888
10.1668 22.855
10.1820 23.205
10.1971 23.324
10.2123 23.150
10.2275 22.714
10.2427 22.576
10.2578 22.922
10.2730 22.701
10.2882 22.627
10.3034 22.852
10.3185 22.674
10.3337 22.502
10.3489 22.502
10.3641 22.455
10.3792 22.673
10.3944 22.605
10.4096 22.777
10.4248 22.844
10.4399 22.310
10.4551 22.462
10.4703 22.420
10.4855 22.326
10.5006 22.086
10.5158 22.577
10.5310 22.730
10.5462 22.750
10.5613 22.531
10.5765 22.025
10.5917 22.002
10.6069 22.349
10.6220 22.436
10.6372 22.480
10.6524 22.242
10.6676 22.460
10.6827 22.395
10.6979 22.014
10.7131 22.005
10.7283 22.001
10.7434 22.498
10.7586 22.060
10.7738 22.298
10.7890 22.447
10.8041 21.947
10.8193 22.029
10.8345 21.831
10.8497 22.161
10.8648 22.127
10.8800 22.262
10.8952 22.303
10.9104 21.940
10.9255 21.722
10.9407 22.065
10.9559 22.047
10.9711 22.333
10.9862 22.076
11.0014 22.114
11.0166 22.098
11.0318 21.950
11.0469 21.828
11.0621 21.647
11.0773 21.622
11.0925 21.639
11.1076 21.513
11.1228 21.498
11.1380 21.679
11.1532 21.750
11.1683 21.612
11.1835 21.472
11.1987 21.686
11.2139 21.915
11.2290 21.449
11.2442 21.597
11.2594 21.520
11.2746 21.632
11.2897 21.512
11.3049 21.261
11.3201 21.083
11.3353 21.502
11.3504 21.572
11.3656 21.281
11.3808 21.117
11.3960 21.266
11.4111 21.288
11.4263 21.266
11.4415 21.289
11.4567 21.317
11.4718 21.296
11.4870 20.808
11.5022 20.815
11.5174 20.741
11.5325 21.020
11.5477 21.027
11.5629 20.885
11.5781 20.692
11.5932 21.077
11.6084 21.258
11.6236 20.518
11.6388 20.255
11.6539 20.885
11.6691 20.751
11.6843 20.514
11.6995 20.575
11.7146 20.073
11.7298 20.280
11.7450 20.353
11.7602 20.104
11.7753 20.241
11.7905 19.997
11.8057 19.887
11.8209 20.008
11.8360 19.779
11.8512 19.690
11.8664 19.980
11.8816 19.775
11.8967 19.960
11.9119 19.920
11.9271 19.415
11.9423 19.309
11.9574 19.250
11.9726 19.331
11.9878 19.235
12.0030 19.048
12.0181 19.132
12.0333 18.690
12.0485 19.046
12.0637 19.154
12.0788 18.877
12.0940 18.731
12.1092 18.914
12.1244 18.877
12.1395 18.524
12.1547 18.690
12.1699 18.466
12.1851 18.593
12.2002 18.442
12.2154 17.962
12.2306 17.940
12.2458 17.906
12.2609 17.549
12.2761 17.673
12.2913 17.902
12.3065 17.720
12.3216 17.645
12.3368 17.520
12.3520 17.768
12.3672 17.566
12.3823 17.262
12.3975 17.070
12.4127 17.020
12.4279 17.089
12.4430 16.744
12.4582 16.791
12.4734 17.010
12.4886 16.750
12.5037 16.638
12.5189 16.539
12.5341 16.328
12.5493 16.351
12.5644 16.466
12.5796 16.206
12.5948 16.041
12.6100 16.199
12.6251 15.959
12.6403 15.751
12.6555 15.881
12.6707 16.166
12.6858 16.088
12.7010 15.808
12.7162 15.729
12.7314 15.810
12.7465 15.650
12.7617 15.111
12.7769 15.095
12.7921 15.021
12.8072 15.078
12.8224 14.961
12.8376 14.842
12.8528 15.074
12.8679 14.911
12.8831 14.586
12.8983 14.492
12.9135 14.491
12.9286 14.355
12.9438 14.321
12.9590 14.402
12.9742 14.505
12.9893 14.364
13.0045 14.237
13.0197 14.378
13.0349 13.997
13.0500 13.818
13.0652 13.841
13.0804 13.734
13.0956 13.922
13.1107 13.946
13.1259 13.797
13.1411 13.804
13.1563 13.614
13.1714 13.308
13.1866 13.476
13.2018 13.765
13.2170 13.706
13.2321 13.564
13.2473 13.329
13.2625 13.140
13.2777 13.038
13.2928 12.903
13.3080 12.981
13.3232 13.073
13.3384 13.220
13.3535 13.205
13.3687 12.944
13.3839 12.794
13.3991 12.862
13.4142 12.909
13.4294 13.020
13.4446 13.099
13.4598 13.001
13.4749 12.784
13.4901 12.543
13.5053 12.400
13.5205 12.488
13.5356 12.524
13.5508 12.265
13.5660 12.130
13.5812 12.321
13.5963 12.135
13.6115 12.201
13.6267 12.380
13.6419 12.344
13.6570 12.164
13.6722 12.117
13.6874 11.964
13.7026 11.933
13.7177 11.856
13.7329 11.882
13.7481 12.049
13.7633 12.006
13.7784 12.244
13.7936 12.263
13.8088 12.151
13.8239 12.196
13.8391 12.200
13.8543 12.090
13.8695 12.282
13.8846 12.313
13.8998 11.991
13.9150 11.925
13.9302 11.876
13.9453 11.877
13.9605 11.972
13.9757 11.929
13.9909 11.880
14.0060 11.875
14.0212 11.719
14.0364 11.495
14.0516 11.535
14.0667 11.689
14.0819 11.788
14.0971 11.669
14.1123 11.648
14.1274 11.560
14.1426 11.258
14.1578 11.652
14.1730 11.865
14.1881 11.742
14.2033 11.722
14.2185 11.831
14.2337 11.950
14.2488 11.968
14.2640 12.055
14.2792 11.973
14.2944 11.586
14.3095 11.794
14.3247 12.006
14.3399 12.330
14.3551 12.534
14.3702 12.691
14.3854 13.106
14.4006 13.121
14.4158 13.050
14.4309 13.362
14.4461 13.190
14.4613 12.750
14.4765 12.357
14.4916 12.067
14.5068 12.325
14.5220 11.803
14.5372 11.923
14.5523 11.206
14.5675 10.804
14.5827 11.080
14.5979 10.974
14.6130 11.170
14.6282 10.649
14.6434 10.678
14.6586 10.821
14.6737 10.835
14.6889 10.813
14.7041 10.634
14.7193 10.615
14.7344 10.736
14.7496 10.676
14.7648 10.655
14.7800 10.564
14.7951 10.481
14.8103 10.655
14.8255 10.582
14.8407 10.563
14.8558 10.752
14.8710 10.734
14.8862 10.465
14.9014 10.855
14.9165 10.789
14.9317 10.714
14.9469 10.544
14.9621 10.254
14.9772 10.387
14.9924 10.326
15.0076 10.142
15.0228 10.513
15.0379 10.395
15.0531 10.341
15.0683 10.142
15.0835 10.176
15.0986 10.354
15.1138 10.052
15.1290 9.974
15.1442 10.029
15.1593 10.245
15.1745 10.303
15.1897 9.872
15.2049 10.004
15.2200 10.481
15.2352 10.451
15.2504 10.387
15.2656 9.845
15.2807 10.060
15.2959 10.055
15.3111 10.352
15.3263 10.053
15.3414 10.215
15.3566 10.401
15.3718 10.145
15.3870 10.436
15.4021 9.929
15.4173 10.133
15.4325 10.144
15.4477 10.235
15.4628 9.943
15.4780 10.291
15.4932 9.954
15.5084 10.257
15.5235 9.852
15.5387 9.954
15.5539 10.128
15.5691 10.093
15.5842 9.847
15.5994 9.755
15.6146 9.621
15.6298 10.049
15.6449 10.048
15.6601 10.029
15.6753 9.811
15.6905 10.003
15.7056 9.893
15.7208 9.840
15.7360 9.952
15.7512 9.625
15.7663 9.808
15.7815 9.626
15.7967 9.667
15.8119 9.676
15.8270 9.769
15.8422 9.706
15.8574 9.746
15.8726 9.525
15.8877 9.363
15.9029 9.276
15.9181 9.472
15.9333 9.274
15.9484 9.786
15.9636 9.729
15.9788 9.703
15.9940 9.408
16.0091 9.514
16.0243 9.551
16.0395 9.604
16.0547 9.490
16.0698 9.788
16.0850 9.844
16.1002 10.006
16.1154 9.950
16.1305 9.541
16.1457 9.615
16.1609 9.400
16.1761 9.239
16.1912 9.521
16.2064 9.635
16.2216 9.742
16.2368 9.529
16.2519 9.492
16.2671 9.592
16.2823 9.744
16.2975 9.785
16.3126 9.837
16.3278 9.705
16.3430 9.723
16.3582 9.864
16.3733 9.761
16.3885 9.685
16.4037 9.982
16.4189 9.778
16.4340 9.781
16.4492 9.962
16.4644 10.009
16.4796 9.833
16.4947 9.741
16.5099 9.566
16.5251 9.716
16.5403 9.791
16.5554 9.761
16.5706 9.578
16.5858 9.474
16.6010 9.870
16.6161 9.887
16.6313 9.560
16.6465 9.590
16.6617 9.847
16.6768 9.796
16.6920 10.020
16.7072 10.169
16.7224 9.905
16.7375 9.995
16.7527 10.061
16.7679 10.156
16.7831 10.020
16.7982 9.857
16.8134 9.885
16.8286 9.796
16.8438 9.848
16.8589 9.844
16.8741 9.728
16.8893 9.799
16.9045 9.893
16.9196 9.841
16.9348 9.694
16.9500 9.838
16.9652 9.773
16.9803 9.664
16.9955 9.706
17.0107 9.674
17.0259 9.899
17.0410 10.090
17.0562 10.176
17.0714 10.074
17.0866 10.260
17.1017 10.449
17.1169 10.598
17.1321 11.084
17.1473 11.452
17.1624 11.683
17.1776 12.280
17.1928 12.833
17.2080 13.705
17.2231 14.988
17.2383 16.167
17.2535 17.115
17.2687 18.325
17.2838 18.730
17.2990 17.813
17.3142 17.053
17.3294 16.173
17.3445 15.858
17.3597 16.221
17.3749 16.174
17.3901 15.553
17.4052 14.638
17.4204 13.434
17.4356 12.414
17.4508 12.113
17.4659 11.822
17.4811 11.444
17.4963 11.424
17.5115 11.264
17.5266 10.885
17.5418 10.917
17.5570 10.865
17.5722 10.801
17.5873 10.949
17.6025 11.178
17.6177 11.287
17.6329 11.364
17.6480 11.432
17.6632 11.481
17.6784 11.582
17.6936 11.476
17.7087 11.347
17.7239 11.229
17.7391 11.189
17.7543 11.132
17.7694 11.064
17.7846 11.065
17.7998 10.959
17.8150 10.697
17.8301 10.665
17.8453 10.560
17.8605 10.363
17.8757 10.282
17.8908 10.376
17.9060 10.470
17.9212 10.286
17.9364 10.443
17.9515 10.170
17.9667 9.849
17.9819 10.019
17.9971 10.314
18.0122 10.383
18.0274 10.414
18.0426 10.133
18.0578 10.069
18.0729 9.969
18.0881 9.643
18.1033 9.769
18.1185 9.950
18.1336 9.730
18.1488 9.733
18.1640 9.806
18.1792 9.930
18.1943 9.955
18.2095 9.960
18.2247 9.887
18.2399 9.850
18.2550 9.807
18.2702 9.769
18.2854 9.665
18.3006 9.835
18.3157 10.036
18.3309 9.842
18.3461 9.701
18.3613 10.021
18.3764 10.044
18.3916 9.952
18.4068 9.633
18.4220 9.666
18.4371 9.911
18.4523 9.921
18.4675 9.960
18.4827 9.763
18.4978 9.765
18.5130 9.478
18.5282 9.564
18.5434 9.760
18.5585 9.861
18.5737 9.816
18.5889 9.747
18.6041 9.655
18.6192 9.680
18.6344 9.574
18.6496 9.683
18.6648 9.820
18.6799 9.745
18.6951 9.728
18.7103 9.820
18.7255 9.758
18.7406 9.533
18.7558 9.748
18.7710 9.873
18.7862 9.800
18.8013 9.601
18.8165 9.425
18.8317 9.522
18.8469 9.762
18.8620 10.019
18.8772 10.071
18.8924 9.892
18.9076 9.873
18.9227 9.924
18.9379 10.029
18.9531 10.034
18.9683 9.952
18.9834 10.078
18.9986 9.974
19.0138 10.036
19.0290 10.071
19.0441 10.168
19.0593 10.370
19.0745 10.343
19.0897 10.193
19.1048 10.254
19.1200 10.462
19.1352 10.455
19.1504 10.389
19.1655 10.541
19.1807 10.411
19.1959 10.508
19.2111 10.724
19.2262 10.644
19.2414 10.753
19.2566 10.828
19.2718 10.692
19.2869 10.672
19.3021 10.876
19.3173 11.160
19.3325 11.162
19.3476 11.008
19.3628 10.769
19.3780 11.048
19.3932 11.142
19.4083 10.941
19.4235 11.169
19.4387 11.236
19.4539 10.988
19.4690 11.175
19.4842 11.314
19.4994 11.285
19.5146 11.353
19.5297 11.260
19.5449 11.406
19.5601 11.546
19.5753 11.524
19.5904 11.547
19.6056 11.587
19.6208 11.535
19.6360 11.745
19.6511 11.885
19.6663 11.647
19.6815 11.743
19.6967 11.799
19.7118 11.614
19.7270 11.592
19.7422 11.539
19.7574 11.708
19.7725 11.815
19.7877 11.734
19.8029 11.901
19.8180 11.886
19.8332 11.851
19.8484 12.058
19.8636 12.076
19.8787 12.291
19.8939 12.659
19.9091 13.120
19.9243 13.482
19.9394 13.589
19.9546 13.982
19.9698 14.322
19.9850 14.446
20.0001 14.479
20.0153 14.180
20.0305 13.822
20.0457 13.746
20.0608 13.783
20.0760 13.978
20.0912 13.988
20.1064 13.769
20.1215 13.628
20.1367 13.311
20.1519 12.931
20.1671 12.717
20.1822 12.646
20.1974 12.815
20.2126 12.633
20.2278 12.501
20.2429 12.618
20.2581 12.605
20.2733 12.227
20.2885 11.891
20.3036 12.081
20.3188 12.025
20.3340 12.095
20.3492 11.842
20.3643 11.651
20.3795 11.825
20.3947 11.811
20.4099 11.754
20.4250 11.842
20.4402 11.732
20.4554 11.674
20.4706 11.820
20.4857 11.776
20.5009 11.763
20.5161 11.642
20.5313 11.354
20.5464 11.274
20.5616 11.414
20.5768 11.345
20.5920 11.243
20.6071 11.022
20.6223 10.992
20.6375 10.720
20.6527 10.844
20.6678 10.664
20.6830 10.561
20.6982 10.494
20.7134 10.604
20.7285 10.232
20.7437 10.488
20.7589 10.231
20.7741 10.142
20.7892 10.462
20.8044 10.241
20.8196 10.427
20.8348 9.997
20.8499 10.228
20.8651 10.377
20.8803 10.412
20.8955 10.313
20.9106 10.231
20.9258 10.346
20.9410 10.349
20.9562 10.291
20.9713 10.291
20.9865 9.880
21.0017 10.228
21.0169 9.998
21.0320 10.177
21.0472 10.019
21.0624 9.983
21.0776 9.877
21.0927 9.690
21.1079 9.916
21.1231 9.517
21.1383 9.842
21.1534 9.631
21.1686 9.917
21.1838 9.768
21.1990 9.991
21.2141 9.673
21.2293 9.589
21.2445 9.388
21.2597 10.209
21.2748 9.488
21.2900 9.977
21.3052 9.662
21.3204 9.480
21.3355 9.616
21.3507 9.467
21.3659 9.981
21.3811 9.360
21.3962 9.273
21.4114 9.456
21.4266 9.668
21.4418 9.727
21.4569 9.272
21.4721 9.134
21.4873 9.259
21.5025 9.250
21.5176 9.440
21.5328 9.229
21.5480 9.110
21.5632 9.244
21.5783 9.050
21.5935 9.130
21.6087 9.192
21.6239 9.063
21.6390 9.154
21.6542 8.883
21.6694 9.173
21.6846 9.215
21.6997 8.999
21.7149 8.981
21.7301 9.106
21.7453 8.979
21.7604 9.070
21.7756 8.956
21.7908 9.088
21.8060 9.098
21.8211 9.050
21.8363 9.128
21.8515 9.037
21.8667 8.930
21.8818 8.863
21.8970 8.997
21.9122 9.066
21.9274 9.077
21.9425 9.002
21.9577 9.128
21.9729 9.155
21.9881 8.924
22.0032 8.880
22.0184 8.953
22.0336 8.854
22.0488 8.665
22.0639 8.768
22.0791 8.973
22.0943 9.141
22.1095 8.958
22.1246 8.848
22.1398 8.793
22.1550 8.694
22.1702 8.682
22.1853 8.703
22.2005 8.571
22.2157 8.471
22.2309 8.604
22.2460 8.447
22.2612 8.516
22.2764 8.493
22.2916 8.265
22.3067 8.169
22.3219 8.510
22.3371 8.345
22.3523 8.322
22.3674 8.400
22.3826 8.725
22.3978 8.586
22.4130 8.427
22.4281 8.542
22.4433 8.466
22.4585 8.336
22.4737 8.436
22.4888 8.465
22.5040 8.450
22.5192 8.538
22.5344 8.571
22.5495 8.510
22.5647 8.258
22.5799 8.353
22.5951 8.187
22.6102 8.389
22.6254 8.457
22.6406 8.649
22.6558 8.405
22.6709 8.495
22.6861 8.204
22.7013 8.247
22.7165 8.172
22.7316 6.601
