'Id: "" Comment: "" Operator: "Lab Manager" Anode: "Mo" Scantype: "Still (Eiger2R_500K (1D mode))" TimePerStep: "300" X: "11.8" Y: "9.4" Z: "11.284" 
7.2532 18.678
7.2684 19.046
7.2836 19.003
7.2987 19.197
7.3139 19.082
7.3291 19.407
7.3443 19.093
7.3594 19.363
7.3746 19.143
7.3898 19.488
7.4050 19.499
7.4201 19.278
7.4353 19.427
7.4505 19.283
7.4657 19.398
7.4808 19.317
7.4960 19.668
7.5112 19.803
7.5264 19.783
7.5415 20.118
7.5567 19.907
7.5719 19.867
7.5871 19.931
7.6022 20.212
7.6174 20.530
7.6326 20.302
7.6478 20.273
7.6629 19.921
7.6781 20.237
7.6933 20.315
7.7085 20.351
7.7236 20.487
7.7388 20.498
7.7540 20.735
7.7692 20.848
7.7843 21.025
7.7995 20.895
7.8147 20.548
7.8299 20.505
7.8450 20.683
7.8602 20.723
7.8754 20.678
7.8905 20.824
7.9057 21.093
7.9209 21.093
7.9361 20.891
7.9512 21.098
7.9664 21.411
7.9816 21.216
7.9968 20.943
8.0119 21.238
8.0271 21.304
8.0423 21.268
8.0575 21.364
8.0726 21.178
8.0878 21.005
8.1030 21.092
8.1182 21.427
8.1333 21.371
8.1485 21.333
8.1637 21.467
8.1789 21.343
8.1940 21.139
8.2092 21.531
8.2244 22.009
8.2396 22.109
8.2547 22.119
8.2699 21.688
8.2851 21.669
8.3003 21.379
8.3154 21.538
8.3306 21.547
8.3458 21.650
8.3610 21.937
8.3761 21.680
8.3913 21.730
8.4065 21.795
8.4217 21.979
8.4368 22.175
8.4520 21.972
8.4672 21.871
8.4824 22.213
8.4975 21.779
8.5127 22.519
8.5279 22.185
8.5431 21.741
8.5582 22.121
8.5734 22.351
8.5886 22.275
8.6038 22.314
8.6189 22.035
8.6341 21.716
8.6493 22.813
8.6645 22.629
8.6796 22.316
8.6948 22.065
8.7100 22.795
8.7252 22.489
8.7403 22.200
8.7555 22.496
8.7707 22.416
8.7859 22.343
8.8010 22.392
8.8162 22.521
8.8314 22.215
8.8466 22.669
8.8617 23.013
8.8769 22.322
8.8921 22.632
8.9073 22.714
8.9224 23.174
8.9376 22.570
8.9528 22.896
8.9680 22.637
8.9831 22.455
8.9983 22.638
9.0135 22.338
9.0287 22.679
9.0438 23.037
9.0590 22.807
9.0742 22.869
9.0894 22.746
9.1045 22.638
9.1197 22.714
9.1349 22.841
9.1501 23.009
9.1652 23.008
9.1804 23.076
9.1956 22.924
9.2108 22.873
9.2259 23.318
9.2411 23.362
9.2563 22.774
9.2715 22.811
9.2866 22.685
9.3018 22.675
9.3170 22.874
9.3322 22.923
9.3473 22.922
9.3625 22.986
9.3777 23.317
9.3929 23.124
9.4080 23.263
9.4232 23.167
9.4384 22.927
9.4536 22.500
9.4687 22.811
9.4839 23.187
9.4991 23.226
9.5143 23.134
9.5294 23.460
9.5446 23.297
9.5598 23.214
9.5750 23.157
9.5901 23.269
9.6053 23.366
9.6205 23.212
9.6357 23.328
9.6508 23.367
9.6660 23.387
9.6812 23.591
9.6964 23.903
9.7115 24.231
9.7267 24.408
9.7419 24.490
9.7571 24.220
9.7722 23.828
9.7874 23.603
9.8026 23.496
9.8178 23.606
9.8329 23.480
9.8481 23.609
9.8633 23.526
9.8785 23.233
9.8936 23.311
9.9088 23.339
9.9240 23.388
9.9392 23.486
9.9543 23.387
9.9695 23.212
9.9847 23.260
9.9999 23.367
10.0150 23.396
10.0302 23.589
10.0454 23.760
10.0606 23.498
10.0757 23.195
10.0909 23.459
10.1061 23.626
10.1213 23.661
10.1364 23.665
10.1516 23.424
10.1668 23.736
10.1820 23.847
10.1971 23.781
10.2123 23.622
10.2275 23.351
10.2427 23.309
10.2578 23.113
10.2730 22.919
10.2882 23.114
10.3034 22.784
10.3185 22.775
10.3337 23.187
10.3489 22.880
10.3641 22.907
10.3792 22.829
10.3944 23.090
10.4096 22.985
10.4248 23.063
10.4399 23.042
10.4551 23.007
10.4703 22.859
10.4855 22.650
10.5006 22.472
10.5158 22.527
10.5310 22.717
10.5462 22.724
10.5613 22.739
10.5765 22.606
10.5917 22.648
10.6069 22.421
10.6220 22.689
10.6372 22.830
10.6524 22.432
10.6676 22.407
10.6827 22.669
10.6979 22.802
10.7131 22.535
10.7283 22.556
10.7434 22.574
10.7586 22.116
10.7738 22.346
10.7890 22.291
10.8041 22.215
10.8193 22.247
10.8345 22.359
10.8497 22.303
10.8648 22.386
10.8800 22.632
10.8952 22.189
10.9104 22.189
10.9255 22.215
10.9407 22.176
10.9559 22.314
10.9711 22.400
10.9862 22.228
11.0014 22.248
11.0166 21.800
11.0318 21.764
11.0469 21.988
11.0621 22.198
11.0773 22.164
11.0925 22.117
11.1076 22.229
11.1228 21.927
11.1380 21.803
11.1532 21.903
11.1683 21.950
11.1835 21.971
11.1987 21.799
11.2139 21.675
11.2290 21.677
11.2442 21.762
11.2594 21.732
11.2746 21.656
11.2897 21.503
11.3049 21.322
11.3201 21.209
11.3353 21.496
11.3504 21.365
11.3656 21.884
11.3808 21.750
11.3960 21.601
11.4111 21.472
11.4263 21.751
11.4415 21.481
11.4567 21.251
11.4718 21.086
11.4870 21.011
11.5022 21.487
11.5174 21.341
11.5325 21.406
11.5477 21.372
11.5629 20.992
11.5781 20.680
11.5932 20.518
11.6084 20.522
11.6236 20.919
11.6388 20.666
11.6539 20.762
11.6691 20.669
11.6843 20.572
11.6995 20.535
11.7146 20.569
11.7298 20.114
11.7450 20.186
11.7602 20.451
11.7753 20.484
11.7905 20.138
11.8057 20.236
11.8209 20.442
11.8360 20.347
11.8512 20.286
11.8664 19.708
11.8816 19.789
11.8967 19.853
11.9119 19.582
11.9271 19.714
11.9423 19.536
11.9574 19.546
11.9726 19.679
11.9878 19.600
12.0030 19.402
12.0181 19.187
12.0333 18.903
12.0485 18.849
12.0637 19.095
12.0788 19.003
12.0940 18.915
12.1092 18.905
12.1244 18.689
12.1395 18.765
12.1547 18.923
12.1699 18.720
12.1851 18.490
12.2002 18.327
12.2154 18.225
12.2306 17.989
12.2458 17.993
12.2609 17.910
12.2761 17.580
12.2913 17.527
12.3065 17.419
12.3216 17.567
12.3368 17.673
12.3520 17.723
12.3672 17.516
12.3823 17.140
12.3975 17.025
12.4127 16.894
12.4279 16.993
12.4430 16.908
12.4582 17.098
12.4734 16.962
12.4886 16.868
12.5037 16.773
12.5189 16.597
12.5341 16.753
12.5493 16.515
12.5644 16.495
12.5796 16.462
12.5948 16.236
12.6100 16.435
12.6251 16.279
12.6403 16.010
12.6555 15.784
12.6707 15.745
12.6858 15.952
12.7010 15.801
12.7162 15.509
12.7314 15.461
12.7465 15.449
12.7617 15.263
12.7769 15.260
12.7921 15.355
12.8072 15.238
12.8224 15.042
12.8376 14.915
12.8528 14.917
12.8679 14.926
12.8831 14.987
12.8983 14.918
12.9135 14.720
12.9286 14.580
12.9438 14.549
12.9590 14.610
12.9742 14.356
12.9893 14.048
13.0045 14.110
13.0197 14.273
13.0349 14.213
13.0500 14.068
13.0652 13.982
13.0804 13.816
13.0956 13.726
13.1107 13.987
13.1259 13.937
13.1411 13.697
13.1563 13.685
13.1714 13.694
13.1866 13.518
13.2018 13.406
13.2170 13.535
13.2321 13.519
13.2473 13.336
13.2625 13.224
13.2777 13.291
13.2928 13.251
13.3080 13.227
13.3232 13.082
13.3384 12.936
13.3535 13.155
13.3687 13.373
13.3839 13.188
13.3991 12.924
13.4142 12.913
13.4294 12.910
13.4446 12.980
13.4598 13.057
13.4749 12.665
13.4901 12.504
13.5053 12.641
13.5205 12.659
13.5356 12.417
13.5508 12.335
13.5660 12.315
13.5812 12.122
13.5963 12.090
13.6115 12.197
13.6267 12.272
13.6419 12.316
13.6570 12.318
13.6722 12.394
13.6874 12.242
13.7026 12.115
13.7177 12.222
13.7329 12.134
13.7481 12.136
13.7633 12.204
13.7784 12.066
13.7936 12.433
13.8088 12.458
13.8239 12.387
13.8391 12.253
13.8543 12.341
13.8695 12.242
13.8846 12.020
13.8998 12.034
13.9150 11.930
13.9302 12.172
13.9453 12.223
13.9605 12.040
13.9757 11.840
13.9909 11.747
14.0060 11.668
14.0212 11.666
14.0364 11.328
14.0516 11.580
14.0667 11.742
14.0819 11.641
14.0971 11.430
14.1123 11.233
14.1274 11.328
14.1426 11.569
14.1578 11.591
14.1730 11.324
14.1881 11.524
14.2033 11.712
14.2185 11.487
14.2337 11.540
14.2488 11.867
14.2640 11.544
14.2792 11.823
14.2944 12.052
14.3095 12.270
14.3247 12.363
14.3399 12.788
14.3551 12.887
14.3702 13.235
14.3854 13.549
14.4006 13.571
14.4158 13.686
14.4309 13.731
14.4461 13.600
14.4613 13.099
14.4765 12.801
14.4916 12.376
14.5068 12.022
14.5220 12.076
14.5372 11.817
14.5523 11.639
14.5675 11.219
14.5827 11.126
14.5979 10.941
14.6130 10.837
14.6282 11.061
14.6434 10.970
14.6586 10.893
14.6737 11.194
14.6889 10.908
14.7041 10.626
14.7193 10.554
14.7344 10.785
14.7496 10.650
14.7648 10.830
14.7800 10.608
14.7951 10.517
14.8103 10.445
14.8255 10.536
14.8407 10.756
14.8558 10.496
14.8710 10.861
14.8862 10.772
14.9014 10.408
14.9165 10.959
14.9317 10.842
14.9469 10.613
14.9621 10.636
14.9772 10.433
14.9924 10.616
15.0076 10.659
15.0228 10.516
15.0379 10.492
15.0531 10.514
15.0683 9.930
15.0835 10.373
15.0986 10.030
15.1138 10.449
15.1290 10.329
15.1442 10.339
15.1593 10.057
15.1745 10.338
15.1897 10.001
15.2049 10.329
15.2200 10.266
15.2352 10.078
15.2504 10.016
15.2656 10.102
15.2807 9.988
15.2959 10.444
15.3111 10.383
15.3263 10.502
15.3414 10.513
15.3566 10.431
15.3718 10.279
15.3870 10.220
15.4021 10.180
15.4173 10.446
15.4325 10.073
15.4477 10.559
15.4628 10.151
15.4780 9.961
15.4932 9.954
15.5084 10.122
15.5235 10.195
15.5387 10.167
15.5539 10.245
15.5691 10.025
15.5842 9.950
15.5994 9.869
15.6146 10.169
15.6298 10.136
15.6449 9.946
15.6601 9.904
15.6753 9.981
15.6905 9.991
15.7056 9.924
15.7208 10.055
15.7360 9.981
15.7512 9.930
15.7663 9.761
15.7815 10.011
15.7967 9.627
15.8119 9.785
15.8270 9.798
15.8422 9.847
15.8574 9.992
15.8726 10.098
15.8877 9.653
15.9029 9.611
15.9181 9.727
15.9333 9.545
15.9484 9.612
15.9636 9.736
15.9788 9.521
15.9940 10.128
16.0091 9.821
16.0243 9.608
16.0395 9.718
16.0547 9.799
16.0698 9.560
16.0850 9.466
16.1002 9.593
16.1154 9.619
16.1305 9.722
16.1457 9.796
16.1609 9.593
16.1761 9.710
16.1912 9.867
16.2064 9.665
16.2216 9.678
16.2368 9.883
16.2519 9.849
16.2671 9.915
16.2823 10.031
16.2975 9.976
16.3126 10.060
16.3278 9.913
16.3430 9.949
16.3582 9.942
16.3733 9.629
16.3885 10.055
16.4037 9.974
16.4189 9.929
16.4340 9.821
16.4492 9.673
16.4644 9.964
16.4796 10.158
16.4947 10.006
16.5099 10.033
16.5251 9.745
16.5403 9.686
16.5554 9.784
16.5706 9.700
16.5858 9.748
16.6010 9.851
16.6161 9.863
16.6313 9.859
16.6465 9.664
16.6617 9.481
16.6768 9.683
16.6920 9.816
16.7072 9.821
16.7224 9.923
16.7375 10.013
16.7527 10.112
16.7679 10.125
16.7831 10.004
16.7982 9.969
16.8134 9.896
16.8286 9.912
16.8438 9.763
16.8589 9.666
16.8741 9.794
16.8893 10.084
16.9045 9.896
16.9196 9.627
16.9348 9.728
16.9500 9.896
16.9652 9.826
16.9803 9.833
16.9955 9.891
17.0107 9.854
17.0259 9.871
17.0410 9.941
17.0562 10.124
17.0714 10.424
17.0866 10.488
17.1017 10.498
17.1169 10.722
17.1321 10.928
17.1473 11.411
17.1624 11.664
17.1776 12.037
17.1928 12.850
17.2080 13.840
17.2231 15.200
17.2383 16.573
17.2535 17.680
17.2687 18.696
17.2838 18.936
17.2990 17.987
17.3142 17.015
17.3294 16.205
17.3445 15.861
17.3597 16.168
17.3749 16.046
17.3901 15.277
17.4052 14.189
17.4204 13.102
17.4356 12.283
17.4508 11.892
17.4659 11.741
17.4811 11.577
17.4963 11.392
17.5115 11.070
17.5266 10.753
17.5418 10.955
17.5570 11.103
17.5722 11.149
17.5873 11.078
17.6025 10.873
17.6177 11.037
17.6329 11.183
17.6480 11.597
17.6632 11.761
17.6784 11.892
17.6936 12.020
17.7087 11.855
17.7239 11.607
17.7391 11.350
17.7543 11.082
17.7694 11.150
17.7846 11.172
17.7998 10.944
17.8150 10.919
17.8301 10.609
17.8453 10.102
17.8605 10.048
17.8757 10.259
17.8908 10.260
17.9060 10.184
17.9212 10.008
17.9364 10.120
17.9515 10.192
17.9667 10.116
17.9819 10.316
17.9971 10.142
18.0122 9.921
18.0274 10.144
18.0426 10.263
18.0578 10.092
18.0729 9.982
18.0881 10.008
18.1033 10.056
18.1185 9.896
18.1336 9.997
18.1488 10.201
18.1640 10.066
18.1792 10.092
18.1943 10.086
18.2095 9.878
18.2247 9.878
18.2399 9.818
18.2550 9.785
18.2702 9.852
18.2854 9.747
18.3006 9.632
18.3157 9.958
18.3309 10.041
18.3461 9.806
18.3613 9.706
18.3764 9.649
18.3916 9.837
18.4068 9.949
18.4220 9.746
18.4371 9.659
18.4523 9.713
18.4675 9.697
18.4827 9.762
18.4978 9.782
18.5130 9.979
18.5282 9.882
18.5434 9.768
18.5585 9.925
18.5737 9.937
18.5889 9.924
18.6041 9.970
18.6192 9.638
18.6344 9.792
18.6496 9.892
18.6648 9.735
18.6799 9.848
18.6951 10.075
18.7103 10.030
18.7255 9.659
18.7406 9.596
18.7558 9.536
18.7710 9.714
18.7862 9.961
18.8013 10.031
18.8165 9.660
18.8317 9.638
18.8469 9.871
18.8620 10.194
18.8772 10.247
18.8924 10.053
18.9076 10.117
18.9227 10.062
18.9379 9.826
18.9531 9.894
18.9683 10.109
18.9834 10.065
18.9986 9.970
19.0138 9.897
19.0290 10.121
19.0441 10.400
19.0593 10.337
19.0745 10.112
19.0897 10.169
19.1048 10.147
19.1200 10.373
19.1352 10.554
19.1504 10.408
19.1655 10.349
19.1807 10.321
19.1959 10.413
19.2111 10.578
19.2262 10.695
19.2414 10.911
19.2566 10.879
19.2718 10.785
19.2869 10.651
19.3021 10.598
19.3173 10.743
19.3325 11.007
19.3476 11.112
19.3628 11.065
19.3780 11.129
19.3932 11.170
19.4083 11.104
19.4235 11.102
19.4387 11.336
19.4539 11.299
19.4690 11.286
19.4842 11.300
19.4994 11.309
19.5146 11.474
19.5297 11.671
19.5449 11.687
19.5601 11.453
19.5753 11.391
19.5904 11.465
19.6056 11.456
19.6208 11.562
19.6360 11.517
19.6511 11.590
19.6663 11.746
19.6815 11.819
19.6967 11.814
19.7118 11.693
19.7270 11.877
19.7422 11.717
19.7574 11.777
19.7725 12.009
19.7877 11.926
19.8029 12.082
19.8180 12.111
19.8332 12.054
19.8484 12.185
19.8636 12.147
19.8787 12.308
19.8939 12.630
19.9091 12.808
19.9243 13.297
19.9394 13.810
19.9546 13.989
19.9698 14.292
19.9850 14.371
20.0001 14.135
20.0153 13.953
20.0305 13.692
20.0457 13.589
20.0608 13.406
20.0760 13.422
20.0912 13.531
20.1064 13.509
20.1215 13.327
20.1367 12.951
20.1519 12.862
20.1671 12.814
20.1822 12.629
20.1974 12.582
20.2126 12.608
20.2278 12.561
20.2429 12.530
20.2581 12.225
20.2733 11.965
20.2885 11.953
20.3036 11.814
20.3188 11.828
20.3340 12.036
20.3492 12.037
20.3643 12.090
20.3795 11.913
20.3947 12.189
20.4099 12.291
20.4250 12.202
20.4402 12.125
20.4554 12.104
20.4706 12.202
20.4857 12.009
20.5009 11.760
20.5161 11.530
20.5313 11.318
20.5464 11.453
20.5616 11.470
20.5768 11.193
20.5920 11.391
20.6071 11.168
20.6223 10.861
20.6375 11.029
20.6527 10.786
20.6678 10.737
20.6830 10.755
20.6982 10.702
20.7134 10.609
20.7285 10.332
20.7437 10.320
20.7589 10.132
20.7741 10.055
20.7892 10.236
20.8044 10.047
20.8196 10.099
20.8348 10.427
20.8499 10.365
20.8651 10.287
20.8803 10.054
20.8955 10.083
20.9106 10.263
20.9258 10.102
20.9410 9.911
20.9562 9.919
20.9713 9.999
20.9865 10.519
21.0017 9.895
21.0169 9.733
21.0320 10.111
21.0472 9.913
21.0624 10.091
21.0776 10.144
21.0927 10.027
21.1079 9.639
21.1231 9.726
21.1383 9.722
21.1534 9.577
21.1686 9.984
21.1838 9.740
21.1990 9.753
21.2141 9.657
21.2293 9.763
21.2445 9.783
21.2597 9.845
21.2748 9.656
21.2900 9.625
21.3052 9.215
21.3204 9.416
21.3355 9.670
21.3507 9.555
21.3659 9.642
21.3811 9.578
21.3962 9.315
21.4114 9.263
21.4266 9.426
21.4418 9.168
21.4569 9.331
21.4721 9.532
21.4873 9.565
21.5025 9.472
21.5176 9.200
21.5328 9.311
21.5480 9.426
21.5632 9.443
21.5783 9.398
21.5935 9.373
21.6087 9.213
21.6239 8.969
21.6390 9.059
21.6542 9.532
21.6694 9.383
21.6846 9.142
21.6997 9.148
21.7149 9.008
21.7301 9.172
21.7453 9.120
21.7604 9.080
21.7756 9.185
21.7908 9.009
21.8060 9.265
21.8211 9.283
21.8363 9.063
21.8515 8.945
21.8667 9.075
21.8818 9.161
21.8970 9.171
21.9122 8.875
21.9274 8.634
21.9425 8.699
21.9577 8.944
21.9729 9.065
21.9881 8.992
22.0032 8.983
22.0184 8.837
22.0336 8.843
22.0488 9.115
22.0639 8.876
22.0791 8.703
22.0943 8.489
22.1095 8.537
22.1246 8.761
22.1398 8.655
22.1550 8.667
22.1702 8.538
22.1853 8.634
22.2005 8.855
22.2157 8.821
22.2309 8.550
22.2460 8.530
22.2612 8.508
22.2764 8.713
22.2916 8.783
22.3067 8.715
22.3219 8.751
22.3371 8.744
22.3523 8.556
22.3674 8.491
22.3826 8.138
22.3978 8.429
22.4130 8.617
22.4281 8.283
22.4433 8.444
22.4585 8.262
22.4737 8.315
22.4888 8.053
22.5040 8.481
22.5192 8.554
22.5344 8.467
22.5495 8.457
22.5647 8.241
22.5799 8.323
22.5951 8.551
22.6102 8.482
22.6254 8.436
22.6406 8.391
22.6558 8.210
22.6709 8.477
22.6861 8.483
22.7013 8.145
22.7165 7.839
22.7316 6.429
