'Id: "" Comment: "" Operator: "Lab Manager" Anode: "Mo" Scantype: "Still (Eiger2R_500K (1D mode))" TimePerStep: "300" X: "11.8" Y: "9.4" Z: "11.284" 
7.2532 18.632
7.2684 19.154
7.2836 19.068
7.2987 18.819
7.3139 19.088
7.3291 19.585
7.3443 19.509
7.3594 19.139
7.3746 18.973
7.3898 19.532
7.4050 19.433
7.4201 19.608
7.4353 19.451
7.4505 19.295
7.4657 19.780
7.4808 19.879
7.4960 19.589
7.5112 19.675
7.5264 19.644
7.5415 19.659
7.5567 19.928
7.5719 20.187
7.5871 19.885
7.6022 20.267
7.6174 20.013
7.6326 20.485
7.6478 20.150
7.6629 20.273
7.6781 20.153
7.6933 20.365
7.7085 20.502
7.7236 20.247
7.7388 20.155
7.7540 20.362
7.7692 20.562
7.7843 20.780
7.7995 20.607
7.8147 20.648
7.8299 20.749
7.8450 20.768
7.8602 20.993
7.8754 20.946
7.8905 20.875
7.9057 20.997
7.9209 20.772
7.9361 21.111
7.9512 21.324
7.9664 21.177
7.9816 20.910
7.9968 20.766
8.0119 21.138
8.0271 21.276
8.0423 21.278
8.0575 21.503
8.0726 21.466
8.0878 21.595
8.1030 21.322
8.1182 21.305
8.1333 21.590
8.1485 21.870
8.1637 21.648
8.1789 21.543
8.1940 21.244
8.2092 21.625
8.2244 21.542
8.2396 21.759
8.2547 21.595
8.2699 21.813
8.2851 22.131
8.3003 21.942
8.3154 21.451
8.3306 21.670
8.3458 22.205
8.3610 21.536
8.3761 21.748
8.3913 21.945
8.4065 22.243
8.4217 22.349
8.4368 22.157
8.4520 21.874
8.4672 22.034
8.4824 21.598
8.4975 22.191
8.5127 22.292
8.5279 22.447
8.5431 22.118
8.5582 22.120
8.5734 22.259
8.5886 22.209
8.6038 23.028
8.6189 22.970
8.6341 22.233
8.6493 22.381
8.6645 21.940
8.6796 22.199
8.6948 22.565
8.7100 22.945
8.7252 22.454
8.7403 22.659
8.7555 22.310
8.7707 22.318
8.7859 22.470
8.8010 22.834
8.8162 22.692
8.8314 23.186
8.8466 22.924
8.8617 22.857
8.8769 22.944
8.8921 22.527
8.9073 22.675
8.9224 22.802
8.9376 22.801
8.9528 22.891
8.9680 22.999
8.9831 22.672
8.9983 22.559
9.0135 22.681
9.0287 22.791
9.0438 22.328
9.0590 22.494
9.0742 22.539
9.0894 22.907
9.1045 22.725
9.1197 22.510
9.1349 22.607
9.1501 22.683
9.1652 22.922
9.1804 23.195
9.1956 22.956
9.2108 22.847
9.2259 22.762
9.2411 22.758
9.2563 23.034
9.2715 22.693
9.2866 22.513
9.3018 22.939
9.3170 23.054
9.3322 22.829
9.3473 23.053
9.3625 23.134
9.3777 22.912
9.3929 23.042
9.4080 23.202
9.4232 23.205
9.4384 23.357
9.4536 23.373
9.4687 23.233
9.4839 23.528
9.4991 23.470
9.5143 23.354
9.5294 23.454
9.5446 23.323
9.5598 23.393
9.5750 23.574
9.5901 23.531
9.6053 23.550
9.6205 23.676
9.6357 23.778
9.6508 23.528
9.6660 23.606
9.6812 23.772
9.6964 23.587
9.7115 23.797
9.7267 24.008
9.7419 23.986
9.7571 24.101
9.7722 24.151
9.7874 23.993
9.8026 23.861
9.8178 23.742
9.8329 23.664
9.8481 23.848
9.8633 23.855
9.8785 23.812
9.8936 23.694
9.9088 23.646
9.9240 23.695
9.9392 23.540
9.9543 23.640
9.9695 23.988
9.9847 23.900
9.9999 23.656
10.0150 23.777
10.0302 23.913
10.0454 23.825
10.0606 23.876
10.0757 24.030
10.0909 23.983
10.1061 23.925
10.1213 24.175
10.1364 24.021
10.1516 23.968
10.1668 23.679
10.1820 23.631
10.1971 24.298
10.2123 24.610
10.2275 24.417
10.2427 24.322
10.2578 24.205
10.2730 23.758
10.2882 23.556
10.3034 23.828
10.3185 23.444
10.3337 23.294
10.3489 23.224
10.3641 22.932
10.3792 23.072
10.3944 23.150
10.4096 22.956
10.4248 23.001
10.4399 22.425
10.4551 22.846
10.4703 23.045
10.4855 22.546
10.5006 22.745
10.5158 22.795
10.5310 23.101
10.5462 22.582
10.5613 22.351
10.5765 22.641
10.5917 22.410
10.6069 22.925
10.6220 22.647
10.6372 22.428
10.6524 22.689
10.6676 22.704
10.6827 22.445
10.6979 22.723
10.7131 22.765
10.7283 22.636
10.7434 22.544
10.7586 22.481
10.7738 22.280
10.7890 22.159
10.8041 22.267
10.8193 22.298
10.8345 22.638
10.8497 22.442
10.8648 22.197
10.8800 22.345
10.8952 22.051
10.9104 22.333
10.9255 22.294
10.9407 22.007
10.9559 22.350
10.9711 22.226
10.9862 21.967
11.0014 21.805
11.0166 22.128
11.0318 22.669
11.0469 22.380
11.0621 22.463
11.0773 22.189
11.0925 22.253
11.1076 21.961
11.1228 21.792
11.1380 21.559
11.1532 21.544
11.1683 21.560
11.1835 22.029
11.1987 22.217
11.2139 22.007
11.2290 22.103
11.2442 22.108
11.2594 21.921
11.2746 21.722
11.2897 21.617
11.3049 21.839
11.3201 21.609
11.3353 21.462
11.3504 21.631
11.3656 21.660
11.3808 21.755
11.3960 21.677
11.4111 21.554
11.4263 21.100
11.4415 21.244
11.4567 21.338
11.4718 21.260
11.4870 21.257
11.5022 21.162
11.5174 21.292
11.5325 21.338
11.5477 21.140
11.5629 21.487
11.5781 21.522
11.5932 21.197
11.6084 20.591
11.6236 20.584
11.6388 20.832
11.6539 20.697
11.6691 20.465
11.6843 20.508
11.6995 20.444
11.7146 20.617
11.7298 20.311
11.7450 19.818
11.7602 19.894
11.7753 20.037
11.7905 20.256
11.8057 20.317
11.8209 19.883
11.8360 19.822
11.8512 19.891
11.8664 19.878
11.8816 19.933
11.8967 19.923
11.9119 19.608
11.9271 19.677
11.9423 19.420
11.9574 19.309
11.9726 19.411
11.9878 18.994
12.0030 19.137
12.0181 19.217
12.0333 19.004
12.0485 19.123
12.0637 18.719
12.0788 18.606
12.0940 18.499
12.1092 18.663
12.1244 18.801
12.1395 18.713
12.1547 18.736
12.1699 18.700
12.1851 18.377
12.2002 18.093
12.2154 18.218
12.2306 17.878
12.2458 17.895
12.2609 17.846
12.2761 17.903
12.2913 17.912
12.3065 17.870
12.3216 17.607
12.3368 17.472
12.3520 17.263
12.3672 17.091
12.3823 17.260
12.3975 17.455
12.4127 17.371
12.4279 17.384
12.4430 17.165
12.4582 17.001
12.4734 17.039
12.4886 16.866
12.5037 17.021
12.5189 17.004
12.5341 16.674
12.5493 16.549
12.5644 16.454
12.5796 16.116
12.5948 15.790
12.6100 16.172
12.6251 16.373
12.6403 16.143
12.6555 15.648
12.6707 15.459
12.6858 15.752
12.7010 15.876
12.7162 15.624
12.7314 15.691
12.7465 15.892
12.7617 15.271
12.7769 14.947
12.7921 15.179
12.8072 15.089
12.8224 14.932
12.8376 14.844
12.8528 14.721
12.8679 14.841
12.8831 14.796
12.8983 14.673
12.9135 14.609
12.9286 14.477
12.9438 14.451
12.9590 14.596
12.9742 14.452
12.9893 14.309
13.0045 14.440
13.0197 14.250
13.0349 14.115
13.0500 14.155
13.0652 14.128
13.0804 13.976
13.0956 13.914
13.1107 13.762
13.1259 13.418
13.1411 13.530
13.1563 13.581
13.1714 13.571
13.1866 13.442
13.2018 13.471
13.2170 13.683
13.2321 13.589
13.2473 13.494
13.2625 13.450
13.2777 13.394
13.2928 13.102
13.3080 12.967
13.3232 13.028
13.3384 13.114
13.3535 12.973
13.3687 12.879
13.3839 12.944
13.3991 12.845
13.4142 12.649
13.4294 12.795
13.4446 12.679
13.4598 12.461
13.4749 12.820
13.4901 12.857
13.5053 12.629
13.5205 12.557
13.5356 12.636
13.5508 12.543
13.5660 12.224
13.5812 12.349
13.5963 12.584
13.6115 12.473
13.6267 12.290
13.6419 12.245
13.6570 11.949
13.6722 11.845
13.6874 11.960
13.7026 12.141
13.7177 12.135
13.7329 12.202
13.7481 12.102
13.7633 11.965
13.7784 12.013
13.7936 12.314
13.8088 12.500
13.8239 12.345
13.8391 12.363
13.8543 12.105
13.8695 12.343
13.8846 12.496
13.8998 12.494
13.9150 12.097
13.9302 11.973
13.9453 11.884
13.9605 11.756
13.9757 11.710
13.9909 11.561
14.0060 11.640
14.0212 11.564
14.0364 11.369
14.0516 11.452
14.0667 11.439
14.0819 11.330
14.0971 11.384
14.1123 11.408
14.1274 11.403
14.1426 11.615
14.1578 11.519
14.1730 11.505
14.1881 11.462
14.2033 11.487
14.2185 11.423
14.2337 11.720
14.2488 11.744
14.2640 11.825
14.2792 11.659
14.2944 11.870
14.3095 11.827
14.3247 12.146
14.3399 12.234
14.3551 12.699
14.3702 12.686
14.3854 12.647
14.4006 12.835
14.4158 13.046
14.4309 13.291
14.4461 12.999
14.4613 13.232
14.4765 13.493
14.4916 13.422
14.5068 12.947
14.5220 12.783
14.5372 13.023
14.5523 12.708
14.5675 12.328
14.5827 12.534
14.5979 12.274
14.6130 12.394
14.6282 12.021
14.6434 11.831
14.6586 11.468
14.6737 11.685
14.6889 11.413
14.7041 11.409
14.7193 11.528
14.7344 11.505
14.7496 11.386
14.7648 11.391
14.7800 11.048
14.7951 10.717
14.8103 10.857
14.8255 11.079
14.8407 10.609
14.8558 10.905
14.8710 11.011
14.8862 10.875
14.9014 10.811
14.9165 10.784
14.9317 11.043
14.9469 10.812
14.9621 10.552
14.9772 10.322
14.9924 10.846
15.0076 10.543
15.0228 10.598
15.0379 10.493
15.0531 10.501
15.0683 10.719
15.0835 10.303
15.0986 10.466
15.1138 10.363
15.1290 10.849
15.1442 10.561
15.1593 10.504
15.1745 10.353
15.1897 10.261
15.2049 10.472
15.2200 10.217
15.2352 10.216
15.2504 10.249
15.2656 10.401
15.2807 10.782
15.2959 10.499
15.3111 10.454
15.3263 10.261
15.3414 10.345
15.3566 10.428
15.3718 10.472
15.3870 10.555
15.4021 10.605
15.4173 10.559
15.4325 10.650
15.4477 10.636
15.4628 10.241
15.4780 10.307
15.4932 10.337
15.5084 10.498
15.5235 10.854
15.5387 10.439
15.5539 10.638
15.5691 10.266
15.5842 9.871
15.5994 10.479
15.6146 10.118
15.6298 10.112
15.6449 9.904
15.6601 10.127
15.6753 10.068
15.6905 9.916
15.7056 10.004
15.7208 10.319
15.7360 10.022
15.7512 9.957
15.7663 9.600
15.7815 9.901
15.7967 9.850
15.8119 10.093
15.8270 9.549
15.8422 10.021
15.8574 10.378
15.8726 9.984
15.8877 9.653
15.9029 9.678
15.9181 9.634
15.9333 9.859
15.9484 9.758
15.9636 9.768
15.9788 9.780
15.9940 9.719
16.0091 9.708
16.0243 9.740
16.0395 9.801
16.0547 9.432
16.0698 9.776
16.0850 9.769
16.1002 9.542
16.1154 9.754
16.1305 9.855
16.1457 9.564
16.1609 9.521
16.1761 9.839
16.1912 9.685
16.2064 9.813
16.2216 9.708
16.2368 9.722
16.2519 9.835
16.2671 9.962
16.2823 9.816
16.2975 10.053
16.3126 9.831
16.3278 9.809
16.3430 10.110
16.3582 9.905
16.3733 10.037
16.3885 10.329
16.4037 10.411
16.4189 10.499
16.4340 10.437
16.4492 10.105
16.4644 10.124
16.4796 9.901
16.4947 10.068
16.5099 10.057
16.5251 9.766
16.5403 9.801
16.5554 9.850
16.5706 9.706
16.5858 9.729
16.6010 9.678
16.6161 9.775
16.6313 9.865
16.6465 9.984
16.6617 9.908
16.6768 9.925
16.6920 10.249
16.7072 10.139
16.7224 9.902
16.7375 10.027
16.7527 10.042
16.7679 9.957
16.7831 10.008
16.7982 10.032
16.8134 10.060
16.8286 9.803
16.8438 9.795
16.8589 9.796
16.8741 9.605
16.8893 9.654
16.9045 9.706
16.9196 9.772
16.9348 9.707
16.9500 9.657
16.9652 9.867
16.9803 9.978
16.9955 9.854
17.0107 9.843
17.0259 10.036
17.0410 10.323
17.0562 10.139
17.0714 10.069
17.0866 10.131
17.1017 10.388
17.1169 10.567
17.1321 10.559
17.1473 11.105
17.1624 11.610
17.1776 12.132
17.1928 12.964
17.2080 13.839
17.2231 15.078
17.2383 16.596
17.2535 17.517
17.2687 17.979
17.2838 18.426
17.2990 17.963
17.3142 16.809
17.3294 16.139
17.3445 15.927
17.3597 15.965
17.3749 16.008
17.3901 15.083
17.4052 13.950
17.4204 13.070
17.4356 12.426
17.4508 12.053
17.4659 11.332
17.4811 11.146
17.4963 11.310
17.5115 10.961
17.5266 10.843
17.5418 11.038
17.5570 10.960
17.5722 11.127
17.5873 11.228
17.6025 11.140
17.6177 11.073
17.6329 10.875
17.6480 10.824
17.6632 10.883
17.6784 10.873
17.6936 10.862
17.7087 10.771
17.7239 10.664
17.7391 10.706
17.7543 10.818
17.7694 10.937
17.7846 10.977
17.7998 11.282
17.8150 11.467
17.8301 11.579
17.8453 11.656
17.8605 11.537
17.8757 11.527
17.8908 11.672
17.9060 11.612
17.9212 11.429
17.9364 11.165
17.9515 10.959
17.9667 11.028
17.9819 10.975
17.9971 10.918
18.0122 10.674
18.0274 10.472
18.0426 10.267
18.0578 10.247
18.0729 10.607
18.0881 10.557
18.1033 10.219
18.1185 9.945
18.1336 9.925
18.1488 9.993
18.1640 10.091
18.1792 10.076
18.1943 9.984
18.2095 10.032
18.2247 10.099
18.2399 10.023
18.2550 9.780
18.2702 9.750
18.2854 10.147
18.3006 10.091
18.3157 9.842
18.3309 9.864
18.3461 9.770
18.3613 9.857
18.3764 9.957
18.3916 9.801
18.4068 9.781
18.4220 9.757
18.4371 9.911
18.4523 9.983
18.4675 9.718
18.4827 9.747
18.4978 9.748
18.5130 9.963
18.5282 9.930
18.5434 9.900
18.5585 9.817
18.5737 9.829
18.5889 9.798
18.6041 9.936
18.6192 9.905
18.6344 9.818
18.6496 9.756
18.6648 9.915
18.6799 9.960
18.6951 9.565
18.7103 9.740
18.7255 9.935
18.7406 9.943
18.7558 9.916
18.7710 9.800
18.7862 9.782
18.8013 9.918
18.8165 9.750
18.8317 9.845
18.8469 10.158
18.8620 10.050
18.8772 9.885
18.8924 9.927
18.9076 9.951
18.9227 9.890
18.9379 9.794
18.9531 9.641
18.9683 9.911
18.9834 10.144
18.9986 10.124
19.0138 10.016
19.0290 10.140
19.0441 10.158
19.0593 10.211
19.0745 10.195
19.0897 9.945
19.1048 10.011
19.1200 10.433
19.1352 10.623
19.1504 10.546
19.1655 10.601
19.1807 10.581
19.1959 10.743
19.2111 10.722
19.2262 10.794
19.2414 10.815
19.2566 10.784
19.2718 11.088
19.2869 11.163
19.3021 10.930
19.3173 10.944
19.3325 11.122
19.3476 11.157
19.3628 11.190
19.3780 11.285
19.3932 11.222
19.4083 11.131
19.4235 11.142
19.4387 11.354
19.4539 11.414
19.4690 11.358
19.4842 11.342
19.4994 11.487
19.5146 11.602
19.5297 11.622
19.5449 11.796
19.5601 11.600
19.5753 11.499
19.5904 11.703
19.6056 11.381
19.6208 11.287
19.6360 11.631
19.6511 11.577
19.6663 11.443
19.6815 11.615
19.6967 11.560
19.7118 11.669
19.7270 11.736
19.7422 11.484
19.7574 11.563
19.7725 11.834
19.7877 11.854
19.8029 11.886
19.8180 11.961
19.8332 11.949
19.8484 12.077
19.8636 12.214
19.8787 12.291
19.8939 12.529
19.9091 12.928
19.9243 13.213
19.9394 13.614
19.9546 13.820
19.9698 14.153
19.9850 14.537
20.0001 14.266
20.0153 14.258
20.0305 14.068
20.0457 13.804
20.0608 13.834
20.0760 13.817
20.0912 13.804
20.1064 13.476
20.1215 13.171
20.1367 12.968
20.1519 12.877
20.1671 12.662
20.1822 12.796
20.1974 12.794
20.2126 12.742
20.2278 12.690
20.2429 12.551
20.2581 12.270
20.2733 11.925
20.2885 11.818
20.3036 11.728
20.3188 11.743
20.3340 11.802
20.3492 11.944
20.3643 11.824
20.3795 11.616
20.3947 11.261
20.4099 11.230
20.4250 11.141
20.4402 11.133
20.4554 11.142
20.4706 11.106
20.4857 10.778
20.5009 10.793
20.5161 10.711
20.5313 10.712
20.5464 10.943
20.5616 10.925
20.5768 10.983
20.5920 10.701
20.6071 10.563
20.6223 10.677
20.6375 11.067
20.6527 10.734
20.6678 10.865
20.6830 10.830
20.6982 10.884
20.7134 10.777
20.7285 10.726
20.7437 10.790
20.7589 10.724
20.7741 10.737
20.7892 10.583
20.8044 10.641
20.8196 10.406
20.8348 10.529
20.8499 10.727
20.8651 10.534
20.8803 10.674
20.8955 10.584
20.9106 10.196
20.9258 10.434
20.9410 10.518
20.9562 10.581
20.9713 10.417
20.9865 10.351
21.0017 10.375
21.0169 10.318
21.0320 10.137
21.0472 10.098
21.0624 10.433
21.0776 9.989
21.0927 9.990
21.1079 9.980
21.1231 10.098
21.1383 10.418
21.1534 9.917
21.1686 10.218
21.1838 9.665
21.1990 10.060
21.2141 9.602
21.2293 9.565
21.2445 9.676
21.2597 9.692
21.2748 9.738
21.2900 9.511
21.3052 9.484
21.3204 9.274
21.3355 9.623
21.3507 9.384
21.3659 9.628
21.3811 9.482
21.3962 9.429
21.4114 9.204
21.4266 9.642
21.4418 9.440
21.4569 9.321
21.4721 9.479
21.4873 9.664
21.5025 9.429
21.5176 9.268
21.5328 9.299
21.5480 9.096
21.5632 9.259
21.5783 9.136
21.5935 9.018
21.6087 9.151
21.6239 9.301
21.6390 9.025
21.6542 8.938
21.6694 9.066
21.6846 8.990
21.6997 9.067
21.7149 9.024
21.7301 9.116
21.7453 8.978
21.7604 8.932
21.7756 8.808
21.7908 8.934
21.8060 8.911
21.8211 8.842
21.8363 9.012
21.8515 9.227
21.8667 9.234
21.8818 9.089
21.8970 8.986
21.9122 9.058
21.9274 8.923
21.9425 9.043
21.9577 8.964
21.9729 8.928
21.9881 8.984
22.0032 8.902
22.0184 8.741
22.0336 8.784
22.0488 8.811
22.0639 8.854
22.0791 8.883
22.0943 8.673
22.1095 8.683
22.1246 8.734
22.1398 8.776
22.1550 8.809
22.1702 8.752
22.1853 8.598
22.2005 8.724
22.2157 8.824
22.2309 8.837
22.2460 8.694
22.2612 8.612
22.2764 8.598
22.2916 8.460
22.3067 8.452
22.3219 8.515
22.3371 8.353
22.3523 8.359
22.3674 8.499
22.3826 8.436
22.3978 8.381
22.4130 8.341
22.4281 8.554
22.4433 8.392
22.4585 8.446
22.4737 8.279
22.4888 8.562
22.5040 8.323
22.5192 8.698
22.5344 8.244
22.5495 8.479
22.5647 8.268
22.5799 8.416
22.5951 8.368
22.6102 8.264
22.6254 8.344
22.6406 8.480
22.6558 8.126
22.6709 8.489
22.6861 8.494
22.7013 8.239
22.7165 7.919
22.7316 6.649
