'Id: "" Comment: "" Operator: "Lab Manager" Anode: "Mo" Scantype: "Still (Eiger2R_500K (1D mode))" TimePerStep: "300" X: "11.8" Y: "9.4" Z: "11.284" 
7.2532 19.134
7.2684 18.744
7.2836 18.851
7.2987 18.936
7.3139 18.661
7.3291 19.144
7.3443 19.283
7.3594 19.145
7.3746 19.244
7.3898 19.727
7.4050 19.129
7.4201 19.606
7.4353 19.828
7.4505 19.489
7.4657 19.652
7.4808 19.745
7.4960 19.673
7.5112 19.979
7.5264 19.599
7.5415 19.858
7.5567 19.817
7.5719 19.936
7.5871 20.161
7.6022 20.198
7.6174 19.989
7.6326 20.021
7.6478 19.902
7.6629 19.925
7.6781 20.068
7.6933 20.509
7.7085 20.592
7.7236 20.415
7.7388 20.309
7.7540 20.024
7.7692 20.171
7.7843 20.459
7.7995 20.238
7.8147 20.600
7.8299 20.608
7.8450 20.557
7.8602 20.986
7.8754 21.266
7.8905 20.865
7.9057 20.683
7.9209 20.650
7.9361 21.061
7.9512 21.371
7.9664 21.110
7.9816 21.048
7.9968 21.431
8.0119 21.139
8.0271 21.366
8.0423 21.432
8.0575 21.461
8.0726 21.469
8.0878 21.214
8.1030 21.474
8.1182 21.619
8.1333 21.325
8.1485 21.524
8.1637 21.664
8.1789 21.273
8.1940 21.534
8.2092 21.647
8.2244 21.709
8.2396 22.039
8.2547 21.727
8.2699 21.644
8.2851 22.373
8.3003 21.571
8.3154 21.445
8.3306 21.581
8.3458 21.711
8.3610 21.922
8.3761 21.628
8.3913 22.059
8.4065 22.180
8.4217 21.969
8.4368 21.888
8.4520 21.759
8.4672 22.075
8.4824 21.860
8.4975 21.975
8.5127 21.614
8.5279 22.363
8.5431 22.310
8.5582 22.350
8.5734 22.451
8.5886 22.289
8.6038 22.510
8.6189 22.379
8.6341 22.068
8.6493 22.386
8.6645 21.977
8.6796 22.369
8.6948 22.384
8.7100 22.306
8.7252 22.311
8.7403 22.155
8.7555 22.556
8.7707 22.310
8.7859 22.146
8.8010 22.599
8.8162 22.703
8.8314 22.762
8.8466 22.590
8.8617 22.541
8.8769 22.626
8.8921 22.638
8.9073 22.815
8.9224 22.732
8.9376 22.835
8.9528 22.933
8.9680 22.923
8.9831 22.491
8.9983 22.661
9.0135 22.937
9.0287 22.845
9.0438 22.979
9.0590 23.108
9.0742 23.140
9.0894 22.989
9.1045 22.620
9.1197 22.802
9.1349 22.802
9.1501 22.683
9.1652 22.686
9.1804 23.087
9.1956 22.915
9.2108 22.844
9.2259 22.968
9.2411 22.615
9.2563 22.637
9.2715 22.648
9.2866 22.763
9.3018 22.834
9.3170 23.159
9.3322 23.388
9.3473 23.041
9.3625 23.127
9.3777 23.138
9.3929 23.089
9.4080 23.318
9.4232 23.108
9.4384 22.931
9.4536 23.073
9.4687 23.143
9.4839 23.094
9.4991 23.146
9.5143 23.507
9.5294 23.324
9.5446 23.366
9.5598 23.286
9.5750 23.307
9.5901 23.312
9.6053 23.195
9.6205 23.440
9.6357 23.667
9.6508 23.425
9.6660 23.467
9.6812 23.635
9.6964 23.824
9.7115 24.048
9.7267 23.924
9.7419 24.117
9.7571 24.380
9.7722 24.086
9.7874 23.976
9.8026 23.824
9.8178 23.606
9.8329 23.389
9.8481 23.341
9.8633 23.493
9.8785 23.914
9.8936 23.990
9.9088 23.727
9.9240 23.899
9.9392 23.663
9.9543 23.623
9.9695 23.687
9.9847 23.437
9.9999 23.528
10.0150 23.448
10.0302 23.189
10.0454 23.133
10.0606 23.319
10.0757 23.403
10.0909 23.385
10.1061 23.288
10.1213 23.386
10.1364 23.263
10.1516 23.286
10.1668 23.244
10.1820 23.232
10.1971 23.487
10.2123 23.425
10.2275 23.056
10.2427 23.138
10.2578 23.158
10.2730 22.815
10.2882 22.787
10.3034 22.848
10.3185 22.699
10.3337 22.893
10.3489 22.774
10.3641 22.812
10.3792 22.658
10.3944 23.044
10.4096 23.052
10.4248 23.079
10.4399 22.868
10.4551 22.822
10.4703 23.080
10.4855 23.198
10.5006 22.857
10.5158 22.044
10.5310 22.406
10.5462 22.726
10.5613 22.609
10.5765 22.834
10.5917 22.619
10.6069 22.498
10.6220 22.545
10.6372 22.840
10.6524 22.646
10.6676 22.721
10.6827 22.717
10.6979 22.399
10.7131 22.566
10.7283 22.437
10.7434 22.219
10.7586 22.067
10.7738 22.407
10.7890 22.475
10.8041 22.455
10.8193 22.442
10.8345 22.346
10.8497 22.429
10.8648 22.368
10.8800 22.886
10.8952 22.570
10.9104 22.028
10.9255 22.331
10.9407 22.275
10.9559 22.137
10.9711 22.332
10.9862 22.256
11.0014 22.156
11.0166 22.049
11.0318 22.085
11.0469 22.006
11.0621 21.981
11.0773 21.988
11.0925 21.618
11.1076 21.704
11.1228 22.074
11.1380 22.116
11.1532 22.125
11.1683 21.918
11.1835 21.641
11.1987 21.651
11.2139 21.623
11.2290 22.004
11.2442 22.010
11.2594 21.820
11.2746 21.685
11.2897 21.551
11.3049 21.360
11.3201 21.627
11.3353 21.272
11.3504 21.787
11.3656 21.803
11.3808 21.800
11.3960 21.346
11.4111 21.148
11.4263 21.386
11.4415 21.233
11.4567 21.279
11.4718 21.611
11.4870 21.566
11.5022 21.078
11.5174 21.121
11.5325 21.152
11.5477 20.984
11.5629 20.747
11.5781 20.963
11.5932 21.189
11.6084 20.957
11.6236 20.873
11.6388 20.999
11.6539 20.663
11.6691 20.676
11.6843 20.536
11.6995 20.763
11.7146 20.475
11.7298 20.414
11.7450 20.196
11.7602 20.262
11.7753 20.293
11.7905 20.295
11.8057 20.337
11.8209 19.908
11.8360 19.965
11.8512 20.229
11.8664 20.069
11.8816 20.297
11.8967 19.924
11.9119 19.941
11.9271 20.004
11.9423 19.869
11.9574 19.707
11.9726 19.576
11.9878 19.690
12.0030 19.499
12.0181 19.274
12.0333 19.262
12.0485 19.155
12.0637 19.297
12.0788 19.210
12.0940 18.798
12.1092 18.565
12.1244 18.652
12.1395 18.498
12.1547 18.670
12.1699 18.752
12.1851 18.433
12.2002 18.158
12.2154 18.135
12.2306 17.784
12.2458 17.922
12.2609 17.992
12.2761 17.791
12.2913 17.551
12.3065 17.847
12.3216 17.681
12.3368 17.414
12.3520 17.478
12.3672 17.385
12.3823 17.423
12.3975 17.476
12.4127 17.107
12.4279 17.031
12.4430 16.996
12.4582 16.803
12.4734 16.789
12.4886 16.888
12.5037 16.665
12.5189 16.272
12.5341 16.285
12.5493 16.221
12.5644 16.326
12.5796 16.500
12.5948 16.212
12.6100 15.981
12.6251 16.003
12.6403 16.156
12.6555 16.020
12.6707 15.964
12.6858 15.823
12.7010 15.676
12.7162 15.780
12.7314 15.686
12.7465 15.486
12.7617 15.308
12.7769 15.085
12.7921 15.054
12.8072 15.151
12.8224 15.050
12.8376 14.956
12.8528 15.009
12.8679 15.160
12.8831 14.892
12.8983 14.799
12.9135 14.791
12.9286 14.465
12.9438 14.545
12.9590 14.740
12.9742 14.468
12.9893 14.418
13.0045 14.356
13.0197 14.280
13.0349 14.262
13.0500 14.064
13.0652 13.959
13.0804 13.912
13.0956 14.045
13.1107 14.000
13.1259 13.803
13.1411 13.849
13.1563 13.866
13.1714 13.753
13.1866 13.523
13.2018 13.523
13.2170 13.660
13.2321 13.653
13.2473 13.551
13.2625 13.590
13.2777 13.497
13.2928 13.172
13.3080 13.325
13.3232 13.406
13.3384 13.161
13.3535 13.127
13.3687 13.223
13.3839 13.151
13.3991 13.182
13.4142 13.098
13.4294 12.863
13.4446 12.667
13.4598 12.819
13.4749 13.013
13.4901 12.940
13.5053 12.840
13.5205 12.619
13.5356 12.497
13.5508 12.445
13.5660 12.453
13.5812 12.412
13.5963 12.403
13.6115 12.520
13.6267 12.574
13.6419 12.240
13.6570 12.180
13.6722 12.276
13.6874 12.263
13.7026 12.312
13.7177 12.202
13.7329 12.206
13.7481 12.256
13.7633 12.180
13.7784 12.160
13.7936 12.141
13.8088 12.132
13.8239 11.998
13.8391 12.308
13.8543 12.479
13.8695 12.319
13.8846 12.340
13.8998 12.078
13.9150 12.205
13.9302 12.271
13.9453 12.181
13.9605 11.946
13.9757 11.793
13.9909 11.806
14.0060 11.816
14.0212 11.644
14.0364 11.479
14.0516 11.196
14.0667 11.209
14.0819 11.268
14.0971 11.673
14.1123 11.382
14.1274 11.433
14.1426 11.608
14.1578 11.611
14.1730 11.347
14.1881 11.491
14.2033 11.257
14.2185 11.279
14.2337 11.526
14.2488 11.526
14.2640 11.746
14.2792 11.684
14.2944 11.792
14.3095 11.879
14.3247 11.763
14.3399 12.101
14.3551 12.253
14.3702 12.866
14.3854 12.508
14.4006 12.936
14.4158 13.547
14.4309 13.325
14.4461 12.739
14.4613 12.883
14.4765 12.808
14.4916 12.391
14.5068 12.129
14.5220 11.734
14.5372 11.761
14.5523 11.647
14.5675 11.370
14.5827 10.847
14.5979 11.049
14.6130 11.321
14.6282 11.087
14.6434 10.876
14.6586 10.815
14.6737 11.041
14.6889 11.104
14.7041 11.153
14.7193 10.940
14.7344 11.217
14.7496 10.760
14.7648 10.636
14.7800 10.731
14.7951 10.741
14.8103 10.892
14.8255 10.660
14.8407 10.788
14.8558 10.488
14.8710 10.869
14.8862 10.601
14.9014 10.762
14.9165 10.865
14.9317 10.734
14.9469 10.433
14.9621 10.775
14.9772 10.379
14.9924 10.516
15.0076 10.845
15.0228 10.574
15.0379 10.394
15.0531 10.286
15.0683 10.298
15.0835 10.177
15.0986 10.166
15.1138 10.633
15.1290 10.316
15.1442 10.442
15.1593 10.467
15.1745 10.400
15.1897 10.220
15.2049 10.346
15.2200 10.636
15.2352 10.366
15.2504 10.478
15.2656 10.281
15.2807 10.178
15.2959 10.135
15.3111 10.313
15.3263 10.241
15.3414 10.428
15.3566 10.086
15.3718 10.204
15.3870 9.963
15.4021 10.266
15.4173 10.321
15.4325 10.635
15.4477 10.495
15.4628 10.383
15.4780 10.273
15.4932 10.162
15.5084 10.359
15.5235 10.391
15.5387 10.159
15.5539 10.081
15.5691 10.553
15.5842 10.262
15.5994 10.064
15.6146 10.321
15.6298 10.256
15.6449 9.951
15.6601 9.914
15.6753 9.747
15.6905 10.080
15.7056 9.974
15.7208 9.963
15.7360 10.032
15.7512 9.939
15.7663 9.936
15.7815 9.669
15.7967 9.903
15.8119 9.717
15.8270 9.728
15.8422 10.044
15.8574 9.723
15.8726 9.613
15.8877 9.779
15.9029 9.930
15.9181 9.569
15.9333 9.765
15.9484 9.795
15.9636 9.675
15.9788 9.761
15.9940 9.728
16.0091 9.717
16.0243 9.546
16.0395 9.461
16.0547 9.799
16.0698 9.898
16.0850 9.829
16.1002 9.801
16.1154 10.004
16.1305 9.778
16.1457 9.594
16.1609 9.640
16.1761 9.554
16.1912 9.659
16.2064 9.668
16.2216 9.682
16.2368 9.725
16.2519 9.846
16.2671 9.923
16.2823 10.061
16.2975 10.009
16.3126 10.004
16.3278 10.044
16.3430 9.938
16.3582 10.032
16.3733 9.720
16.3885 10.097
16.4037 10.199
16.4189 10.080
16.4340 9.895
16.4492 9.836
16.4644 9.906
16.4796 9.926
16.4947 9.945
16.5099 9.850
16.5251 9.858
16.5403 9.962
16.5554 9.659
16.5706 9.718
16.5858 9.841
16.6010 9.677
16.6161 9.624
16.6313 9.843
16.6465 9.565
16.6617 9.695
16.6768 10.261
16.6920 10.304
16.7072 10.052
16.7224 10.063
16.7375 10.140
16.7527 10.145
16.7679 10.136
16.7831 10.016
16.7982 9.926
16.8134 10.013
16.8286 10.010
16.8438 9.680
16.8589 9.903
16.8741 9.905
16.8893 9.772
16.9045 9.879
16.9196 9.804
16.9348 9.809
16.9500 9.821
16.9652 9.813
16.9803 10.040
16.9955 10.066
17.0107 9.987
17.0259 9.953
17.0410 10.052
17.0562 10.283
17.0714 10.252
17.0866 10.359
17.1017 10.628
17.1169 11.108
17.1321 11.291
17.1473 11.395
17.1624 11.938
17.1776 12.485
17.1928 13.191
17.2080 14.131
17.2231 15.301
17.2383 16.596
17.2535 17.888
17.2687 18.834
17.2838 18.884
17.2990 18.076
17.3142 17.181
17.3294 16.531
17.3445 16.118
17.3597 16.140
17.3749 16.007
17.3901 15.431
17.4052 14.541
17.4204 13.208
17.4356 12.129
17.4508 11.797
17.4659 11.604
17.4811 11.335
17.4963 11.219
17.5115 11.036
17.5266 10.763
17.5418 10.678
17.5570 10.662
17.5722 10.474
17.5873 10.307
17.6025 10.583
17.6177 10.683
17.6329 10.512
17.6480 10.691
17.6632 10.988
17.6784 11.178
17.6936 11.246
17.7087 11.187
17.7239 10.883
17.7391 10.966
17.7543 11.108
17.7694 10.991
17.7846 10.938
17.7998 10.865
17.8150 10.950
17.8301 11.119
17.8453 11.024
17.8605 10.707
17.8757 10.684
17.8908 10.644
17.9060 10.614
17.9212 10.699
17.9364 10.566
17.9515 10.473
17.9667 10.451
17.9819 10.615
17.9971 10.458
18.0122 10.329
18.0274 10.478
18.0426 10.434
18.0578 10.169
18.0729 10.153
18.0881 9.964
18.1033 10.000
18.1185 10.110
18.1336 9.896
18.1488 9.789
18.1640 9.705
18.1792 9.840
18.1943 10.170
18.2095 9.855
18.2247 9.949
18.2399 9.959
18.2550 9.852
18.2702 9.866
18.2854 9.759
18.3006 9.808
18.3157 9.942
18.3309 10.084
18.3461 9.917
18.3613 9.714
18.3764 9.766
18.3916 9.815
18.4068 9.918
18.4220 10.003
18.4371 9.892
18.4523 9.920
18.4675 10.094
18.4827 9.886
18.4978 9.920
18.5130 9.887
18.5282 9.825
18.5434 9.792
18.5585 9.852
18.5737 9.749
18.5889 9.827
18.6041 9.743
18.6192 9.671
18.6344 9.611
18.6496 9.822
18.6648 9.738
18.6799 9.647
18.6951 9.823
18.7103 9.744
18.7255 9.786
18.7406 9.971
18.7558 9.830
18.7710 9.780
18.7862 9.969
18.8013 9.751
18.8165 9.617
18.8317 9.766
18.8469 9.733
18.8620 9.768
18.8772 9.941
18.8924 9.993
18.9076 10.061
18.9227 9.929
18.9379 9.724
18.9531 9.852
18.9683 10.030
18.9834 10.104
18.9986 10.193
19.0138 10.263
19.0290 10.100
19.0441 10.142
19.0593 10.158
19.0745 10.117
19.0897 10.287
19.1048 10.522
19.1200 10.419
19.1352 10.392
19.1504 10.528
19.1655 10.591
19.1807 10.531
19.1959 10.582
19.2111 10.834
19.2262 10.625
19.2414 10.485
19.2566 10.529
19.2718 10.567
19.2869 10.788
19.3021 10.938
19.3173 11.004
19.3325 10.956
19.3476 10.941
19.3628 10.941
19.3780 11.080
19.3932 11.448
19.4083 11.552
19.4235 11.247
19.4387 11.226
19.4539 11.328
19.4690 11.599
19.4842 11.626
19.4994 11.486
19.5146 11.351
19.5297 11.286
19.5449 11.430
19.5601 11.236
19.5753 11.155
19.5904 11.494
19.6056 11.751
19.6208 11.606
19.6360 11.720
19.6511 11.761
19.6663 11.707
19.6815 11.558
19.6967 11.537
19.7118 11.685
19.7270 11.671
19.7422 11.746
19.7574 11.628
19.7725 11.603
19.7877 11.757
19.8029 11.856
19.8180 11.896
19.8332 11.943
19.8484 12.108
19.8636 12.204
19.8787 12.314
19.8939 12.936
19.9091 13.142
19.9243 13.462
19.9394 13.753
19.9546 13.876
19.9698 14.357
19.9850 14.605
20.0001 14.424
20.0153 14.220
20.0305 14.132
20.0457 13.839
20.0608 13.743
20.0760 13.961
20.0912 13.969
20.1064 13.753
20.1215 13.482
20.1367 13.100
20.1519 13.009
20.1671 12.880
20.1822 12.636
20.1974 12.616
20.2126 12.509
20.2278 12.455
20.2429 12.531
20.2581 12.107
20.2733 11.871
20.2885 11.816
20.3036 11.583
20.3188 11.797
20.3340 11.837
20.3492 11.799
20.3643 11.738
20.3795 11.512
20.3947 11.161
20.4099 11.147
20.4250 11.393
20.4402 11.310
20.4554 11.252
20.4706 11.343
20.4857 11.271
20.5009 11.060
20.5161 11.318
20.5313 11.219
20.5464 10.971
20.5616 11.024
20.5768 10.896
20.5920 10.873
20.6071 11.088
20.6223 10.867
20.6375 10.509
20.6527 10.588
20.6678 10.886
20.6830 10.629
20.6982 10.426
20.7134 10.460
20.7285 10.409
20.7437 10.414
20.7589 10.247
20.7741 10.244
20.7892 10.327
20.8044 10.264
20.8196 10.441
20.8348 10.454
20.8499 10.268
20.8651 10.254
20.8803 10.527
20.8955 10.383
20.9106 10.298
20.9258 10.341
20.9410 10.028
20.9562 10.714
20.9713 10.412
20.9865 10.246
21.0017 10.306
21.0169 10.297
21.0320 10.015
21.0472 10.209
21.0624 10.180
21.0776 10.219
21.0927 10.202
21.1079 9.923
21.1231 10.071
21.1383 10.014
21.1534 9.699
21.1686 9.965
21.1838 9.744
21.1990 9.833
21.2141 9.980
21.2293 9.863
21.2445 9.449
21.2597 9.507
21.2748 9.660
21.2900 9.593
21.3052 9.519
21.3204 9.855
21.3355 9.523
21.3507 9.643
21.3659 9.350
21.3811 9.438
21.3962 9.358
21.4114 9.644
21.4266 9.227
21.4418 9.559
21.4569 9.598
21.4721 9.534
21.4873 9.468
21.5025 9.269
21.5176 9.173
21.5328 9.073
21.5480 9.215
21.5632 9.315
21.5783 9.500
21.5935 9.671
21.6087 9.381
21.6239 9.229
21.6390 9.346
21.6542 9.334
21.6694 9.495
21.6846 9.489
21.6997 9.203
21.7149 8.982
21.7301 9.106
21.7453 9.010
21.7604 8.954
21.7756 8.874
21.7908 9.134
21.8060 9.314
21.8211 9.225
21.8363 9.115
21.8515 9.199
21.8667 9.079
21.8818 8.982
21.8970 8.965
21.9122 9.038
21.9274 9.080
21.9425 9.127
21.9577 9.018
21.9729 8.872
21.9881 8.831
22.0032 8.871
22.0184 9.016
22.0336 9.016
22.0488 8.817
22.0639 8.821
22.0791 8.833
22.0943 8.767
22.1095 8.834
22.1246 8.978
22.1398 8.912
22.1550 8.747
22.1702 8.645
22.1853 8.872
22.2005 8.772
22.2157 8.566
22.2309 8.761
22.2460 8.725
22.2612 8.657
22.2764 8.544
22.2916 8.757
22.3067 8.744
22.3219 8.405
22.3371 8.549
22.3523 8.703
22.3674 8.645
22.3826 8.699
22.3978 8.609
22.4130 8.637
22.4281 8.474
22.4433 8.436
22.4585 8.398
22.4737 8.700
22.4888 8.187
22.5040 8.683
22.5192 8.432
22.5344 8.415
22.5495 8.518
22.5647 8.498
22.5799 8.244
22.5951 8.499
22.6102 8.607
22.6254 8.133
22.6406 8.353
22.6558 8.651
22.6709 8.322
22.6861 8.317
22.7013 8.018
22.7165 8.097
22.7316 6.546
