'Id: "" Comment: "" Operator: "Lab Manager" Anode: "Mo" Scantype: "Still (Eiger2R_500K (1D mode))" TimePerStep: "300" X: "11.8" Y: "9.4" Z: "11.284" 
7.2532 18.728
7.2684 19.024
7.2836 19.155
7.2987 19.120
7.3139 18.988
7.3291 18.908
7.3443 19.512
7.3594 19.490
7.3746 19.349
7.3898 19.415
7.4050 19.124
7.4201 19.573
7.4353 19.699
7.4505 19.728
7.4657 19.686
7.4808 19.750
7.4960 19.710
7.5112 19.804
7.5264 20.243
7.5415 19.739
7.5567 19.534
7.5719 19.793
7.5871 19.618
7.6022 19.597
7.6174 19.985
7.6326 19.915
7.6478 20.015
7.6629 20.275
7.6781 20.361
7.6933 20.455
7.7085 20.415
7.7236 20.592
7.7388 20.684
7.7540 20.592
7.7692 20.547
7.7843 20.629
7.7995 20.698
7.8147 20.895
7.8299 20.922
7.8450 20.907
7.8602 21.206
7.8754 21.155
7.8905 21.030
7.9057 21.028
7.9209 21.303
7.9361 21.419
7.9512 21.177
7.9664 21.242
7.9816 21.442
7.9968 21.334
8.0119 21.018
8.0271 20.597
8.0423 21.007
8.0575 21.303
8.0726 21.176
8.0878 21.394
8.1030 21.585
8.1182 21.607
8.1333 21.725
8.1485 21.509
8.1637 21.573
8.1789 21.907
8.1940 21.371
8.2092 21.932
8.2244 21.704
8.2396 21.233
8.2547 21.595
8.2699 21.356
8.2851 21.898
8.3003 22.561
8.3154 21.809
8.3306 21.758
8.3458 21.861
8.3610 22.006
8.3761 22.300
8.3913 21.920
8.4065 21.929
8.4217 21.677
8.4368 21.743
8.4520 22.118
8.4672 22.097
8.4824 22.502
8.4975 22.606
8.5127 22.087
8.5279 22.368
8.5431 21.921
8.5582 21.899
8.5734 22.013
8.5886 22.252
8.6038 21.871
8.6189 22.514
8.6341 22.487
8.6493 22.318
8.6645 22.739
8.6796 22.223
8.6948 22.329
8.7100 22.488
8.7252 22.704
8.7403 22.510
8.7555 22.402
8.7707 22.929
8.7859 22.728
8.8010 22.572
8.8162 22.907
8.8314 22.826
8.8466 22.271
8.8617 23.025
8.8769 22.588
8.8921 22.765
8.9073 22.662
8.9224 22.655
8.9376 22.273
8.9528 22.862
8.9680 22.553
8.9831 22.526
8.9983 22.723
9.0135 22.971
9.0287 23.386
9.0438 22.898
9.0590 22.770
9.0742 22.651
9.0894 22.813
9.1045 23.197
9.1197 22.847
9.1349 22.477
9.1501 22.973
9.1652 22.878
9.1804 22.990
9.1956 23.328
9.2108 23.238
9.2259 23.070
9.2411 23.254
9.2563 22.847
9.2715 22.726
9.2866 22.956
9.3018 23.213
9.3170 23.175
9.3322 23.371
9.3473 23.303
9.3625 23.243
9.3777 23.508
9.3929 23.620
9.4080 23.503
9.4232 23.138
9.4384 23.067
9.4536 23.393
9.4687 23.531
9.4839 23.248
9.4991 23.564
9.5143 23.737
9.5294 22.895
9.5446 23.046
9.5598 23.295
9.5750 23.223
9.5901 23.099
9.6053 23.356
9.6205 23.413
9.6357 23.534
9.6508 23.463
9.6660 23.567
9.6812 23.656
9.6964 23.576
9.7115 23.952
9.7267 23.887
9.7419 23.800
9.7571 23.926
9.7722 24.013
9.7874 23.818
9.8026 23.836
9.8178 24.051
9.8329 23.906
9.8481 23.722
9.8633 23.629
9.8785 23.402
9.8936 23.396
9.9088 23.551
9.9240 23.627
9.9392 23.521
9.9543 23.184
9.9695 23.127
9.9847 23.400
9.9999 23.396
10.0150 23.123
10.0302 23.590
10.0454 23.831
10.0606 23.780
10.0757 24.117
10.0909 23.953
10.1061 23.689
10.1213 24.040
10.1364 24.092
10.1516 24.170
10.1668 24.340
10.1820 24.324
10.1971 24.325
10.2123 24.138
10.2275 24.511
10.2427 24.902
10.2578 24.451
10.2730 24.187
10.2882 24.208
10.3034 23.918
10.3185 23.579
10.3337 23.380
10.3489 23.097
10.3641 23.025
10.3792 22.951
10.3944 23.160
10.4096 23.071
10.4248 23.035
10.4399 23.029
10.4551 22.847
10.4703 22.848
10.4855 22.901
10.5006 22.780
10.5158 22.856
10.5310 22.504
10.5462 22.486
10.5613 22.620
10.5765 22.657
10.5917 22.359
10.6069 22.129
10.6220 22.559
10.6372 22.770
10.6524 22.668
10.6676 22.702
10.6827 22.902
10.6979 22.599
10.7131 22.416
10.7283 22.665
10.7434 22.711
10.7586 22.724
10.7738 22.236
10.7890 21.889
10.8041 22.434
10.8193 22.553
10.8345 22.720
10.8497 22.677
10.8648 22.557
10.8800 22.491
10.8952 22.397
10.9104 22.211
10.9255 22.274
10.9407 22.443
10.9559 21.966
10.9711 21.957
10.9862 22.371
11.0014 22.403
11.0166 22.167
11.0318 22.285
11.0469 22.196
11.0621 21.837
11.0773 21.979
11.0925 21.888
11.1076 22.036
11.1228 22.132
11.1380 22.151
11.1532 21.881
11.1683 21.713
11.1835 22.093
11.1987 22.211
11.2139 22.073
11.2290 22.058
11.2442 22.006
11.2594 22.139
11.2746 22.024
11.2897 21.896
11.3049 21.574
11.3201 21.826
11.3353 22.007
11.3504 21.720
11.3656 21.685
11.3808 21.844
11.3960 21.252
11.4111 21.327
11.4263 21.817
11.4415 21.697
11.4567 21.110
11.4718 21.161
11.4870 21.246
11.5022 21.809
11.5174 21.377
11.5325 21.007
11.5477 20.883
11.5629 21.132
11.5781 20.903
11.5932 20.599
11.6084 20.814
11.6236 20.991
11.6388 20.863
11.6539 20.669
11.6691 20.490
11.6843 20.512
11.6995 20.445
11.7146 20.263
11.7298 20.188
11.7450 20.277
11.7602 20.165
11.7753 20.212
11.7905 20.121
11.8057 20.123
11.8209 19.822
11.8360 19.957
11.8512 19.917
11.8664 20.115
11.8816 19.694
11.8967 19.518
11.9119 19.428
11.9271 19.266
11.9423 19.381
11.9574 19.603
11.9726 19.450
11.9878 19.067
12.0030 19.290
12.0181 19.329
12.0333 19.164
12.0485 19.070
12.0637 18.835
12.0788 18.993
12.0940 19.311
12.1092 18.973
12.1244 18.674
12.1395 18.418
12.1547 18.163
12.1699 18.252
12.1851 18.410
12.2002 18.322
12.2154 18.353
12.2306 18.276
12.2458 18.129
12.2609 17.618
12.2761 17.873
12.2913 17.901
12.3065 17.869
12.3216 17.577
12.3368 17.587
12.3520 17.457
12.3672 17.528
12.3823 17.332
12.3975 17.121
12.4127 17.291
12.4279 17.117
12.4430 17.332
12.4582 17.293
12.4734 17.187
12.4886 16.919
12.5037 16.958
12.5189 16.879
12.5341 16.659
12.5493 16.509
12.5644 16.531
12.5796 16.485
12.5948 16.387
12.6100 16.251
12.6251 15.965
12.6403 15.817
12.6555 15.995
12.6707 15.958
12.6858 15.903
12.7010 15.845
12.7162 15.829
12.7314 15.731
12.7465 15.577
12.7617 15.446
12.7769 15.387
12.7921 15.416
12.8072 15.544
12.8224 15.429
12.8376 15.132
12.8528 15.040
12.8679 14.924
12.8831 15.019
12.8983 14.638
12.9135 14.533
12.9286 14.656
12.9438 14.534
12.9590 14.295
12.9742 14.484
12.9893 14.424
13.0045 14.041
13.0197 14.169
13.0349 14.220
13.0500 14.103
13.0652 14.005
13.0804 13.834
13.0956 13.764
13.1107 13.558
13.1259 13.493
13.1411 13.836
13.1563 13.797
13.1714 13.565
13.1866 13.559
13.2018 13.660
13.2170 13.742
13.2321 13.500
13.2473 13.320
13.2625 13.231
13.2777 13.193
13.2928 13.310
13.3080 13.210
13.3232 13.152
13.3384 13.185
13.3535 13.146
13.3687 13.067
13.3839 13.292
13.3991 13.370
13.4142 13.200
13.4294 12.898
13.4446 12.740
13.4598 12.944
13.4749 12.698
13.4901 12.485
13.5053 12.346
13.5205 12.351
13.5356 12.518
13.5508 12.464
13.5660 12.358
13.5812 12.310
13.5963 12.162
13.6115 12.052
13.6267 12.163
13.6419 12.196
13.6570 12.102
13.6722 11.933
13.6874 12.035
13.7026 12.009
13.7177 12.158
13.7329 12.229
13.7481 12.068
13.7633 11.992
13.7784 11.965
13.7936 12.128
13.8088 12.235
13.8239 12.446
13.8391 12.259
13.8543 11.965
13.8695 12.185
13.8846 12.191
13.8998 12.125
13.9150 11.810
13.9302 12.076
13.9453 12.001
13.9605 11.859
13.9757 11.800
13.9909 11.571
14.0060 11.569
14.0212 11.674
14.0364 11.622
14.0516 11.310
14.0667 11.225
14.0819 11.461
14.0971 11.512
14.1123 11.363
14.1274 11.248
14.1426 11.176
14.1578 11.318
14.1730 11.817
14.1881 11.565
14.2033 11.561
14.2185 11.671
14.2337 11.940
14.2488 11.977
14.2640 11.654
14.2792 11.992
14.2944 12.288
14.3095 12.146
14.3247 12.137
14.3399 12.453
14.3551 12.534
14.3702 12.705
14.3854 13.127
14.4006 13.486
14.4158 13.080
14.4309 13.364
14.4461 12.959
14.4613 12.981
14.4765 13.321
14.4916 13.016
14.5068 12.581
14.5220 12.400
14.5372 12.416
14.5523 12.423
14.5675 11.901
14.5827 12.241
14.5979 12.021
14.6130 11.914
14.6282 11.380
14.6434 11.188
14.6586 11.271
14.6737 11.322
14.6889 11.398
14.7041 11.079
14.7193 10.929
14.7344 10.941
14.7496 10.763
14.7648 10.875
14.7800 11.141
14.7951 10.726
14.8103 10.392
14.8255 10.627
14.8407 10.703
14.8558 10.549
14.8710 10.689
14.8862 10.989
14.9014 10.500
14.9165 11.040
14.9317 10.528
14.9469 10.386
14.9621 10.564
14.9772 10.556
14.9924 10.668
15.0076 10.725
15.0228 10.616
15.0379 10.805
15.0531 10.777
15.0683 10.655
15.0835 10.680
15.0986 10.176
15.1138 10.448
15.1290 10.844
15.1442 10.465
15.1593 10.366
15.1745 10.377
15.1897 10.413
15.2049 10.334
15.2200 10.518
15.2352 10.148
15.2504 10.388
15.2656 10.385
15.2807 10.397
15.2959 10.556
15.3111 10.493
15.3263 10.519
15.3414 10.269
15.3566 10.429
15.3718 10.465
15.3870 10.558
15.4021 10.218
15.4173 10.643
15.4325 10.760
15.4477 10.570
15.4628 10.402
15.4780 10.228
15.4932 10.388
15.5084 10.245
15.5235 10.425
15.5387 10.712
15.5539 10.158
15.5691 10.379
15.5842 10.481
15.5994 10.087
15.6146 10.157
15.6298 9.924
15.6449 9.774
15.6601 9.861
15.6753 9.902
15.6905 9.987
15.7056 9.871
15.7208 9.955
15.7360 9.782
15.7512 9.927
15.7663 9.956
15.7815 9.846
15.7967 9.979
15.8119 9.785
15.8270 9.899
15.8422 9.860
15.8574 9.984
15.8726 9.656
15.8877 9.698
15.9029 9.883
15.9181 9.691
15.9333 9.657
15.9484 9.976
15.9636 9.514
15.9788 9.739
15.9940 9.789
16.0091 9.688
16.0243 9.864
16.0395 9.683
16.0547 9.563
16.0698 9.827
16.0850 9.784
16.1002 9.846
16.1154 9.928
16.1305 9.980
16.1457 9.835
16.1609 9.959
16.1761 9.721
16.1912 9.755
16.2064 9.599
16.2216 9.506
16.2368 9.886
16.2519 10.065
16.2671 9.788
16.2823 9.809
16.2975 10.048
16.3126 10.355
16.3278 10.402
16.3430 10.085
16.3582 9.841
16.3733 9.900
16.3885 10.108
16.4037 10.303
16.4189 10.299
16.4340 10.162
16.4492 10.054
16.4644 9.772
16.4796 9.927
16.4947 9.987
16.5099 9.827
16.5251 9.769
16.5403 9.723
16.5554 9.761
16.5706 9.849
16.5858 9.924
16.6010 9.580
16.6161 9.571
16.6313 9.836
16.6465 9.996
16.6617 9.940
16.6768 9.837
16.6920 9.758
16.7072 9.773
16.7224 9.869
16.7375 9.993
16.7527 10.104
16.7679 10.115
16.7831 10.281
16.7982 9.952
16.8134 9.835
16.8286 9.891
16.8438 9.848
16.8589 9.846
16.8741 9.866
16.8893 9.904
16.9045 9.708
16.9196 9.545
16.9348 9.657
16.9500 9.730
16.9652 9.691
16.9803 9.877
16.9955 10.019
17.0107 10.003
17.0259 10.002
17.0410 10.027
17.0562 10.004
17.0714 10.092
17.0866 10.246
17.1017 10.321
17.1169 10.685
17.1321 10.978
17.1473 11.202
17.1624 11.827
17.1776 12.350
17.1928 12.854
17.2080 13.731
17.2231 14.630
17.2383 15.934
17.2535 17.669
17.2687 18.843
17.2838 18.731
17.2990 18.088
17.3142 16.953
17.3294 15.957
17.3445 16.010
17.3597 15.939
17.3749 15.692
17.3901 15.137
17.4052 14.031
17.4204 13.110
17.4356 12.350
17.4508 11.755
17.4659 11.638
17.4811 11.621
17.4963 11.574
17.5115 11.386
17.5266 11.294
17.5418 11.399
17.5570 11.385
17.5722 11.546
17.5873 11.627
17.6025 11.478
17.6177 11.266
17.6329 11.187
17.6480 11.166
17.6632 11.167
17.6784 11.181
17.6936 11.179
17.7087 11.048
17.7239 10.891
17.7391 10.873
17.7543 10.864
17.7694 10.788
17.7846 10.896
17.7998 11.055
17.8150 10.888
17.8301 10.977
17.8453 11.019
17.8605 11.110
17.8757 11.152
17.8908 10.968
17.9060 11.005
17.9212 10.852
17.9364 10.607
17.9515 10.553
17.9667 10.606
17.9819 10.663
17.9971 10.520
18.0122 10.520
18.0274 10.393
18.0426 10.435
18.0578 10.528
18.0729 10.324
18.0881 10.206
18.1033 10.127
18.1185 10.178
18.1336 10.144
18.1488 9.977
18.1640 9.946
18.1792 9.958
18.1943 10.001
18.2095 9.924
18.2247 9.858
18.2399 9.783
18.2550 9.698
18.2702 9.609
18.2854 9.632
18.3006 9.836
18.3157 9.770
18.3309 9.886
18.3461 9.921
18.3613 9.688
18.3764 9.818
18.3916 9.805
18.4068 9.742
18.4220 9.789
18.4371 9.831
18.4523 9.764
18.4675 9.735
18.4827 9.722
18.4978 9.501
18.5130 9.696
18.5282 9.780
18.5434 9.744
18.5585 9.670
18.5737 9.677
18.5889 9.788
18.6041 9.512
18.6192 9.684
18.6344 9.871
18.6496 9.991
18.6648 10.174
18.6799 9.928
18.6951 9.739
18.7103 9.684
18.7255 9.598
18.7406 9.655
18.7558 9.826
18.7710 9.825
18.7862 9.812
18.8013 9.826
18.8165 9.960
18.8317 10.101
18.8469 9.932
18.8620 9.985
18.8772 10.026
18.8924 9.963
18.9076 9.917
18.9227 9.913
18.9379 9.687
18.9531 9.732
18.9683 9.958
18.9834 9.867
18.9986 9.827
19.0138 10.088
19.0290 10.176
19.0441 10.166
19.0593 10.293
19.0745 10.257
19.0897 10.229
19.1048 10.399
19.1200 10.360
19.1352 10.229
19.1504 10.436
19.1655 10.536
19.1807 10.679
19.1959 10.560
19.2111 10.566
19.2262 10.595
19.2414 10.794
19.2566 10.995
19.2718 10.829
19.2869 10.651
19.3021 10.686
19.3173 11.023
19.3325 11.004
19.3476 11.156
19.3628 10.959
19.3780 10.979
19.3932 11.109
19.4083 11.074
19.4235 11.209
19.4387 11.144
19.4539 11.305
19.4690 11.375
19.4842 11.069
19.4994 11.297
19.5146 11.329
19.5297 11.421
19.5449 11.514
19.5601 11.521
19.5753 11.695
19.5904 11.805
19.6056 11.921
19.6208 11.868
19.6360 11.610
19.6511 11.494
19.6663 11.555
19.6815 11.685
19.6967 11.734
19.7118 11.654
19.7270 11.639
19.7422 11.776
19.7574 11.720
19.7725 11.617
19.7877 11.620
19.8029 11.653
19.8180 11.920
19.8332 12.150
19.8484 12.121
19.8636 12.143
19.8787 12.343
19.8939 12.592
19.9091 13.085
19.9243 13.598
19.9394 13.803
19.9546 14.074
19.9698 14.444
19.9850 14.601
20.0001 14.249
20.0153 13.883
20.0305 13.668
20.0457 13.303
20.0608 13.578
20.0760 13.625
20.0912 13.650
20.1064 13.816
20.1215 13.437
20.1367 13.401
20.1519 13.420
20.1671 13.218
20.1822 13.036
20.1974 12.961
20.2126 12.877
20.2278 12.824
20.2429 12.981
20.2581 12.786
20.2733 12.506
20.2885 11.958
20.3036 12.002
20.3188 11.701
20.3340 11.723
20.3492 11.959
20.3643 11.967
20.3795 11.476
20.3947 11.083
20.4099 11.029
20.4250 11.222
20.4402 11.120
20.4554 11.148
20.4706 11.211
20.4857 11.127
20.5009 11.085
20.5161 10.816
20.5313 10.710
20.5464 11.082
20.5616 11.027
20.5768 10.983
20.5920 10.655
20.6071 11.077
20.6223 11.059
20.6375 10.898
20.6527 10.869
20.6678 10.908
20.6830 10.773
20.6982 11.046
20.7134 10.623
20.7285 10.542
20.7437 10.600
20.7589 10.525
20.7741 10.369
20.7892 10.399
20.8044 10.284
20.8196 10.315
20.8348 10.339
20.8499 10.478
20.8651 10.377
20.8803 10.648
20.8955 10.285
20.9106 10.424
20.9258 10.319
20.9410 10.281
20.9562 10.552
20.9713 10.127
20.9865 10.170
21.0017 10.095
21.0169 10.375
21.0320 9.801
21.0472 10.198
21.0624 10.205
21.0776 9.959
21.0927 10.124
21.1079 9.805
21.1231 9.928
21.1383 9.855
21.1534 9.854
21.1686 10.039
21.1838 9.910
21.1990 9.639
21.2141 9.743
21.2293 9.701
21.2445 9.903
21.2597 9.495
21.2748 10.065
21.2900 9.430
21.3052 9.631
21.3204 9.810
21.3355 9.846
21.3507 9.684
21.3659 9.383
21.3811 9.530
21.3962 9.429
21.4114 9.650
21.4266 9.237
21.4418 9.450
21.4569 9.652
21.4721 9.476
21.4873 9.699
21.5025 9.213
21.5176 9.276
21.5328 9.118
21.5480 9.355
21.5632 9.124
21.5783 9.219
21.5935 9.144
21.6087 9.372
21.6239 9.236
21.6390 9.277
21.6542 9.054
21.6694 9.235
21.6846 9.218
21.6997 9.004
21.7149 9.112
21.7301 9.222
21.7453 9.157
21.7604 8.946
21.7756 9.182
21.7908 9.196
21.8060 8.951
21.8211 9.007
21.8363 9.330
21.8515 9.297
21.8667 8.884
21.8818 8.646
21.8970 8.943
21.9122 9.162
21.9274 9.132
21.9425 8.928
21.9577 8.854
21.9729 8.735
21.9881 8.765
22.0032 8.793
22.0184 8.801
22.0336 8.976
22.0488 9.052
22.0639 8.811
22.0791 8.726
22.0943 8.741
22.1095 8.700
22.1246 8.854
22.1398 8.848
22.1550 8.721
22.1702 8.642
22.1853 8.770
22.2005 8.591
22.2157 8.763
22.2309 8.853
22.2460 8.571
22.2612 8.468
22.2764 8.369
22.2916 8.716
22.3067 8.775
22.3219 8.657
22.3371 8.638
22.3523 8.489
22.3674 8.629
22.3826 8.445
22.3978 8.422
22.4130 8.630
22.4281 8.423
22.4433 8.504
22.4585 8.462
22.4737 8.486
22.4888 8.481
22.5040 8.468
22.5192 8.194
22.5344 8.681
22.5495 8.579
22.5647 8.611
22.5799 8.474
22.5951 8.317
22.6102 8.526
22.6254 8.552
22.6406 8.484
22.6558 8.299
22.6709 8.589
22.6861 8.456
22.7013 8.280
22.7165 7.923
22.7316 6.589
