'Id: "" Comment: "" Operator: "Lab Manager" Anode: "Mo" Scantype: "Still (Eiger2R_500K (1D mode))" TimePerStep: "300" X: "11.8" Y: "9.4" Z: "11.284" 
7.2532 18.702
7.2684 18.795
7.2836 18.743
7.2987 19.133
7.3139 18.820
7.3291 19.048
7.3443 19.028
7.3594 19.290
7.3746 18.989
7.3898 19.169
7.4050 19.308
7.4201 19.395
7.4353 19.431
7.4505 19.447
7.4657 19.402
7.4808 19.393
7.4960 19.465
7.5112 20.077
7.5264 20.138
7.5415 19.488
7.5567 19.837
7.5719 19.983
7.5871 19.847
7.6022 20.139
7.6174 20.100
7.6326 20.120
7.6478 20.019
7.6629 20.065
7.6781 20.358
7.6933 20.516
7.7085 20.507
7.7236 20.339
7.7388 20.151
7.7540 20.299
7.7692 20.584
7.7843 20.507
7.7995 20.549
7.8147 20.755
7.8299 20.786
7.8450 20.594
7.8602 20.570
7.8754 20.891
7.8905 20.936
7.9057 21.106
7.9209 21.259
7.9361 21.131
7.9512 21.024
7.9664 21.334
7.9816 21.453
7.9968 21.467
8.0119 21.176
8.0271 21.050
8.0423 21.144
8.0575 21.294
8.0726 21.263
8.0878 21.411
8.1030 21.273
8.1182 21.232
8.1333 21.306
8.1485 21.478
8.1637 21.290
8.1789 21.337
8.1940 21.385
8.2092 21.139
8.2244 21.385
8.2396 21.884
8.2547 21.640
8.2699 21.870
8.2851 21.885
8.3003 21.441
8.3154 21.765
8.3306 21.744
8.3458 21.545
8.3610 21.934
8.3761 21.594
8.3913 22.066
8.4065 21.968
8.4217 22.154
8.4368 22.306
8.4520 22.000
8.4672 22.074
8.4824 22.039
8.4975 21.817
8.5127 22.327
8.5279 21.746
8.5431 22.367
8.5582 22.101
8.5734 22.362
8.5886 22.015
8.6038 22.366
8.6189 22.471
8.6341 22.558
8.6493 22.902
8.6645 22.488
8.6796 22.811
8.6948 22.603
8.7100 22.770
8.7252 23.015
8.7403 22.898
8.7555 22.839
8.7707 22.674
8.7859 22.900
8.8010 22.175
8.8162 22.526
8.8314 22.814
8.8466 22.913
8.8617 22.683
8.8769 22.425
8.8921 22.767
8.9073 22.931
8.9224 22.719
8.9376 23.160
8.9528 23.104
8.9680 22.820
8.9831 23.102
8.9983 22.513
9.0135 22.852
9.0287 23.242
9.0438 22.901
9.0590 22.930
9.0742 22.907
9.0894 22.575
9.1045 22.755
9.1197 22.827
9.1349 22.683
9.1501 23.121
9.1652 23.214
9.1804 22.916
9.1956 23.150
9.2108 22.781
9.2259 23.274
9.2411 23.339
9.2563 23.054
9.2715 22.734
9.2866 22.953
9.3018 22.828
9.3170 23.041
9.3322 23.001
9.3473 22.983
9.3625 22.707
9.3777 23.228
9.3929 23.231
9.4080 23.563
9.4232 23.665
9.4384 23.665
9.4536 23.474
9.4687 23.355
9.4839 23.204
9.4991 23.188
9.5143 22.803
9.5294 22.997
9.5446 23.305
9.5598 22.980
9.5750 22.935
9.5901 23.062
9.6053 23.358
9.6205 23.230
9.6357 23.290
9.6508 23.541
9.6660 23.860
9.6812 24.120
9.6964 24.079
9.7115 24.055
9.7267 24.040
9.7419 24.130
9.7571 24.271
9.7722 24.297
9.7874 23.863
9.8026 23.642
9.8178 23.742
9.8329 23.634
9.8481 23.422
9.8633 23.362
9.8785 23.498
9.8936 23.459
9.9088 23.189
9.9240 23.140
9.9392 23.397
9.9543 23.519
9.9695 23.288
9.9847 23.378
9.9999 23.510
10.0150 23.316
10.0302 23.744
10.0454 23.952
10.0606 23.818
10.0757 23.676
10.0909 23.877
10.1061 23.844
10.1213 23.821
10.1364 23.775
10.1516 23.666
10.1668 23.762
10.1820 23.580
10.1971 23.733
10.2123 23.914
10.2275 24.147
10.2427 23.906
10.2578 23.646
10.2730 23.705
10.2882 23.529
10.3034 23.369
10.3185 23.302
10.3337 23.114
10.3489 23.415
10.3641 23.462
10.3792 22.925
10.3944 22.773
10.4096 22.977
10.4248 23.034
10.4399 23.044
10.4551 22.825
10.4703 22.592
10.4855 22.313
10.5006 22.559
10.5158 22.897
10.5310 22.705
10.5462 22.735
10.5613 22.520
10.5765 22.829
10.5917 22.899
10.6069 22.674
10.6220 22.460
10.6372 22.735
10.6524 22.934
10.6676 22.787
10.6827 22.733
10.6979 22.287
10.7131 22.356
10.7283 22.606
10.7434 22.771
10.7586 22.451
10.7738 22.140
10.7890 22.108
10.8041 22.164
10.8193 22.771
10.8345 22.566
10.8497 22.687
10.8648 22.177
10.8800 22.185
10.8952 22.494
10.9104 22.165
10.9255 22.171
10.9407 22.082
10.9559 22.031
10.9711 22.116
10.9862 22.269
11.0014 22.020
11.0166 21.859
11.0318 22.142
11.0469 21.978
11.0621 21.824
11.0773 21.827
11.0925 22.039
11.1076 22.029
11.1228 22.193
11.1380 22.193
11.1532 21.871
11.1683 22.250
11.1835 22.256
11.1987 21.784
11.2139 21.602
11.2290 21.982
11.2442 22.185
11.2594 22.012
11.2746 22.150
11.2897 21.756
11.3049 21.581
11.3201 21.938
11.3353 21.857
11.3504 21.798
11.3656 21.673
11.3808 21.445
11.3960 21.109
11.4111 21.018
11.4263 21.334
11.4415 21.520
11.4567 21.457
11.4718 21.031
11.4870 21.335
11.5022 21.350
11.5174 21.081
11.5325 20.580
11.5477 20.803
11.5629 21.093
11.5781 21.176
11.5932 20.920
11.6084 20.617
11.6236 20.849
11.6388 20.965
11.6539 20.520
11.6691 20.492
11.6843 20.661
11.6995 20.482
11.7146 20.686
11.7298 20.672
11.7450 20.118
11.7602 19.721
11.7753 19.670
11.7905 20.235
11.8057 20.476
11.8209 20.277
11.8360 20.315
11.8512 19.922
11.8664 19.766
11.8816 19.974
11.8967 19.806
11.9119 19.559
11.9271 19.218
11.9423 19.155
11.9574 19.584
11.9726 19.613
11.9878 19.191
12.0030 19.037
12.0181 19.103
12.0333 19.104
12.0485 18.795
12.0637 18.892
12.0788 18.900
12.0940 18.784
12.1092 18.849
12.1244 18.935
12.1395 18.666
12.1547 18.306
12.1699 18.567
12.1851 18.599
12.2002 18.113
12.2154 18.187
12.2306 18.136
12.2458 17.811
12.2609 17.981
12.2761 18.082
12.2913 17.745
12.3065 17.415
12.3216 17.623
12.3368 17.727
12.3520 17.212
12.3672 17.338
12.3823 17.513
12.3975 17.528
12.4127 17.446
12.4279 16.992
12.4430 17.154
12.4582 17.267
12.4734 17.448
12.4886 17.334
12.5037 17.154
12.5189 17.037
12.5341 17.005
12.5493 16.907
12.5644 16.744
12.5796 16.619
12.5948 16.425
12.6100 16.349
12.6251 16.285
12.6403 16.197
12.6555 16.173
12.6707 15.893
12.6858 15.906
12.7010 15.730
12.7162 15.573
12.7314 15.973
12.7465 15.827
12.7617 15.381
12.7769 15.222
12.7921 15.150
12.8072 15.139
12.8224 14.991
12.8376 15.090
12.8528 15.036
12.8679 14.846
12.8831 14.926
12.8983 14.732
12.9135 14.600
12.9286 14.572
12.9438 14.261
12.9590 14.053
12.9742 14.219
12.9893 14.413
13.0045 14.637
13.0197 14.534
13.0349 14.270
13.0500 14.189
13.0652 13.979
13.0804 13.955
13.0956 14.054
13.1107 13.917
13.1259 13.748
13.1411 13.705
13.1563 13.562
13.1714 13.587
13.1866 13.844
13.2018 13.865
13.2170 13.804
13.2321 13.686
13.2473 13.309
13.2625 13.010
13.2777 13.274
13.2928 13.236
13.3080 12.992
13.3232 13.256
13.3384 13.364
13.3535 13.212
13.3687 12.823
13.3839 12.841
13.3991 13.100
13.4142 13.183
13.4294 13.227
13.4446 13.064
13.4598 12.759
13.4749 12.585
13.4901 12.511
13.5053 12.683
13.5205 12.632
13.5356 12.263
13.5508 12.366
13.5660 12.250
13.5812 11.968
13.5963 12.196
13.6115 12.357
13.6267 12.237
13.6419 12.201
13.6570 12.346
13.6722 12.298
13.6874 12.276
13.7026 12.215
13.7177 12.318
13.7329 12.092
13.7481 11.880
13.7633 11.928
13.7784 12.185
13.7936 12.210
13.8088 11.983
13.8239 12.249
13.8391 12.426
13.8543 12.146
13.8695 12.072
13.8846 12.315
13.8998 12.066
13.9150 12.109
13.9302 12.034
13.9453 11.691
13.9605 11.982
13.9757 11.879
13.9909 11.634
14.0060 11.754
14.0212 11.515
14.0364 11.544
14.0516 11.614
14.0667 11.821
14.0819 11.376
14.0971 11.570
14.1123 11.881
14.1274 11.424
14.1426 11.654
14.1578 11.715
14.1730 11.391
14.1881 11.616
14.2033 11.984
14.2185 11.775
14.2337 11.710
14.2488 12.130
14.2640 12.068
14.2792 12.070
14.2944 11.953
14.3095 12.279
14.3247 12.447
14.3399 12.603
14.3551 12.939
14.3702 13.284
14.3854 13.207
14.4006 12.846
14.4158 12.851
14.4309 13.191
14.4461 12.867
14.4613 12.820
14.4765 12.686
14.4916 12.622
14.5068 12.294
14.5220 12.250
14.5372 12.307
14.5523 11.602
14.5675 11.751
14.5827 11.633
14.5979 11.216
14.6130 11.368
14.6282 11.407
14.6434 11.254
14.6586 11.276
14.6737 11.403
14.6889 11.155
14.7041 10.996
14.7193 10.883
14.7344 11.033
14.7496 10.635
14.7648 10.833
14.7800 10.795
14.7951 10.842
14.8103 10.794
14.8255 10.502
14.8407 10.483
14.8558 10.575
14.8710 10.710
14.8862 10.428
14.9014 10.627
14.9165 10.662
14.9317 10.448
14.9469 10.674
14.9621 10.467
14.9772 10.581
14.9924 10.636
15.0076 10.632
15.0228 10.719
15.0379 10.529
15.0531 10.793
15.0683 10.331
15.0835 10.481
15.0986 10.785
15.1138 10.657
15.1290 10.719
15.1442 10.430
15.1593 10.271
15.1745 10.688
15.1897 10.322
15.2049 10.876
15.2200 10.503
15.2352 10.306
15.2504 10.399
15.2656 10.210
15.2807 10.050
15.2959 10.328
15.3111 10.287
15.3263 10.378
15.3414 10.326
15.3566 10.635
15.3718 10.437
15.3870 10.429
15.4021 10.555
15.4173 10.614
15.4325 10.774
15.4477 10.711
15.4628 10.870
15.4780 10.414
15.4932 10.334
15.5084 10.251
15.5235 10.449
15.5387 10.249
15.5539 10.275
15.5691 10.347
15.5842 9.900
15.5994 10.183
15.6146 10.069
15.6298 10.402
15.6449 10.227
15.6601 9.918
15.6753 9.728
15.6905 9.965
15.7056 9.794
15.7208 9.668
15.7360 9.760
15.7512 9.763
15.7663 9.732
15.7815 9.826
15.7967 9.776
15.8119 10.037
15.8270 9.796
15.8422 9.708
15.8574 9.435
15.8726 9.626
15.8877 9.765
15.9029 9.554
15.9181 9.797
15.9333 9.834
15.9484 9.969
15.9636 9.823
15.9788 9.789
15.9940 9.887
16.0091 9.887
16.0243 10.047
16.0395 9.563
16.0547 9.485
16.0698 9.681
16.0850 9.598
16.1002 9.575
16.1154 9.823
16.1305 9.989
16.1457 9.701
16.1609 9.598
16.1761 9.674
16.1912 9.733
16.2064 9.918
16.2216 9.696
16.2368 9.927
16.2519 9.799
16.2671 9.612
16.2823 9.958
16.2975 10.174
16.3126 9.918
16.3278 9.937
16.3430 10.076
16.3582 10.084
16.3733 9.817
16.3885 9.798
16.4037 9.872
16.4189 9.974
16.4340 9.931
16.4492 9.782
16.4644 9.713
16.4796 9.825
16.4947 9.964
16.5099 9.929
16.5251 9.785
16.5403 9.732
16.5554 9.813
16.5706 9.759
16.5858 9.662
16.6010 9.810
16.6161 9.717
16.6313 9.876
16.6465 9.881
16.6617 9.924
16.6768 9.962
16.6920 10.009
16.7072 9.917
16.7224 9.783
16.7375 9.949
16.7527 10.040
16.7679 10.097
16.7831 9.923
16.7982 9.828
16.8134 9.673
16.8286 9.620
16.8438 9.731
16.8589 9.940
16.8741 10.125
16.8893 10.042
16.9045 9.919
16.9196 9.816
16.9348 9.808
16.9500 9.788
16.9652 9.660
16.9803 9.826
16.9955 9.770
17.0107 9.844
17.0259 9.855
17.0410 10.021
17.0562 10.302
17.0714 10.297
17.0866 10.248
17.1017 10.546
17.1169 10.701
17.1321 10.877
17.1473 11.225
17.1624 11.534
17.1776 11.995
17.1928 12.965
17.2080 14.087
17.2231 14.951
17.2383 16.256
17.2535 17.492
17.2687 18.600
17.2838 18.798
17.2990 17.857
17.3142 16.969
17.3294 16.376
17.3445 16.218
17.3597 16.031
17.3749 15.705
17.3901 15.254
17.4052 14.344
17.4204 13.250
17.4356 12.491
17.4508 12.250
17.4659 11.826
17.4811 11.556
17.4963 11.701
17.5115 11.431
17.5266 10.955
17.5418 11.085
17.5570 11.448
17.5722 11.546
17.5873 11.574
17.6025 11.415
17.6177 11.462
17.6329 11.424
17.6480 11.423
17.6632 11.360
17.6784 11.028
17.6936 10.868
17.7087 10.877
17.7239 10.777
17.7391 10.696
17.7543 10.673
17.7694 10.627
17.7846 10.571
17.7998 10.636
17.8150 10.675
17.8301 10.675
17.8453 10.650
17.8605 10.837
17.8757 10.686
17.8908 10.609
17.9060 10.655
17.9212 10.577
17.9364 10.468
17.9515 10.530
17.9667 10.568
17.9819 10.353
17.9971 10.342
18.0122 10.363
18.0274 10.365
18.0426 10.367
18.0578 10.155
18.0729 9.895
18.0881 10.000
18.1033 9.906
18.1185 9.988
18.1336 10.211
18.1488 10.255
18.1640 10.073
18.1792 10.002
18.1943 9.824
18.2095 9.638
18.2247 9.728
18.2399 9.963
18.2550 9.937
18.2702 9.849
18.2854 9.765
18.3006 9.710
18.3157 9.622
18.3309 9.590
18.3461 9.701
18.3613 9.572
18.3764 9.769
18.3916 9.773
18.4068 9.859
18.4220 9.653
18.4371 9.543
18.4523 9.818
18.4675 9.863
18.4827 9.800
18.4978 9.854
18.5130 9.823
18.5282 9.745
18.5434 9.788
18.5585 9.882
18.5737 9.796
18.5889 9.688
18.6041 9.787
18.6192 9.690
18.6344 9.738
18.6496 9.734
18.6648 9.708
18.6799 9.967
18.6951 9.705
18.7103 9.632
18.7255 9.788
18.7406 9.815
18.7558 9.832
18.7710 9.895
18.7862 9.785
18.8013 9.690
18.8165 9.508
18.8317 9.640
18.8469 9.677
18.8620 9.684
18.8772 9.992
18.8924 9.993
18.9076 9.880
18.9227 10.067
18.9379 9.850
18.9531 10.016
18.9683 10.098
18.9834 9.955
18.9986 9.901
19.0138 9.831
19.0290 10.142
19.0441 10.121
19.0593 9.887
19.0745 9.871
19.0897 10.310
19.1048 10.415
19.1200 10.276
19.1352 10.407
19.1504 10.499
19.1655 10.631
19.1807 10.623
19.1959 10.634
19.2111 10.783
19.2262 10.714
19.2414 10.921
19.2566 10.999
19.2718 10.796
19.2869 10.951
19.3021 11.022
19.3173 10.892
19.3325 10.940
19.3476 11.003
19.3628 11.004
19.3780 10.997
19.3932 11.049
19.4083 11.176
19.4235 11.241
19.4387 11.258
19.4539 11.303
19.4690 11.399
19.4842 11.310
19.4994 11.470
19.5146 11.432
19.5297 11.272
19.5449 11.377
19.5601 11.319
19.5753 11.480
19.5904 11.534
19.6056 11.638
19.6208 11.588
19.6360 11.540
19.6511 11.807
19.6663 11.620
19.6815 11.393
19.6967 11.521
19.7118 11.762
19.7270 11.853
19.7422 11.657
19.7574 11.784
19.7725 11.882
19.7877 11.616
19.8029 11.723
19.8180 12.046
19.8332 12.277
19.8484 12.184
19.8636 12.232
19.8787 12.525
19.8939 12.699
19.9091 12.877
19.9243 13.420
19.9394 13.768
19.9546 13.896
19.9698 14.236
19.9850 14.326
20.0001 14.362
20.0153 14.088
20.0305 13.659
20.0457 13.625
20.0608 13.815
20.0760 13.779
20.0912 13.552
20.1064 13.639
20.1215 13.518
20.1367 13.339
20.1519 13.024
20.1671 12.914
20.1822 13.006
20.1974 13.155
20.2126 13.029
20.2278 12.952
20.2429 12.934
20.2581 12.623
20.2733 12.295
20.2885 12.083
20.3036 12.087
20.3188 12.351
20.3340 12.186
20.3492 11.719
20.3643 11.721
20.3795 11.384
20.3947 11.172
20.4099 11.079
20.4250 10.975
20.4402 11.056
20.4554 11.140
20.4706 10.857
20.4857 10.884
20.5009 10.880
20.5161 10.806
20.5313 10.741
20.5464 10.806
20.5616 10.620
20.5768 10.694
20.5920 10.893
20.6071 10.989
20.6223 11.022
20.6375 10.776
20.6527 10.906
20.6678 10.748
20.6830 10.918
20.6982 10.929
20.7134 10.546
20.7285 10.345
20.7437 10.450
20.7589 10.673
20.7741 10.338
20.7892 10.352
20.8044 10.519
20.8196 10.102
20.8348 10.233
20.8499 10.142
20.8651 10.151
20.8803 10.060
20.8955 10.176
20.9106 10.425
20.9258 10.162
20.9410 10.198
20.9562 10.049
20.9713 9.972
20.9865 10.077
21.0017 10.133
21.0169 10.232
21.0320 10.140
21.0472 10.065
21.0624 10.094
21.0776 9.897
21.0927 9.892
21.1079 9.875
21.1231 10.055
21.1383 9.953
21.1534 9.664
21.1686 9.796
21.1838 9.390
21.1990 9.774
21.2141 9.809
21.2293 9.893
21.2445 9.720
21.2597 9.586
21.2748 9.653
21.2900 9.748
21.3052 9.733
21.3204 9.764
21.3355 9.412
21.3507 9.766
21.3659 9.630
21.3811 9.791
21.3962 9.275
21.4114 9.228
21.4266 9.537
21.4418 9.226
21.4569 9.393
21.4721 9.443
21.4873 9.228
21.5025 9.458
21.5176 9.304
21.5328 9.288
21.5480 9.014
21.5632 9.094
21.5783 9.257
21.5935 9.312
21.6087 9.280
21.6239 9.129
21.6390 8.890
21.6542 8.801
21.6694 9.086
21.6846 9.107
21.6997 9.134
21.7149 8.849
21.7301 9.046
21.7453 9.099
21.7604 9.201
21.7756 9.064
21.7908 9.252
21.8060 9.041
21.8211 9.168
21.8363 9.167
21.8515 9.112
21.8667 9.288
21.8818 9.119
21.8970 9.073
21.9122 9.096
21.9274 9.094
21.9425 9.013
21.9577 8.866
21.9729 8.947
21.9881 9.030
22.0032 8.891
22.0184 8.883
22.0336 8.804
22.0488 8.713
22.0639 8.544
22.0791 8.727
22.0943 8.924
22.1095 8.778
22.1246 8.719
22.1398 8.645
22.1550 8.783
22.1702 8.660
22.1853 8.405
22.2005 8.573
22.2157 8.681
22.2309 8.742
22.2460 8.731
22.2612 8.845
22.2764 8.759
22.2916 8.811
22.3067 8.653
22.3219 8.503
22.3371 8.367
22.3523 8.399
22.3674 8.515
22.3826 8.441
22.3978 8.398
22.4130 8.633
22.4281 8.382
22.4433 8.458
22.4585 8.587
22.4737 8.508
22.4888 8.490
22.5040 8.563
22.5192 8.395
22.5344 8.707
22.5495 8.444
22.5647 8.450
22.5799 8.322
22.5951 8.487
22.6102 8.742
22.6254 8.563
22.6406 8.447
22.6558 8.391
22.6709 8.326
22.6861 8.252
22.7013 8.086
22.7165 8.300
22.7316 6.446
