'Id: "" Comment: "" Operator: "Lab Manager" Anode: "Mo" Scantype: "Still (Eiger2R_500K (1D mode))" TimePerStep: "300" X: "11.8" Y: "9.4" Z: "11.284" 
7.2532 18.782
7.2684 18.679
7.2836 18.861
7.2987 19.069
7.3139 18.723
7.3291 19.016
7.3443 19.001
7.3594 19.405
7.3746 19.216
7.3898 19.265
7.4050 19.590
7.4201 19.766
7.4353 19.493
7.4505 19.627
7.4657 19.779
7.4808 19.521
7.4960 19.570
7.5112 19.478
7.5264 19.770
7.5415 19.789
7.5567 19.831
7.5719 19.887
7.5871 19.877
7.6022 19.929
7.6174 19.875
7.6326 19.955
7.6478 19.936
7.6629 20.286
7.6781 20.262
7.6933 20.113
7.7085 20.162
7.7236 20.174
7.7388 20.795
7.7540 21.079
7.7692 20.769
7.7843 20.514
7.7995 20.479
7.8147 20.317
7.8299 20.539
7.8450 20.604
7.8602 20.819
7.8754 20.755
7.8905 20.910
7.9057 21.061
7.9209 20.764
7.9361 20.675
7.9512 21.066
7.9664 21.206
7.9816 20.835
7.9968 21.200
8.0119 21.206
8.0271 21.136
8.0423 21.096
8.0575 21.054
8.0726 21.174
8.0878 21.229
8.1030 21.539
8.1182 21.609
8.1333 21.437
8.1485 21.326
8.1637 21.635
8.1789 21.443
8.1940 21.576
8.2092 20.989
8.2244 21.343
8.2396 21.862
8.2547 21.983
8.2699 21.978
8.2851 21.939
8.3003 21.817
8.3154 21.823
8.3306 21.406
8.3458 21.701
8.3610 21.852
8.3761 22.360
8.3913 22.133
8.4065 21.732
8.4217 21.979
8.4368 22.282
8.4520 21.829
8.4672 21.987
8.4824 21.974
8.4975 22.507
8.5127 22.549
8.5279 22.116
8.5431 21.919
8.5582 22.387
8.5734 22.335
8.5886 22.221
8.6038 21.846
8.6189 22.346
8.6341 22.313
8.6493 22.488
8.6645 21.748
8.6796 22.468
8.6948 22.312
8.7100 22.700
8.7252 22.075
8.7403 22.415
8.7555 22.405
8.7707 22.469
8.7859 22.401
8.8010 22.622
8.8162 22.043
8.8314 22.699
8.8466 22.582
8.8617 22.611
8.8769 22.593
8.8921 22.680
8.9073 22.703
8.9224 22.765
8.9376 22.536
8.9528 22.716
8.9680 22.802
8.9831 22.772
8.9983 22.630
9.0135 22.746
9.0287 23.019
9.0438 22.822
9.0590 23.058
9.0742 22.822
9.0894 22.734
9.1045 22.707
9.1197 22.923
9.1349 23.194
9.1501 22.822
9.1652 23.001
9.1804 22.695
9.1956 22.746
9.2108 23.115
9.2259 23.240
9.2411 22.768
9.2563 22.822
9.2715 23.160
9.2866 23.057
9.3018 23.270
9.3170 23.327
9.3322 23.190
9.3473 23.293
9.3625 23.227
9.3777 23.136
9.3929 23.438
9.4080 23.532
9.4232 23.025
9.4384 22.917
9.4536 23.058
9.4687 23.218
9.4839 23.304
9.4991 23.495
9.5143 23.414
9.5294 23.185
9.5446 23.153
9.5598 23.168
9.5750 23.408
9.5901 23.523
9.6053 23.387
9.6205 23.553
9.6357 23.599
9.6508 23.549
9.6660 23.597
9.6812 23.871
9.6964 23.921
9.7115 23.658
9.7267 23.860
9.7419 24.129
9.7571 24.088
9.7722 23.801
9.7874 23.529
9.8026 23.653
9.8178 23.620
9.8329 23.325
9.8481 23.227
9.8633 23.296
9.8785 23.520
9.8936 23.715
9.9088 23.830
9.9240 23.734
9.9392 23.790
9.9543 23.701
9.9695 23.501
9.9847 23.589
9.9999 23.645
10.0150 23.343
10.0302 23.380
10.0454 23.366
10.0606 23.363
10.0757 23.220
10.0909 23.179
10.1061 23.274
10.1213 23.433
10.1364 23.293
10.1516 23.058
10.1668 23.358
10.1820 23.484
10.1971 23.487
10.2123 22.964
10.2275 23.017
10.2427 23.389
10.2578 23.384
10.2730 23.346
10.2882 23.177
10.3034 23.455
10.3185 23.303
10.3337 22.961
10.3489 22.709
10.3641 22.783
10.3792 23.117
10.3944 23.101
10.4096 22.684
10.4248 22.888
10.4399 22.818
10.4551 22.949
10.4703 23.064
10.4855 22.926
10.5006 22.745
10.5158 22.758
10.5310 23.053
10.5462 23.118
10.5613 22.883
10.5765 22.778
10.5917 22.719
10.6069 22.579
10.6220 22.642
10.6372 22.696
10.6524 22.607
10.6676 22.662
10.6827 22.813
10.6979 22.781
10.7131 22.565
10.7283 22.439
10.7434 22.187
10.7586 22.143
10.7738 22.412
10.7890 22.553
10.8041 22.383
10.8193 22.423
10.8345 22.318
10.8497 22.454
10.8648 22.275
10.8800 22.344
10.8952 22.034
10.9104 22.166
10.9255 22.239
10.9407 22.287
10.9559 22.064
10.9711 22.110
10.9862 22.021
11.0014 22.316
11.0166 22.264
11.0318 21.784
11.0469 21.568
11.0621 21.738
11.0773 22.210
11.0925 21.955
11.1076 22.155
11.1228 22.064
11.1380 21.838
11.1532 21.710
11.1683 22.159
11.1835 22.127
11.1987 21.850
11.2139 21.771
11.2290 21.682
11.2442 22.010
11.2594 21.926
11.2746 22.087
11.2897 22.208
11.3049 21.849
11.3201 21.450
11.3353 21.468
11.3504 21.532
11.3656 21.532
11.3808 21.626
11.3960 21.562
11.4111 21.380
11.4263 21.463
11.4415 21.289
11.4567 21.077
11.4718 21.077
11.4870 21.228
11.5022 21.379
11.5174 21.363
11.5325 21.357
11.5477 21.478
11.5629 21.324
11.5781 21.175
11.5932 21.098
11.6084 20.909
11.6236 21.015
11.6388 21.065
11.6539 20.541
11.6691 20.730
11.6843 20.783
11.6995 20.323
11.7146 20.625
11.7298 20.661
11.7450 20.282
11.7602 20.482
11.7753 20.694
11.7905 20.596
11.8057 20.186
11.8209 20.037
11.8360 20.440
11.8512 19.944
11.8664 19.365
11.8816 19.511
11.8967 19.582
11.9119 19.836
11.9271 19.444
11.9423 19.741
11.9574 19.408
11.9726 19.303
11.9878 19.349
12.0030 19.118
12.0181 19.153
12.0333 19.156
12.0485 18.987
12.0637 19.089
12.0788 18.962
12.0940 18.686
12.1092 18.778
12.1244 18.612
12.1395 19.014
12.1547 18.710
12.1699 18.570
12.1851 18.853
12.2002 18.496
12.2154 18.260
12.2306 18.071
12.2458 17.978
12.2609 17.779
12.2761 17.838
12.2913 18.173
12.3065 17.993
12.3216 18.006
12.3368 17.551
12.3520 17.349
12.3672 17.481
12.3823 17.439
12.3975 17.204
12.4127 17.126
12.4279 17.296
12.4430 17.468
12.4582 17.035
12.4734 16.859
12.4886 16.906
12.5037 16.914
12.5189 16.838
12.5341 16.726
12.5493 16.824
12.5644 16.566
12.5796 16.660
12.5948 16.406
12.6100 16.406
12.6251 16.187
12.6403 16.044
12.6555 15.984
12.6707 15.835
12.6858 16.033
12.7010 15.963
12.7162 15.690
12.7314 15.567
12.7465 15.538
12.7617 15.249
12.7769 15.284
12.7921 15.224
12.8072 14.998
12.8224 15.042
12.8376 15.182
12.8528 15.142
12.8679 15.071
12.8831 15.086
12.8983 14.790
12.9135 14.691
12.9286 15.021
12.9438 15.019
12.9590 14.705
12.9742 14.540
12.9893 14.547
13.0045 14.384
13.0197 14.131
13.0349 14.266
13.0500 14.442
13.0652 14.204
13.0804 14.204
13.0956 14.050
13.1107 13.810
13.1259 14.038
13.1411 14.032
13.1563 13.714
13.1714 13.657
13.1866 13.822
13.2018 13.694
13.2170 13.492
13.2321 13.527
13.2473 13.636
13.2625 13.449
13.2777 13.366
13.2928 13.395
13.3080 13.387
13.3232 13.364
13.3384 13.266
13.3535 13.449
13.3687 13.403
13.3839 13.108
13.3991 13.009
13.4142 13.234
13.4294 13.095
13.4446 12.990
13.4598 12.859
13.4749 12.655
13.4901 12.675
13.5053 12.647
13.5205 12.570
13.5356 12.551
13.5508 12.645
13.5660 12.415
13.5812 12.363
13.5963 12.266
13.6115 12.357
13.6267 12.527
13.6419 12.575
13.6570 12.314
13.6722 12.168
13.6874 12.453
13.7026 12.306
13.7177 12.332
13.7329 12.295
13.7481 12.449
13.7633 12.356
13.7784 12.391
13.7936 12.072
13.8088 12.233
13.8239 12.384
13.8391 12.605
13.8543 12.759
13.8695 12.445
13.8846 12.408
13.8998 12.430
13.9150 12.294
13.9302 12.277
13.9453 12.239
13.9605 12.099
13.9757 11.958
13.9909 11.840
14.0060 11.802
14.0212 11.687
14.0364 11.542
14.0516 11.340
14.0667 11.615
14.0819 11.783
14.0971 11.817
14.1123 11.644
14.1274 11.556
14.1426 11.598
14.1578 11.337
14.1730 11.671
14.1881 11.537
14.2033 11.501
14.2185 11.823
14.2337 11.906
14.2488 11.780
14.2640 11.589
14.2792 11.721
14.2944 11.585
14.3095 11.838
14.3247 11.993
14.3399 11.980
14.3551 11.888
14.3702 12.205
14.3854 12.650
14.4006 12.748
14.4158 12.806
14.4309 12.514
14.4461 12.608
14.4613 12.169
14.4765 12.212
14.4916 11.811
14.5068 12.013
14.5220 11.887
14.5372 11.561
14.5523 11.267
14.5675 11.302
14.5827 11.167
14.5979 11.012
14.6130 11.347
14.6282 11.480
14.6434 11.142
14.6586 11.364
14.6737 10.987
14.6889 10.859
14.7041 11.059
14.7193 11.221
14.7344 11.030
14.7496 10.965
14.7648 10.568
14.7800 10.871
14.7951 11.131
14.8103 11.216
14.8255 10.813
14.8407 10.857
14.8558 11.114
14.8710 10.876
14.8862 10.812
14.9014 10.661
14.9165 10.773
14.9317 10.703
14.9469 10.389
14.9621 10.533
14.9772 10.692
14.9924 10.676
15.0076 10.480
15.0228 10.633
15.0379 10.643
15.0531 9.994
15.0683 10.306
15.0835 10.849
15.0986 10.254
15.1138 10.572
15.1290 10.321
15.1442 10.613
15.1593 10.670
15.1745 10.568
15.1897 10.461
15.2049 10.420
15.2200 10.475
15.2352 10.823
15.2504 10.376
15.2656 10.433
15.2807 10.620
15.2959 10.242
15.3111 10.017
15.3263 10.419
15.3414 10.388
15.3566 10.016
15.3718 10.500
15.3870 10.623
15.4021 10.634
15.4173 10.269
15.4325 10.500
15.4477 10.640
15.4628 10.655
15.4780 10.695
15.4932 10.669
15.5084 10.645
15.5235 10.311
15.5387 9.895
15.5539 10.285
15.5691 10.350
15.5842 10.009
15.5994 10.198
15.6146 10.016
15.6298 9.881
15.6449 9.770
15.6601 10.045
15.6753 9.929
15.6905 9.958
15.7056 10.162
15.7208 10.100
15.7360 10.064
15.7512 10.200
15.7663 9.841
15.7815 9.927
15.7967 9.980
15.8119 9.942
15.8270 10.337
15.8422 9.969
15.8574 9.856
15.8726 9.695
15.8877 9.663
15.9029 9.614
15.9181 9.751
15.9333 9.868
15.9484 10.086
15.9636 9.990
15.9788 9.607
15.9940 10.058
16.0091 9.719
16.0243 9.805
16.0395 9.553
16.0547 9.765
16.0698 9.696
16.0850 9.881
16.1002 9.871
16.1154 9.935
16.1305 9.803
16.1457 9.468
16.1609 9.573
16.1761 9.815
16.1912 9.796
16.2064 9.649
16.2216 10.019
16.2368 9.996
16.2519 10.098
16.2671 9.979
16.2823 10.160
16.2975 9.937
16.3126 10.050
16.3278 9.863
16.3430 10.047
16.3582 10.256
16.3733 10.247
16.3885 10.438
16.4037 9.983
16.4189 9.712
16.4340 9.952
16.4492 10.003
16.4644 9.748
16.4796 9.754
16.4947 9.821
16.5099 9.852
16.5251 9.808
16.5403 9.787
16.5554 9.538
16.5706 9.726
16.5858 9.749
16.6010 9.796
16.6161 9.887
16.6313 10.018
16.6465 9.847
16.6617 9.738
16.6768 9.822
16.6920 10.076
16.7072 10.179
16.7224 10.021
16.7375 10.038
16.7527 10.100
16.7679 10.251
16.7831 10.065
16.7982 10.097
16.8134 9.988
16.8286 9.918
16.8438 9.905
16.8589 9.816
16.8741 9.848
16.8893 9.815
16.9045 9.875
16.9196 10.029
16.9348 9.936
16.9500 9.865
16.9652 10.076
16.9803 9.990
16.9955 10.134
17.0107 10.077
17.0259 10.143
17.0410 10.253
17.0562 10.236
17.0714 10.405
17.0866 10.698
17.1017 10.868
17.1169 10.825
17.1321 11.147
17.1473 11.672
17.1624 11.966
17.1776 12.440
17.1928 13.180
17.2080 14.241
17.2231 15.373
17.2383 16.519
17.2535 17.704
17.2687 18.514
17.2838 18.722
17.2990 18.567
17.3142 17.723
17.3294 16.527
17.3445 16.155
17.3597 16.368
17.3749 16.193
17.3901 15.388
17.4052 14.383
17.4204 13.223
17.4356 12.218
17.4508 11.911
17.4659 11.680
17.4811 11.277
17.4963 11.329
17.5115 11.233
17.5266 10.735
17.5418 10.677
17.5570 10.824
17.5722 10.756
17.5873 10.812
17.6025 10.979
17.6177 10.914
17.6329 10.618
17.6480 10.501
17.6632 10.397
17.6784 10.439
17.6936 10.685
17.7087 10.529
17.7239 10.350
17.7391 10.367
17.7543 10.402
17.7694 10.254
17.7846 10.296
17.7998 10.418
17.8150 10.407
17.8301 10.374
17.8453 10.221
17.8605 10.442
17.8757 10.594
17.8908 10.495
17.9060 10.352
17.9212 10.427
17.9364 10.458
17.9515 10.342
17.9667 10.283
17.9819 10.271
17.9971 10.237
18.0122 10.372
18.0274 10.319
18.0426 10.270
18.0578 10.333
18.0729 10.321
18.0881 10.241
18.1033 10.064
18.1185 10.206
18.1336 10.231
18.1488 10.104
18.1640 9.792
18.1792 9.856
18.1943 9.975
18.2095 9.971
18.2247 10.021
18.2399 9.994
18.2550 9.919
18.2702 9.969
18.2854 10.015
18.3006 9.878
18.3157 9.812
18.3309 9.872
18.3461 9.873
18.3613 9.786
18.3764 9.699
18.3916 9.414
18.4068 9.680
18.4220 9.768
18.4371 9.642
18.4523 9.831
18.4675 9.810
18.4827 9.763
18.4978 9.648
18.5130 9.805
18.5282 9.815
18.5434 9.760
18.5585 9.751
18.5737 9.767
18.5889 9.849
18.6041 9.817
18.6192 9.692
18.6344 9.914
18.6496 10.071
18.6648 10.008
18.6799 9.795
18.6951 9.795
18.7103 9.637
18.7255 9.851
18.7406 9.814
18.7558 9.838
18.7710 9.808
18.7862 9.978
18.8013 9.911
18.8165 9.526
18.8317 9.989
18.8469 10.302
18.8620 9.957
18.8772 10.220
18.8924 10.228
18.9076 10.134
18.9227 10.036
18.9379 10.182
18.9531 10.343
18.9683 10.186
18.9834 10.026
18.9986 10.129
19.0138 10.213
19.0290 10.104
19.0441 10.148
19.0593 10.352
19.0745 10.375
19.0897 10.401
19.1048 10.587
19.1200 10.544
19.1352 10.391
19.1504 10.465
19.1655 10.361
19.1807 10.389
19.1959 10.770
19.2111 10.633
19.2262 10.524
19.2414 10.602
19.2566 10.775
19.2718 10.926
19.2869 10.948
19.3021 10.856
19.3173 10.806
19.3325 11.010
19.3476 11.262
19.3628 11.064
19.3780 10.969
19.3932 11.110
19.4083 11.060
19.4235 11.152
19.4387 11.339
19.4539 11.381
19.4690 11.552
19.4842 11.549
19.4994 11.460
19.5146 11.365
19.5297 11.383
19.5449 11.371
19.5601 11.387
19.5753 11.587
19.5904 11.453
19.6056 11.618
19.6208 11.784
19.6360 11.700
19.6511 11.555
19.6663 11.581
19.6815 11.885
19.6967 11.854
19.7118 11.945
19.7270 12.043
19.7422 11.993
19.7574 11.905
19.7725 11.717
19.7877 11.719
19.8029 11.816
19.8180 11.913
19.8332 12.035
19.8484 11.978
19.8636 12.086
19.8787 12.583
19.8939 12.918
19.9091 13.235
19.9243 13.529
19.9394 13.723
19.9546 13.978
19.9698 14.289
19.9850 14.406
20.0001 14.203
20.0153 14.074
20.0305 14.010
20.0457 13.797
20.0608 13.814
20.0760 13.868
20.0912 13.863
20.1064 13.819
20.1215 13.249
20.1367 13.114
20.1519 12.889
20.1671 12.576
20.1822 12.877
20.1974 12.862
20.2126 12.648
20.2278 12.720
20.2429 12.746
20.2581 12.306
20.2733 12.105
20.2885 12.094
20.3036 12.057
20.3188 12.038
20.3340 11.775
20.3492 11.641
20.3643 11.355
20.3795 11.138
20.3947 11.147
20.4099 11.326
20.4250 11.060
20.4402 11.097
20.4554 11.047
20.4706 11.138
20.4857 10.932
20.5009 10.913
20.5161 10.925
20.5313 10.530
20.5464 10.686
20.5616 10.705
20.5768 10.711
20.5920 10.567
20.6071 10.447
20.6223 10.659
20.6375 10.386
20.6527 10.664
20.6678 10.564
20.6830 10.574
20.6982 10.491
20.7134 10.356
20.7285 10.600
20.7437 10.591
20.7589 10.610
20.7741 10.209
20.7892 10.499
20.8044 10.082
20.8196 10.240
20.8348 10.205
20.8499 10.186
20.8651 10.181
20.8803 10.287
20.8955 10.246
20.9106 10.350
20.9258 10.057
20.9410 10.326
20.9562 10.252
20.9713 10.292
20.9865 10.369
21.0017 10.320
21.0169 10.363
21.0320 10.340
21.0472 10.060
21.0624 9.862
21.0776 9.790
21.0927 10.032
21.1079 10.022
21.1231 9.884
21.1383 9.882
21.1534 10.099
21.1686 10.158
21.1838 9.879
21.1990 9.835
21.2141 9.969
21.2293 9.780
21.2445 9.548
21.2597 9.720
21.2748 9.758
21.2900 9.659
21.3052 9.709
21.3204 9.632
21.3355 9.819
21.3507 9.559
21.3659 9.902
21.3811 9.775
21.3962 9.337
21.4114 9.353
21.4266 9.499
21.4418 9.508
21.4569 9.412
21.4721 9.324
21.4873 9.410
21.5025 9.403
21.5176 9.376
21.5328 9.549
21.5480 9.222
21.5632 9.358
21.5783 9.572
21.5935 9.169
21.6087 9.148
21.6239 9.042
21.6390 9.320
21.6542 9.387
21.6694 9.117
21.6846 9.193
21.6997 9.210
21.7149 9.120
21.7301 9.131
21.7453 9.145
21.7604 9.042
21.7756 9.154
21.7908 9.141
21.8060 8.938
21.8211 8.940
21.8363 8.890
21.8515 9.198
21.8667 9.197
21.8818 8.995
21.8970 8.915
21.9122 8.943
21.9274 8.917
21.9425 8.788
21.9577 8.828
21.9729 8.779
21.9881 8.794
22.0032 8.963
22.0184 8.997
22.0336 9.020
22.0488 8.907
22.0639 8.921
22.0791 8.866
22.0943 8.765
22.1095 8.914
22.1246 8.764
22.1398 8.623
22.1550 8.727
22.1702 8.600
22.1853 8.765
22.2005 8.934
22.2157 8.610
22.2309 8.626
22.2460 8.679
22.2612 8.726
22.2764 8.674
22.2916 8.479
22.3067 8.492
22.3219 8.548
22.3371 8.798
22.3523 8.763
22.3674 8.602
22.3826 8.387
22.3978 8.577
22.4130 8.807
22.4281 8.972
22.4433 8.434
22.4585 8.438
22.4737 8.353
22.4888 8.367
22.5040 8.411
22.5192 8.216
22.5344 8.792
22.5495 8.619
22.5647 8.223
22.5799 8.742
22.5951 8.288
22.6102 8.805
22.6254 8.412
22.6406 8.379
22.6558 8.554
22.6709 8.576
22.6861 8.776
22.7013 8.544
22.7165 8.066
22.7316 6.587
