'Id: "" Comment: "" Operator: "Lab Manager" Anode: "Mo" Scantype: "Still (Eiger2R_500K (1D mode))" TimePerStep: "300" X: "11.8" Y: "9.4" Z: "11.284" 
7.2532 19.373
7.2684 19.212
7.2836 19.273
7.2987 18.643
7.3139 19.466
7.3291 19.721
7.3443 19.555
7.3594 19.753
7.3746 19.633
7.3898 20.018
7.4050 19.586
7.4201 19.922
7.4353 19.825
7.4505 19.316
7.4657 19.882
7.4808 20.133
7.4960 19.807
7.5112 19.847
7.5264 19.776
7.5415 19.766
7.5567 19.952
7.5719 20.114
7.5871 20.234
7.6022 20.240
7.6174 19.970
7.6326 19.810
7.6478 20.246
7.6629 20.685
7.6781 20.907
7.6933 20.788
7.7085 20.762
7.7236 20.691
7.7388 20.479
7.7540 20.531
7.7692 20.621
7.7843 20.655
7.7995 21.046
7.8147 21.271
7.8299 21.250
7.8450 21.300
7.8602 21.141
7.8754 21.386
7.8905 21.068
7.9057 20.801
7.9209 21.065
7.9361 21.141
7.9512 21.129
7.9664 21.030
7.9816 21.578
7.9968 21.503
8.0119 21.132
8.0271 21.643
8.0423 21.707
8.0575 21.315
8.0726 20.890
8.0878 21.507
8.1030 21.373
8.1182 21.517
8.1333 21.903
8.1485 21.997
8.1637 22.059
8.1789 22.119
8.1940 21.956
8.2092 21.922
8.2244 21.992
8.2396 22.263
8.2547 21.829
8.2699 22.175
8.2851 21.802
8.3003 22.100
8.3154 22.163
8.3306 21.786
8.3458 21.963
8.3610 22.203
8.3761 22.258
8.3913 22.020
8.4065 21.930
8.4217 21.993
8.4368 22.418
8.4520 22.294
8.4672 22.396
8.4824 21.975
8.4975 22.206
8.5127 21.249
8.5279 22.737
8.5431 22.284
8.5582 22.283
8.5734 22.363
8.5886 22.329
8.6038 22.382
8.6189 22.637
8.6341 22.792
8.6493 22.631
8.6645 22.685
8.6796 22.445
8.6948 22.400
8.7100 22.786
8.7252 22.398
8.7403 22.735
8.7555 22.642
8.7707 22.943
8.7859 22.749
8.8010 23.033
8.8162 22.734
8.8314 22.573
8.8466 22.914
8.8617 23.132
8.8769 22.803
8.8921 22.713
8.9073 22.732
8.9224 23.314
8.9376 23.264
8.9528 23.150
8.9680 23.250
8.9831 23.394
8.9983 22.919
9.0135 22.951
9.0287 23.154
9.0438 23.123
9.0590 22.820
9.0742 22.803
9.0894 23.087
9.1045 23.391
9.1197 23.317
9.1349 23.309
9.1501 23.246
9.1652 23.420
9.1804 23.101
9.1956 23.176
9.2108 23.373
9.2259 23.570
9.2411 23.615
9.2563 23.748
9.2715 23.510
9.2866 23.863
9.3018 23.664
9.3170 23.186
9.3322 23.019
9.3473 23.214
9.3625 23.492
9.3777 23.426
9.3929 23.626
9.4080 23.535
9.4232 23.531
9.4384 23.442
9.4536 23.324
9.4687 23.318
9.4839 23.337
9.4991 23.468
9.5143 23.455
9.5294 23.523
9.5446 23.601
9.5598 23.816
9.5750 23.815
9.5901 23.618
9.6053 23.592
9.6205 23.827
9.6357 23.959
9.6508 23.968
9.6660 24.051
9.6812 24.128
9.6964 24.099
9.7115 24.061
9.7267 24.438
9.7419 24.654
9.7571 24.414
9.7722 24.156
9.7874 23.930
9.8026 24.040
9.8178 24.491
9.8329 24.400
9.8481 24.130
9.8633 24.308
9.8785 24.443
9.8936 24.334
9.9088 24.407
9.9240 24.570
9.9392 24.716
9.9543 24.500
9.9695 24.053
9.9847 24.064
9.9999 24.203
10.0150 24.115
10.0302 23.947
10.0454 23.805
10.0606 23.676
10.0757 23.537
10.0909 23.684
10.1061 24.077
10.1213 24.260
10.1364 24.225
10.1516 24.095
10.1668 24.270
10.1820 24.516
10.1971 23.964
10.2123 23.927
10.2275 23.983
10.2427 23.903
10.2578 24.080
10.2730 23.734
10.2882 23.213
10.3034 23.499
10.3185 23.398
10.3337 23.513
10.3489 23.549
10.3641 23.403
10.3792 23.521
10.3944 23.642
10.4096 23.603
10.4248 23.684
10.4399 23.485
10.4551 23.266
10.4703 23.482
10.4855 23.519
10.5006 23.560
10.5158 23.133
10.5310 23.314
10.5462 23.295
10.5613 23.183
10.5765 22.821
10.5917 22.772
10.6069 23.055
10.6220 22.976
10.6372 23.230
10.6524 23.161
10.6676 23.191
10.6827 23.125
10.6979 22.793
10.7131 22.590
10.7283 22.583
10.7434 22.566
10.7586 22.751
10.7738 22.805
10.7890 22.401
10.8041 22.450
10.8193 22.411
10.8345 22.232
10.8497 22.349
10.8648 22.610
10.8800 22.692
10.8952 22.734
10.9104 22.295
10.9255 22.501
10.9407 22.417
10.9559 22.176
10.9711 22.385
10.9862 22.383
11.0014 22.509
11.0166 22.725
11.0318 22.557
11.0469 21.673
11.0621 22.300
11.0773 22.091
11.0925 21.911
11.1076 22.234
11.1228 21.851
11.1380 22.219
11.1532 22.488
11.1683 22.220
11.1835 21.943
11.1987 22.062
11.2139 21.913
11.2290 21.912
11.2442 21.836
11.2594 21.983
11.2746 21.752
11.2897 21.744
11.3049 21.681
11.3201 21.938
11.3353 22.067
11.3504 21.822
11.3656 21.351
11.3808 21.677
11.3960 21.921
11.4111 21.796
11.4263 21.518
11.4415 21.585
11.4567 21.878
11.4718 21.492
11.4870 21.299
11.5022 21.502
11.5174 21.711
11.5325 21.298
11.5477 21.430
11.5629 21.292
11.5781 21.284
11.5932 20.978
11.6084 21.374
11.6236 21.522
11.6388 21.102
11.6539 20.711
11.6691 20.986
11.6843 20.919
11.6995 20.711
11.7146 20.811
11.7298 20.758
11.7450 20.929
11.7602 20.441
11.7753 20.438
11.7905 20.426
11.8057 20.435
11.8209 20.253
11.8360 20.118
11.8512 20.239
11.8664 20.195
11.8816 19.985
11.8967 19.367
11.9119 19.560
11.9271 19.544
11.9423 19.512
11.9574 19.791
11.9726 19.717
11.9878 19.470
12.0030 19.510
12.0181 19.404
12.0333 19.462
12.0485 19.255
12.0637 19.006
12.0788 18.980
12.0940 18.669
12.1092 18.693
12.1244 18.695
12.1395 18.748
12.1547 18.967
12.1699 18.863
12.1851 18.521
12.2002 18.296
12.2154 18.394
12.2306 18.467
12.2458 18.092
12.2609 17.792
12.2761 17.709
12.2913 18.034
12.3065 17.854
12.3216 17.676
12.3368 17.465
12.3520 17.610
12.3672 17.596
12.3823 17.317
12.3975 17.555
12.4127 17.430
12.4279 17.536
12.4430 17.202
12.4582 17.040
12.4734 17.103
12.4886 16.978
12.5037 16.773
12.5189 16.812
12.5341 16.536
12.5493 16.427
12.5644 16.311
12.5796 16.330
12.5948 16.330
12.6100 16.091
12.6251 16.134
12.6403 16.234
12.6555 16.108
12.6707 15.725
12.6858 15.663
12.7010 15.401
12.7162 15.543
12.7314 15.718
12.7465 15.755
12.7617 15.606
12.7769 15.501
12.7921 15.442
12.8072 15.163
12.8224 14.993
12.8376 14.982
12.8528 14.918
12.8679 14.834
12.8831 14.761
12.8983 14.654
12.9135 14.496
12.9286 14.459
12.9438 14.516
12.9590 14.585
12.9742 14.574
12.9893 14.597
13.0045 14.718
13.0197 14.429
13.0349 14.310
13.0500 14.285
13.0652 13.913
13.0804 13.760
13.0956 14.078
13.1107 14.140
13.1259 13.773
13.1411 13.755
13.1563 13.768
13.1714 13.645
13.1866 13.791
13.2018 13.628
13.2170 13.383
13.2321 13.588
13.2473 13.803
13.2625 13.701
13.2777 13.540
13.2928 13.412
13.3080 13.263
13.3232 13.175
13.3384 13.201
13.3535 13.376
13.3687 13.092
13.3839 13.071
13.3991 13.107
13.4142 13.065
13.4294 13.169
13.4446 12.925
13.4598 12.850
13.4749 12.893
13.4901 12.900
13.5053 12.801
13.5205 12.619
13.5356 12.450
13.5508 12.241
13.5660 12.161
13.5812 12.479
13.5963 12.472
13.6115 12.327
13.6267 12.358
13.6419 12.294
13.6570 12.002
13.6722 12.146
13.6874 12.108
13.7026 12.158
13.7177 12.162
13.7329 12.193
13.7481 12.471
13.7633 12.426
13.7784 12.085
13.7936 12.032
13.8088 12.210
13.8239 12.382
13.8391 12.232
13.8543 12.560
13.8695 12.273
13.8846 12.178
13.8998 12.295
13.9150 12.160
13.9302 12.024
13.9453 11.840
13.9605 11.697
13.9757 11.791
13.9909 11.788
14.0060 11.777
14.0212 11.460
14.0364 11.384
14.0516 11.426
14.0667 11.408
14.0819 11.466
14.0971 11.513
14.1123 11.295
14.1274 11.392
14.1426 11.464
14.1578 11.450
14.1730 11.074
14.1881 11.371
14.2033 11.386
14.2185 11.339
14.2337 11.655
14.2488 11.642
14.2640 11.814
14.2792 11.742
14.2944 11.575
14.3095 11.798
14.3247 12.139
14.3399 12.374
14.3551 12.625
14.3702 13.146
14.3854 13.384
14.4006 14.011
14.4158 14.794
14.4309 15.059
14.4461 15.091
14.4613 14.675
14.4765 14.009
14.4916 13.935
14.5068 14.079
14.5220 13.735
14.5372 13.324
14.5523 12.371
14.5675 11.757
14.5827 11.935
14.5979 11.524
14.6130 11.048
14.6282 11.149
14.6434 11.318
14.6586 11.077
14.6737 11.269
14.6889 11.200
14.7041 10.943
14.7193 11.243
14.7344 11.214
14.7496 11.246
14.7648 11.244
14.7800 11.052
14.7951 11.255
14.8103 11.258
14.8255 11.040
14.8407 11.081
14.8558 10.863
14.8710 11.013
14.8862 11.080
14.9014 11.152
14.9165 11.399
14.9317 11.035
14.9469 10.845
14.9621 10.873
14.9772 10.920
14.9924 10.925
15.0076 10.471
15.0228 10.583
15.0379 10.919
15.0531 10.730
15.0683 10.593
15.0835 10.316
15.0986 10.910
15.1138 10.791
15.1290 10.517
15.1442 10.688
15.1593 10.224
15.1745 10.389
15.1897 10.576
15.2049 10.262
15.2200 10.554
15.2352 10.622
15.2504 10.532
15.2656 10.395
15.2807 10.485
15.2959 10.274
15.3111 10.436
15.3263 10.657
15.3414 10.323
15.3566 10.505
15.3718 10.240
15.3870 10.651
15.4021 10.477
15.4173 10.385
15.4325 10.644
15.4477 10.625
15.4628 10.453
15.4780 10.680
15.4932 10.295
15.5084 10.557
15.5235 10.364
15.5387 10.420
15.5539 10.477
15.5691 10.268
15.5842 10.380
15.5994 10.680
15.6146 10.070
15.6298 10.248
15.6449 10.242
15.6601 10.269
15.6753 10.179
15.6905 10.017
15.7056 10.230
15.7208 9.915
15.7360 9.839
15.7512 9.909
15.7663 10.068
15.7815 10.073
15.7967 10.055
15.8119 9.980
15.8270 9.966
15.8422 9.791
15.8574 10.025
15.8726 9.729
15.8877 9.595
15.9029 9.648
15.9181 9.693
15.9333 9.867
15.9484 9.658
15.9636 9.956
15.9788 9.927
15.9940 10.101
16.0091 9.796
16.0243 9.649
16.0395 10.132
16.0547 10.166
16.0698 10.092
16.0850 10.122
16.1002 9.798
16.1154 9.864
16.1305 9.849
16.1457 9.807
16.1609 9.953
16.1761 9.802
16.1912 9.797
16.2064 9.834
16.2216 9.815
16.2368 10.247
16.2519 10.400
16.2671 10.231
16.2823 10.237
16.2975 10.059
16.3126 10.196
16.3278 9.780
16.3430 10.042
16.3582 10.397
16.3733 10.116
16.3885 10.351
16.4037 10.228
16.4189 10.220
16.4340 9.959
16.4492 9.916
16.4644 9.891
16.4796 9.973
16.4947 9.947
16.5099 10.038
16.5251 9.931
16.5403 9.814
16.5554 9.763
16.5706 9.834
16.5858 10.068
16.6010 10.149
16.6161 10.075
16.6313 9.973
16.6465 9.950
16.6617 10.168
16.6768 9.899
16.6920 10.126
16.7072 10.393
16.7224 10.378
16.7375 10.352
16.7527 10.021
16.7679 10.067
16.7831 10.254
16.7982 10.090
16.8134 9.894
16.8286 10.137
16.8438 10.300
16.8589 10.180
16.8741 9.865
16.8893 9.961
16.9045 10.042
16.9196 9.967
16.9348 9.847
16.9500 9.793
16.9652 9.816
16.9803 9.773
16.9955 9.964
17.0107 10.097
17.0259 10.299
17.0410 10.145
17.0562 10.158
17.0714 10.341
17.0866 10.569
17.1017 10.739
17.1169 10.933
17.1321 11.212
17.1473 11.400
17.1624 11.899
17.1776 12.389
17.1928 13.099
17.2080 14.144
17.2231 15.062
17.2383 16.378
17.2535 17.757
17.2687 18.612
17.2838 18.762
17.2990 18.285
17.3142 17.305
17.3294 16.330
17.3445 16.016
17.3597 16.164
17.3749 15.956
17.3901 15.303
17.4052 14.394
17.4204 13.287
17.4356 12.355
17.4508 11.931
17.4659 11.785
17.4811 11.365
17.4963 11.362
17.5115 11.309
17.5266 10.816
17.5418 10.529
17.5570 10.482
17.5722 10.667
17.5873 10.648
17.6025 10.695
17.6177 11.099
17.6329 11.299
17.6480 11.319
17.6632 11.629
17.6784 11.989
17.6936 12.521
17.7087 13.177
17.7239 13.059
17.7391 12.487
17.7543 12.220
17.7694 12.240
17.7846 12.453
17.7998 12.570
17.8150 12.671
17.8301 12.634
17.8453 12.131
17.8605 11.928
17.8757 11.811
17.8908 11.760
17.9060 11.719
17.9212 11.443
17.9364 11.257
17.9515 11.082
17.9667 11.274
17.9819 11.226
17.9971 10.802
18.0122 10.716
18.0274 10.706
18.0426 10.823
18.0578 10.550
18.0729 10.163
18.0881 10.181
18.1033 10.211
18.1185 10.063
18.1336 10.276
18.1488 10.268
18.1640 10.206
18.1792 10.443
18.1943 10.320
18.2095 10.033
18.2247 9.980
18.2399 10.057
18.2550 10.055
18.2702 10.099
18.2854 10.191
18.3006 10.009
18.3157 10.020
18.3309 10.054
18.3461 10.125
18.3613 10.006
18.3764 10.234
18.3916 10.196
18.4068 9.974
18.4220 10.026
18.4371 9.989
18.4523 9.886
18.4675 9.772
18.4827 9.861
18.4978 10.092
18.5130 10.115
18.5282 10.117
18.5434 9.999
18.5585 9.932
18.5737 10.049
18.5889 9.813
18.6041 10.016
18.6192 10.081
18.6344 9.963
18.6496 9.759
18.6648 10.063
18.6799 9.953
18.6951 9.976
18.7103 9.798
18.7255 9.931
18.7406 10.093
18.7558 10.071
18.7710 10.181
18.7862 10.216
18.8013 9.800
18.8165 9.871
18.8317 10.134
18.8469 10.211
18.8620 10.106
18.8772 10.157
18.8924 10.147
18.9076 10.089
18.9227 10.078
18.9379 10.094
18.9531 10.198
18.9683 10.165
18.9834 10.240
18.9986 10.235
19.0138 10.292
19.0290 10.281
19.0441 10.370
19.0593 10.268
19.0745 10.140
19.0897 10.297
19.1048 10.481
19.1200 10.517
19.1352 10.361
19.1504 10.388
19.1655 10.612
19.1807 10.789
19.1959 10.647
19.2111 10.769
19.2262 11.008
19.2414 10.981
19.2566 10.867
19.2718 10.803
19.2869 10.591
19.3021 10.892
19.3173 11.441
19.3325 11.498
19.3476 11.288
19.3628 11.291
19.3780 11.204
19.3932 11.115
19.4083 11.140
19.4235 11.251
19.4387 11.294
19.4539 11.359
19.4690 11.383
19.4842 11.570
19.4994 11.694
19.5146 11.639
19.5297 11.571
19.5449 11.612
19.5601 11.520
19.5753 11.566
19.5904 11.727
19.6056 11.804
19.6208 11.632
19.6360 11.615
19.6511 11.815
19.6663 11.730
19.6815 11.806
19.6967 11.923
19.7118 11.725
19.7270 11.665
19.7422 11.857
19.7574 11.902
19.7725 11.807
19.7877 11.815
19.8029 11.805
19.8180 11.958
19.8332 12.315
19.8484 12.359
19.8636 12.321
19.8787 12.588
19.8939 13.219
19.9091 13.303
19.9243 13.205
19.9394 13.900
19.9546 14.265
19.9698 14.623
19.9850 14.752
20.0001 14.496
20.0153 14.463
20.0305 14.250
20.0457 14.041
20.0608 14.067
20.0760 13.848
20.0912 13.997
20.1064 13.733
20.1215 13.301
20.1367 13.142
20.1519 13.133
20.1671 13.137
20.1822 12.784
20.1974 12.778
20.2126 12.694
20.2278 12.871
20.2429 12.673
20.2581 12.243
20.2733 11.923
20.2885 11.925
20.3036 11.926
20.3188 11.788
20.3340 11.686
20.3492 11.612
20.3643 11.477
20.3795 11.175
20.3947 11.248
20.4099 11.391
20.4250 11.386
20.4402 11.824
20.4554 11.993
20.4706 11.980
20.4857 12.450
20.5009 12.374
20.5161 11.900
20.5313 11.944
20.5464 11.741
20.5616 11.777
20.5768 11.637
20.5920 11.697
20.6071 11.702
20.6223 11.625
20.6375 11.392
20.6527 11.106
20.6678 11.044
20.6830 10.695
20.6982 10.428
20.7134 10.854
20.7285 10.498
20.7437 10.487
20.7589 10.456
20.7741 10.509
20.7892 10.332
20.8044 10.387
20.8196 10.595
20.8348 10.644
20.8499 10.622
20.8651 10.425
20.8803 10.664
20.8955 10.461
20.9106 10.483
20.9258 10.328
20.9410 10.743
20.9562 10.624
20.9713 10.519
20.9865 10.450
21.0017 10.847
21.0169 10.399
21.0320 10.487
21.0472 10.543
21.0624 10.324
21.0776 10.430
21.0927 10.002
21.1079 10.234
21.1231 10.321
21.1383 10.278
21.1534 10.033
21.1686 10.093
21.1838 10.102
21.1990 10.042
21.2141 9.994
21.2293 10.254
21.2445 9.818
21.2597 9.424
21.2748 9.603
21.2900 9.725
21.3052 9.341
21.3204 9.783
21.3355 9.680
21.3507 9.448
21.3659 9.766
21.3811 9.554
21.3962 9.654
21.4114 9.548
21.4266 9.611
21.4418 9.659
21.4569 9.259
21.4721 9.491
21.4873 9.322
21.5025 9.452
21.5176 9.303
21.5328 9.264
21.5480 9.349
21.5632 9.518
21.5783 9.339
21.5935 9.379
21.6087 9.250
21.6239 9.116
21.6390 8.974
21.6542 9.356
21.6694 9.121
21.6846 9.202
21.6997 9.459
21.7149 9.111
21.7301 9.213
21.7453 9.017
21.7604 8.981
21.7756 9.140
21.7908 8.956
21.8060 8.933
21.8211 9.184
21.8363 9.166
21.8515 9.062
21.8667 9.108
21.8818 9.187
21.8970 9.246
21.9122 8.964
21.9274 8.803
21.9425 8.743
21.9577 8.982
21.9729 9.165
21.9881 8.943
22.0032 9.024
22.0184 9.143
22.0336 8.972
22.0488 8.846
22.0639 8.825
22.0791 8.686
22.0943 8.695
22.1095 8.671
22.1246 8.900
22.1398 8.831
22.1550 8.654
22.1702 8.777
22.1853 8.785
22.2005 8.690
22.2157 8.609
22.2309 8.589
22.2460 8.765
22.2612 8.552
22.2764 8.553
22.2916 8.822
22.3067 8.646
22.3219 8.609
22.3371 8.486
22.3523 8.610
22.3674 8.615
22.3826 8.232
22.3978 8.428
22.4130 8.437
22.4281 8.631
22.4433 8.595
22.4585 8.298
22.4737 8.436
22.4888 8.609
22.5040 8.814
22.5192 8.120
22.5344 8.693
22.5495 8.852
22.5647 8.432
22.5799 8.401
22.5951 8.455
22.6102 8.488
22.6254 8.417
22.6406 8.430
22.6558 8.400
22.6709 8.452
22.6861 8.292
22.7013 8.316
22.7165 7.985
22.7316 6.471
