'Id: "" Comment: "" Operator: "Lab Manager" Anode: "Mo" Scantype: "Still (Eiger2R_500K (1D mode))" TimePerStep: "300" X: "11.8" Y: "9.4" Z: "11.284" 
7.2532 18.807
7.2684 18.758
7.2836 19.282
7.2987 19.230
7.3139 19.009
7.3291 19.543
7.3443 19.448
7.3594 19.459
7.3746 19.211
7.3898 19.442
7.4050 19.269
7.4201 19.665
7.4353 19.633
7.4505 19.487
7.4657 19.647
7.4808 19.587
7.4960 19.425
7.5112 19.755
7.5264 19.662
7.5415 19.524
7.5567 19.838
7.5719 20.141
7.5871 20.088
7.6022 20.181
7.6174 20.088
7.6326 20.326
7.6478 20.055
7.6629 20.238
7.6781 20.316
7.6933 20.430
7.7085 20.290
7.7236 20.350
7.7388 20.636
7.7540 20.542
7.7692 20.373
7.7843 20.837
7.7995 20.720
7.8147 20.461
7.8299 20.659
7.8450 20.671
7.8602 20.776
7.8754 20.706
7.8905 20.564
7.9057 20.987
7.9209 21.489
7.9361 21.423
7.9512 21.178
7.9664 21.115
7.9816 20.964
7.9968 20.898
8.0119 20.974
8.0271 21.429
8.0423 21.290
8.0575 21.389
8.0726 21.155
8.0878 21.416
8.1030 21.406
8.1182 21.601
8.1333 21.592
8.1485 21.892
8.1637 21.570
8.1789 21.459
8.1940 21.632
8.2092 21.719
8.2244 21.940
8.2396 21.307
8.2547 21.622
8.2699 21.568
8.2851 21.484
8.3003 21.560
8.3154 21.975
8.3306 21.655
8.3458 21.704
8.3610 21.795
8.3761 21.736
8.3913 21.849
8.4065 22.480
8.4217 22.328
8.4368 21.788
8.4520 22.085
8.4672 22.099
8.4824 21.933
8.4975 21.470
8.5127 22.249
8.5279 22.407
8.5431 21.977
8.5582 22.139
8.5734 22.667
8.5886 21.964
8.6038 22.328
8.6189 21.989
8.6341 22.647
8.6493 21.925
8.6645 22.337
8.6796 22.656
8.6948 21.893
8.7100 22.451
8.7252 22.675
8.7403 22.448
8.7555 22.609
8.7707 22.313
8.7859 22.611
8.8010 22.471
8.8162 22.195
8.8314 22.387
8.8466 22.341
8.8617 22.912
8.8769 22.999
8.8921 22.890
8.9073 22.848
8.9224 22.941
8.9376 22.725
8.9528 22.825
8.9680 22.767
8.9831 22.408
8.9983 22.816
9.0135 23.013
9.0287 22.584
9.0438 22.479
9.0590 22.776
9.0742 22.674
9.0894 23.029
9.1045 22.899
9.1197 22.908
9.1349 22.934
9.1501 22.893
9.1652 22.993
9.1804 22.942
9.1956 22.600
9.2108 22.674
9.2259 23.107
9.2411 23.121
9.2563 23.150
9.2715 22.930
9.2866 23.053
9.3018 23.385
9.3170 23.106
9.3322 23.394
9.3473 23.476
9.3625 23.229
9.3777 23.444
9.3929 23.508
9.4080 23.168
9.4232 23.269
9.4384 23.427
9.4536 23.589
9.4687 23.497
9.4839 23.239
9.4991 23.123
9.5143 23.156
9.5294 23.140
9.5446 23.181
9.5598 22.929
9.5750 23.051
9.5901 23.346
9.6053 23.478
9.6205 23.600
9.6357 23.662
9.6508 23.569
9.6660 23.441
9.6812 23.496
9.6964 23.653
9.7115 23.952
9.7267 24.174
9.7419 24.431
9.7571 24.203
9.7722 23.742
9.7874 23.895
9.8026 24.038
9.8178 23.829
9.8329 23.794
9.8481 23.776
9.8633 23.515
9.8785 23.639
9.8936 23.869
9.9088 24.108
9.9240 24.294
9.9392 24.000
9.9543 23.882
9.9695 23.809
9.9847 23.845
9.9999 23.603
10.0150 23.476
10.0302 23.444
10.0454 23.214
10.0606 23.172
10.0757 23.209
10.0909 23.033
10.1061 23.057
10.1213 22.950
10.1364 23.386
10.1516 23.460
10.1668 23.096
10.1820 23.118
10.1971 23.354
10.2123 23.228
10.2275 23.175
10.2427 22.964
10.2578 22.758
10.2730 22.755
10.2882 22.930
10.3034 22.973
10.3185 22.923
10.3337 23.258
10.3489 23.225
10.3641 23.316
10.3792 23.184
10.3944 23.002
10.4096 23.217
10.4248 23.467
10.4399 23.110
10.4551 23.099
10.4703 22.766
10.4855 22.517
10.5006 22.307
10.5158 22.692
10.5310 22.845
10.5462 22.556
10.5613 22.688
10.5765 22.392
10.5917 22.163
10.6069 22.528
10.6220 22.709
10.6372 22.647
10.6524 22.672
10.6676 22.520
10.6827 22.459
10.6979 22.340
10.7131 22.292
10.7283 22.667
10.7434 22.593
10.7586 22.370
10.7738 22.198
10.7890 22.456
10.8041 22.624
10.8193 22.654
10.8345 22.636
10.8497 22.494
10.8648 22.129
10.8800 22.269
10.8952 22.197
10.9104 22.252
10.9255 22.334
10.9407 21.871
10.9559 22.179
10.9711 22.284
10.9862 22.499
11.0014 22.363
11.0166 22.373
11.0318 22.539
11.0469 22.194
11.0621 21.895
11.0773 21.846
11.0925 22.223
11.1076 22.203
11.1228 21.808
11.1380 21.377
11.1532 21.716
11.1683 21.697
11.1835 21.714
11.1987 21.718
11.2139 21.953
11.2290 22.095
11.2442 21.979
11.2594 22.124
11.2746 21.509
11.2897 21.825
11.3049 21.396
11.3201 21.484
11.3353 21.635
11.3504 21.384
11.3656 21.654
11.3808 21.772
11.3960 21.648
11.4111 21.619
11.4263 21.869
11.4415 21.463
11.4567 21.365
11.4718 21.592
11.4870 21.697
11.5022 21.354
11.5174 21.486
11.5325 21.521
11.5477 21.278
11.5629 21.544
11.5781 21.115
11.5932 21.108
11.6084 21.144
11.6236 21.064
11.6388 21.068
11.6539 21.006
11.6691 20.820
11.6843 20.752
11.6995 20.544
11.7146 20.622
11.7298 20.452
11.7450 19.922
11.7602 19.794
11.7753 20.217
11.7905 20.155
11.8057 19.814
11.8209 19.933
11.8360 20.348
11.8512 19.841
11.8664 19.738
11.8816 19.908
11.8967 19.876
11.9119 19.941
11.9271 19.723
11.9423 19.633
11.9574 19.325
11.9726 19.395
11.9878 19.221
12.0030 19.114
12.0181 19.484
12.0333 19.113
12.0485 19.027
12.0637 18.890
12.0788 19.163
12.0940 19.090
12.1092 18.802
12.1244 18.685
12.1395 18.478
12.1547 18.427
12.1699 18.293
12.1851 18.517
12.2002 18.396
12.2154 18.274
12.2306 18.165
12.2458 18.154
12.2609 18.141
12.2761 17.744
12.2913 17.983
12.3065 18.341
12.3216 18.186
12.3368 17.912
12.3520 17.791
12.3672 17.614
12.3823 17.326
12.3975 17.421
12.4127 17.556
12.4279 17.424
12.4430 17.265
12.4582 17.111
12.4734 16.813
12.4886 16.891
12.5037 16.731
12.5189 16.527
12.5341 16.524
12.5493 16.493
12.5644 16.550
12.5796 16.464
12.5948 16.228
12.6100 15.971
12.6251 15.952
12.6403 15.860
12.6555 15.668
12.6707 15.735
12.6858 15.632
12.7010 15.286
12.7162 15.388
12.7314 15.531
12.7465 15.632
12.7617 15.564
12.7769 15.247
12.7921 15.218
12.8072 15.148
12.8224 15.034
12.8376 15.018
12.8528 15.014
12.8679 14.953
12.8831 14.866
12.8983 14.869
12.9135 14.895
12.9286 14.660
12.9438 14.555
12.9590 14.633
12.9742 14.495
12.9893 14.151
13.0045 14.331
13.0197 14.452
13.0349 14.250
13.0500 14.175
13.0652 14.093
13.0804 14.007
13.0956 13.938
13.1107 14.017
13.1259 13.976
13.1411 13.795
13.1563 13.592
13.1714 13.523
13.1866 13.764
13.2018 13.776
13.2170 13.426
13.2321 13.577
13.2473 13.684
13.2625 13.320
13.2777 13.314
13.2928 13.434
13.3080 13.185
13.3232 12.892
13.3384 12.944
13.3535 13.170
13.3687 13.321
13.3839 13.127
13.3991 12.940
13.4142 13.070
13.4294 13.144
13.4446 12.749
13.4598 12.715
13.4749 12.876
13.4901 12.889
13.5053 12.592
13.5205 12.570
13.5356 12.985
13.5508 12.782
13.5660 12.356
13.5812 12.363
13.5963 12.414
13.6115 12.290
13.6267 12.152
13.6419 12.234
13.6570 12.070
13.6722 12.040
13.6874 12.223
13.7026 12.275
13.7177 12.276
13.7329 12.190
13.7481 11.938
13.7633 12.174
13.7784 12.319
13.7936 12.220
13.8088 12.324
13.8239 12.394
13.8391 12.497
13.8543 12.439
13.8695 12.261
13.8846 12.209
13.8998 12.477
13.9150 12.250
13.9302 12.059
13.9453 12.116
13.9605 11.997
13.9757 11.455
13.9909 11.454
14.0060 11.671
14.0212 11.221
14.0364 11.425
14.0516 11.507
14.0667 11.697
14.0819 11.443
14.0971 11.633
14.1123 11.472
14.1274 11.424
14.1426 11.605
14.1578 11.474
14.1730 11.203
14.1881 11.076
14.2033 11.254
14.2185 11.373
14.2337 11.591
14.2488 11.509
14.2640 11.533
14.2792 11.303
14.2944 11.259
14.3095 11.512
14.3247 11.780
14.3399 12.020
14.3551 12.253
14.3702 12.337
14.3854 12.597
14.4006 12.867
14.4158 12.974
14.4309 12.780
14.4461 12.710
14.4613 12.907
14.4765 12.370
14.4916 12.210
14.5068 12.305
14.5220 11.961
14.5372 11.938
14.5523 11.406
14.5675 11.483
14.5827 11.195
14.5979 11.450
14.6130 10.991
14.6282 11.130
14.6434 11.262
14.6586 10.950
14.6737 10.995
14.6889 11.060
14.7041 10.875
14.7193 11.357
14.7344 11.179
14.7496 11.034
14.7648 11.199
14.7800 10.747
14.7951 11.002
14.8103 11.007
14.8255 10.795
14.8407 10.975
14.8558 10.964
14.8710 10.911
14.8862 10.855
14.9014 10.652
14.9165 10.796
14.9317 10.844
14.9469 10.832
14.9621 10.968
14.9772 10.436
14.9924 10.360
15.0076 10.447
15.0228 10.497
15.0379 10.604
15.0531 10.463
15.0683 10.375
15.0835 10.884
15.0986 10.052
15.1138 10.483
15.1290 10.609
15.1442 10.572
15.1593 10.082
15.1745 10.379
15.1897 10.174
15.2049 10.417
15.2200 10.308
15.2352 10.560
15.2504 10.363
15.2656 10.340
15.2807 10.395
15.2959 9.865
15.3111 10.255
15.3263 10.522
15.3414 10.124
15.3566 10.170
15.3718 10.293
15.3870 10.206
15.4021 10.270
15.4173 10.527
15.4325 10.594
15.4477 10.468
15.4628 10.210
15.4780 10.321
15.4932 10.525
15.5084 10.552
15.5235 10.487
15.5387 10.135
15.5539 10.386
15.5691 10.003
15.5842 10.320
15.5994 10.197
15.6146 10.244
15.6298 10.127
15.6449 9.982
15.6601 10.253
15.6753 10.170
15.6905 10.028
15.7056 10.120
15.7208 9.796
15.7360 9.918
15.7512 9.846
15.7663 9.946
15.7815 10.108
15.7967 9.835
15.8119 9.670
15.8270 9.869
15.8422 9.785
15.8574 9.623
15.8726 9.724
15.8877 9.713
15.9029 9.771
15.9181 10.089
15.9333 9.757
15.9484 9.736
15.9636 9.592
15.9788 9.937
15.9940 9.522
16.0091 9.697
16.0243 9.693
16.0395 9.879
16.0547 9.936
16.0698 9.800
16.0850 9.849
16.1002 9.860
16.1154 10.113
16.1305 10.056
16.1457 9.810
16.1609 9.802
16.1761 9.772
16.1912 9.554
16.2064 9.953
16.2216 9.746
16.2368 9.845
16.2519 9.833
16.2671 9.717
16.2823 10.033
16.2975 10.009
16.3126 9.782
16.3278 9.940
16.3430 9.984
16.3582 10.034
16.3733 9.964
16.3885 9.904
16.4037 10.096
16.4189 10.263
16.4340 9.917
16.4492 9.678
16.4644 9.937
16.4796 10.225
16.4947 10.074
16.5099 9.767
16.5251 9.837
16.5403 9.913
16.5554 9.743
16.5706 9.639
16.5858 9.602
16.6010 9.757
16.6161 9.931
16.6313 9.772
16.6465 9.876
16.6617 9.964
16.6768 9.913
16.6920 10.184
16.7072 10.366
16.7224 10.331
16.7375 10.455
16.7527 10.116
16.7679 9.854
16.7831 10.147
16.7982 10.095
16.8134 10.121
16.8286 10.175
16.8438 9.843
16.8589 9.834
16.8741 10.006
16.8893 10.115
16.9045 9.921
16.9196 9.736
16.9348 9.832
16.9500 10.037
16.9652 10.006
16.9803 9.957
16.9955 9.894
17.0107 10.003
17.0259 10.216
17.0410 10.269
17.0562 10.427
17.0714 10.597
17.0866 10.661
17.1017 10.938
17.1169 10.784
17.1321 10.931
17.1473 11.609
17.1624 11.940
17.1776 12.428
17.1928 13.371
17.2080 14.338
17.2231 15.358
17.2383 16.549
17.2535 17.889
17.2687 18.888
17.2838 18.802
17.2990 17.935
17.3142 16.904
17.3294 16.140
17.3445 16.008
17.3597 15.931
17.3749 15.981
17.3901 15.451
17.4052 14.176
17.4204 13.240
17.4356 12.457
17.4508 11.900
17.4659 11.601
17.4811 11.275
17.4963 11.122
17.5115 11.014
17.5266 10.848
17.5418 10.832
17.5570 10.737
17.5722 10.709
17.5873 10.643
17.6025 10.421
17.6177 10.209
17.6329 10.273
17.6480 10.416
17.6632 10.386
17.6784 10.296
17.6936 10.333
17.7087 10.337
17.7239 10.473
17.7391 10.745
17.7543 10.687
17.7694 10.741
17.7846 10.661
17.7998 10.710
17.8150 10.914
17.8301 10.839
17.8453 10.687
17.8605 10.865
17.8757 11.158
17.8908 10.997
17.9060 10.961
17.9212 11.001
17.9364 10.937
17.9515 10.477
17.9667 10.541
17.9819 10.622
17.9971 10.463
18.0122 10.657
18.0274 10.535
18.0426 10.414
18.0578 10.286
18.0729 10.066
18.0881 9.986
18.1033 10.265
18.1185 10.343
18.1336 10.169
18.1488 10.165
18.1640 10.153
18.1792 10.221
18.1943 10.209
18.2095 10.008
18.2247 9.796
18.2399 9.926
18.2550 10.116
18.2702 9.962
18.2854 9.829
18.3006 10.044
18.3157 10.207
18.3309 9.832
18.3461 9.859
18.3613 9.761
18.3764 9.927
18.3916 9.834
18.4068 9.894
18.4220 9.761
18.4371 9.526
18.4523 9.551
18.4675 9.844
18.4827 9.951
18.4978 9.982
18.5130 9.956
18.5282 9.897
18.5434 9.886
18.5585 9.920
18.5737 9.597
18.5889 9.822
18.6041 10.032
18.6192 9.838
18.6344 9.889
18.6496 9.854
18.6648 9.625
18.6799 9.759
18.6951 9.938
18.7103 9.843
18.7255 9.733
18.7406 9.781
18.7558 9.890
18.7710 9.789
18.7862 9.807
18.8013 9.972
18.8165 9.826
18.8317 9.925
18.8469 9.739
18.8620 9.730
18.8772 9.978
18.8924 10.171
18.9076 10.131
18.9227 9.987
18.9379 9.939
18.9531 9.922
18.9683 10.135
18.9834 10.463
18.9986 10.256
19.0138 9.956
19.0290 9.946
19.0441 9.957
19.0593 10.271
19.0745 10.161
19.0897 10.249
19.1048 10.393
19.1200 10.165
19.1352 10.345
19.1504 10.523
19.1655 10.537
19.1807 10.628
19.1959 10.598
19.2111 10.689
19.2262 10.665
19.2414 10.657
19.2566 10.879
19.2718 10.909
19.2869 10.895
19.3021 11.044
19.3173 11.155
19.3325 11.059
19.3476 10.942
19.3628 10.929
19.3780 11.184
19.3932 11.349
19.4083 11.073
19.4235 11.241
19.4387 11.379
19.4539 11.379
19.4690 11.303
19.4842 11.545
19.4994 11.677
19.5146 11.492
19.5297 11.278
19.5449 11.365
19.5601 11.562
19.5753 11.473
19.5904 11.496
19.6056 11.552
19.6208 11.290
19.6360 11.339
19.6511 11.800
19.6663 11.658
19.6815 11.476
19.6967 11.839
19.7118 11.914
19.7270 11.713
19.7422 11.710
19.7574 12.019
19.7725 11.907
19.7877 11.655
19.8029 11.911
19.8180 12.252
19.8332 12.340
19.8484 12.354
19.8636 12.491
19.8787 12.451
19.8939 12.667
19.9091 13.075
19.9243 13.493
19.9394 14.090
19.9546 14.341
19.9698 14.574
19.9850 14.905
20.0001 14.577
20.0153 14.287
20.0305 13.936
20.0457 13.752
20.0608 13.950
20.0760 13.890
20.0912 13.954
20.1064 14.006
20.1215 13.785
20.1367 13.274
20.1519 13.109
20.1671 13.037
20.1822 12.982
20.1974 12.945
20.2126 12.899
20.2278 12.591
20.2429 12.249
20.2581 12.177
20.2733 11.962
20.2885 11.624
20.3036 11.678
20.3188 11.653
20.3340 11.303
20.3492 11.487
20.3643 11.415
20.3795 11.219
20.3947 11.530
20.4099 11.204
20.4250 11.114
20.4402 10.955
20.4554 10.940
20.4706 10.650
20.4857 10.803
20.5009 10.994
20.5161 10.796
20.5313 11.188
20.5464 10.906
20.5616 10.613
20.5768 10.487
20.5920 10.511
20.6071 10.722
20.6223 10.723
20.6375 10.499
20.6527 10.440
20.6678 10.508
20.6830 10.585
20.6982 10.313
20.7134 10.417
20.7285 10.119
20.7437 10.371
20.7589 10.499
20.7741 10.261
20.7892 10.378
20.8044 10.451
20.8196 10.465
20.8348 10.435
20.8499 10.191
20.8651 10.349
20.8803 10.128
20.8955 10.383
20.9106 10.241
20.9258 10.438
20.9410 10.548
20.9562 10.267
20.9713 10.430
20.9865 10.437
21.0017 10.421
21.0169 10.563
21.0320 10.394
21.0472 10.173
21.0624 10.299
21.0776 9.808
21.0927 10.040
21.1079 10.123
21.1231 10.107
21.1383 10.224
21.1534 9.803
21.1686 9.913
21.1838 9.913
21.1990 9.739
21.2141 9.674
21.2293 9.945
21.2445 9.686
21.2597 9.737
21.2748 9.677
21.2900 9.227
21.3052 9.424
21.3204 9.768
21.3355 9.322
21.3507 9.381
21.3659 9.558
21.3811 9.785
21.3962 9.644
21.4114 9.573
21.4266 9.462
21.4418 9.598
21.4569 9.545
21.4721 9.237
21.4873 9.262
21.5025 9.456
21.5176 9.306
21.5328 9.440
21.5480 9.308
21.5632 9.550
21.5783 9.424
21.5935 9.339
21.6087 9.267
21.6239 9.374
21.6390 9.279
21.6542 9.268
21.6694 9.182
21.6846 9.040
21.6997 9.297
21.7149 9.153
21.7301 9.223
21.7453 9.057
21.7604 9.074
21.7756 9.250
21.7908 9.368
21.8060 8.937
21.8211 8.929
21.8363 9.067
21.8515 9.116
21.8667 9.307
21.8818 9.238
21.8970 8.949
21.9122 9.029
21.9274 9.067
21.9425 8.999
21.9577 8.901
21.9729 8.790
21.9881 8.929
22.0032 9.159
22.0184 9.074
22.0336 8.804
22.0488 8.725
22.0639 8.732
22.0791 8.716
22.0943 8.918
22.1095 9.011
22.1246 8.717
22.1398 8.610
22.1550 8.647
22.1702 8.704
22.1853 8.507
22.2005 8.537
22.2157 8.690
22.2309 8.664
22.2460 8.825
22.2612 8.833
22.2764 8.570
22.2916 8.555
22.3067 8.642
22.3219 8.545
22.3371 8.667
22.3523 8.603
22.3674 8.621
22.3826 8.743
22.3978 8.407
22.4130 8.429
22.4281 8.639
22.4433 8.241
22.4585 8.362
22.4737 8.750
22.4888 8.512
22.5040 8.316
22.5192 8.603
22.5344 8.564
22.5495 8.575
22.5647 8.506
22.5799 8.734
22.5951 8.425
22.6102 8.806
22.6254 8.852
22.6406 8.351
22.6558 8.519
22.6709 8.578
22.6861 8.528
22.7013 8.310
22.7165 8.243
22.7316 6.605
