'Id: "" Comment: "" Operator: "Lab Manager" Anode: "Mo" Scantype: "Still (Eiger2R_500K (1D mode))" TimePerStep: "300" X: "11.8" Y: "9.4" Z: "11.284" 
7.2532 18.975
7.2684 18.759
7.2836 18.774
7.2987 18.926
7.3139 19.033
7.3291 19.051
7.3443 19.052
7.3594 19.489
7.3746 19.193
7.3898 19.260
7.4050 19.124
7.4201 19.246
7.4353 19.237
7.4505 19.385
7.4657 19.398
7.4808 19.402
7.4960 19.792
7.5112 19.120
7.5264 19.287
7.5415 19.380
7.5567 19.479
7.5719 19.641
7.5871 19.955
7.6022 19.847
7.6174 19.583
7.6326 19.742
7.6478 19.933
7.6629 20.097
7.6781 20.326
7.6933 20.055
7.7085 20.431
7.7236 20.421
7.7388 20.154
7.7540 20.004
7.7692 20.187
7.7843 20.369
7.7995 20.362
7.8147 20.419
7.8299 20.474
7.8450 20.482
7.8602 20.492
7.8754 20.511
7.8905 20.677
7.9057 20.816
7.9209 21.006
7.9361 20.779
7.9512 20.531
7.9664 20.744
7.9816 21.214
7.9968 21.217
8.0119 20.753
8.0271 20.816
8.0423 21.046
8.0575 21.239
8.0726 21.100
8.0878 21.217
8.1030 20.988
8.1182 20.919
8.1333 21.087
8.1485 21.016
8.1637 20.920
8.1789 21.306
8.1940 21.689
8.2092 21.746
8.2244 21.453
8.2396 21.675
8.2547 20.944
8.2699 21.580
8.2851 21.235
8.3003 21.567
8.3154 21.625
8.3306 22.160
8.3458 21.669
8.3610 21.213
8.3761 21.322
8.3913 21.465
8.4065 21.463
8.4217 21.608
8.4368 21.613
8.4520 21.934
8.4672 21.890
8.4824 22.207
8.4975 21.972
8.5127 21.496
8.5279 21.491
8.5431 22.220
8.5582 21.502
8.5734 21.795
8.5886 21.765
8.6038 22.128
8.6189 22.183
8.6341 22.146
8.6493 22.081
8.6645 21.964
8.6796 22.079
8.6948 22.351
8.7100 22.502
8.7252 22.244
8.7403 22.378
8.7555 21.957
8.7707 21.970
8.7859 22.213
8.8010 22.528
8.8162 22.353
8.8314 22.400
8.8466 22.253
8.8617 22.136
8.8769 22.510
8.8921 22.733
8.9073 22.735
8.9224 22.471
8.9376 22.287
8.9528 22.461
8.9680 22.501
8.9831 22.486
8.9983 22.405
9.0135 22.430
9.0287 22.524
9.0438 22.281
9.0590 22.416
9.0742 22.098
9.0894 22.656
9.1045 22.690
9.1197 22.784
9.1349 22.837
9.1501 22.746
9.1652 22.796
9.1804 22.894
9.1956 22.620
9.2108 22.642
9.2259 22.838
9.2411 22.685
9.2563 22.645
9.2715 22.722
9.2866 22.663
9.3018 22.756
9.3170 23.026
9.3322 22.879
9.3473 22.862
9.3625 22.599
9.3777 22.505
9.3929 22.894
9.4080 23.038
9.4232 22.871
9.4384 22.625
9.4536 22.882
9.4687 22.932
9.4839 22.886
9.4991 22.885
9.5143 23.079
9.5294 23.000
9.5446 23.070
9.5598 23.014
9.5750 23.184
9.5901 23.159
9.6053 22.911
9.6205 23.105
9.6357 23.290
9.6508 23.263
9.6660 23.519
9.6812 23.636
9.6964 23.802
9.7115 23.616
9.7267 23.535
9.7419 23.828
9.7571 23.867
9.7722 23.760
9.7874 23.848
9.8026 23.588
9.8178 23.543
9.8329 23.610
9.8481 23.424
9.8633 23.391
9.8785 23.146
9.8936 22.949
9.9088 22.813
9.9240 22.852
9.9392 23.298
9.9543 23.173
9.9695 23.012
9.9847 23.089
9.9999 23.244
10.0150 23.213
10.0302 23.062
10.0454 23.240
10.0606 22.977
10.0757 22.776
10.0909 22.926
10.1061 23.027
10.1213 23.550
10.1364 23.473
10.1516 23.399
10.1668 23.482
10.1820 23.605
10.1971 23.774
10.2123 23.440
10.2275 23.493
10.2427 23.167
10.2578 23.165
10.2730 23.123
10.2882 22.645
10.3034 22.603
10.3185 22.595
10.3337 22.437
10.3489 22.814
10.3641 22.918
10.3792 22.975
10.3944 22.686
10.4096 22.466
10.4248 22.440
10.4399 22.541
10.4551 22.774
10.4703 22.561
10.4855 22.438
10.5006 22.405
10.5158 22.517
10.5310 22.457
10.5462 22.672
10.5613 22.435
10.5765 22.701
10.5917 22.742
10.6069 22.462
10.6220 22.148
10.6372 22.386
10.6524 22.623
10.6676 22.484
10.6827 22.322
10.6979 22.312
10.7131 22.131
10.7283 22.453
10.7434 22.530
10.7586 22.252
10.7738 22.085
10.7890 22.281
10.8041 22.261
10.8193 22.224
10.8345 21.807
10.8497 22.148
10.8648 22.268
10.8800 22.304
10.8952 22.258
10.9104 22.086
10.9255 21.687
10.9407 21.846
10.9559 22.003
10.9711 22.073
10.9862 21.633
11.0014 21.918
11.0166 22.258
11.0318 22.188
11.0469 22.204
11.0621 21.793
11.0773 21.791
11.0925 21.813
11.1076 21.836
11.1228 22.167
11.1380 21.806
11.1532 21.760
11.1683 21.915
11.1835 21.733
11.1987 21.821
11.2139 21.696
11.2290 21.577
11.2442 21.522
11.2594 21.930
11.2746 21.772
11.2897 21.288
11.3049 21.526
11.3201 21.540
11.3353 21.564
11.3504 21.443
11.3656 21.377
11.3808 21.122
11.3960 20.851
11.4111 21.034
11.4263 21.024
11.4415 21.115
11.4567 21.290
11.4718 21.333
11.4870 21.396
11.5022 21.109
11.5174 21.208
11.5325 21.158
11.5477 20.858
11.5629 20.957
11.5781 21.034
11.5932 20.473
11.6084 20.590
11.6236 20.911
11.6388 20.515
11.6539 20.440
11.6691 20.564
11.6843 20.550
11.6995 20.521
11.7146 20.256
11.7298 20.206
11.7450 20.264
11.7602 20.277
11.7753 20.565
11.7905 20.358
11.8057 20.018
11.8209 20.133
11.8360 19.771
11.8512 19.790
11.8664 19.881
11.8816 20.011
11.8967 19.359
11.9119 19.081
11.9271 19.365
11.9423 19.347
11.9574 19.440
11.9726 19.176
11.9878 19.030
12.0030 18.916
12.0181 19.354
12.0333 18.856
12.0485 18.687
12.0637 18.814
12.0788 18.745
12.0940 18.485
12.1092 18.788
12.1244 18.884
12.1395 18.706
12.1547 18.602
12.1699 18.336
12.1851 18.277
12.2002 18.056
12.2154 17.721
12.2306 17.740
12.2458 17.879
12.2609 17.804
12.2761 17.860
12.2913 17.886
12.3065 17.715
12.3216 17.559
12.3368 17.490
12.3520 17.454
12.3672 17.365
12.3823 17.185
12.3975 17.050
12.4127 16.953
12.4279 16.682
12.4430 16.741
12.4582 16.788
12.4734 16.665
12.4886 16.719
12.5037 16.758
12.5189 16.548
12.5341 16.199
12.5493 16.270
12.5644 16.583
12.5796 16.283
12.5948 16.095
12.6100 16.040
12.6251 15.840
12.6403 15.838
12.6555 15.853
12.6707 15.442
12.6858 15.860
12.7010 15.922
12.7162 15.374
12.7314 15.188
12.7465 15.162
12.7617 15.229
12.7769 15.192
12.7921 15.011
12.8072 15.006
12.8224 15.015
12.8376 14.921
12.8528 14.733
12.8679 14.773
12.8831 14.671
12.8983 14.490
12.9135 14.430
12.9286 14.498
12.9438 14.607
12.9590 14.439
12.9742 14.166
12.9893 13.847
13.0045 14.056
13.0197 14.317
13.0349 14.139
13.0500 14.086
13.0652 13.977
13.0804 13.793
13.0956 13.723
13.1107 13.695
13.1259 13.732
13.1411 13.711
13.1563 13.614
13.1714 13.613
13.1866 13.505
13.2018 13.351
13.2170 13.247
13.2321 13.442
13.2473 13.507
13.2625 13.415
13.2777 13.536
13.2928 13.250
13.3080 13.048
13.3232 12.789
13.3384 12.683
13.3535 12.815
13.3687 12.584
13.3839 12.728
13.3991 12.952
13.4142 12.906
13.4294 12.963
13.4446 12.954
13.4598 12.749
13.4749 12.638
13.4901 12.630
13.5053 12.480
13.5205 12.488
13.5356 12.496
13.5508 12.418
13.5660 12.451
13.5812 12.358
13.5963 12.284
13.6115 12.488
13.6267 12.498
13.6419 12.219
13.6570 12.047
13.6722 12.045
13.6874 11.988
13.7026 12.012
13.7177 12.078
13.7329 11.976
13.7481 12.082
13.7633 12.067
13.7784 12.332
13.7936 12.286
13.8088 11.944
13.8239 12.195
13.8391 12.294
13.8543 12.272
13.8695 12.298
13.8846 12.401
13.8998 12.080
13.9150 12.065
13.9302 12.236
13.9453 12.127
13.9605 12.018
13.9757 11.513
13.9909 11.725
14.0060 11.635
14.0212 11.588
14.0364 11.669
14.0516 11.636
14.0667 11.619
14.0819 11.434
14.0971 11.406
14.1123 11.240
14.1274 11.529
14.1426 11.523
14.1578 11.689
14.1730 11.534
14.1881 11.596
14.2033 11.450
14.2185 11.315
14.2337 11.700
14.2488 11.501
14.2640 11.554
14.2792 11.629
14.2944 11.780
14.3095 12.187
14.3247 12.377
14.3399 12.203
14.3551 12.548
14.3702 12.785
14.3854 12.978
14.4006 12.999
14.4158 13.126
14.4309 13.205
14.4461 13.158
14.4613 12.968
14.4765 12.578
14.4916 12.477
14.5068 12.216
14.5220 11.949
14.5372 11.679
14.5523 11.340
14.5675 11.175
14.5827 11.302
14.5979 11.109
14.6130 10.750
14.6282 10.523
14.6434 10.899
14.6586 11.150
14.6737 10.863
14.6889 10.519
14.7041 10.839
14.7193 10.466
14.7344 10.627
14.7496 10.513
14.7648 10.429
14.7800 10.466
14.7951 10.606
14.8103 10.549
14.8255 10.519
14.8407 10.382
14.8558 10.119
14.8710 10.417
14.8862 10.394
14.9014 10.303
14.9165 10.726
14.9317 10.792
14.9469 10.338
14.9621 10.178
14.9772 10.407
14.9924 10.277
15.0076 10.073
15.0228 10.167
15.0379 10.091
15.0531 10.249
15.0683 10.185
15.0835 10.070
15.0986 10.438
15.1138 10.155
15.1290 10.123
15.1442 9.948
15.1593 9.893
15.1745 10.221
15.1897 10.439
15.2049 9.940
15.2200 10.436
15.2352 10.261
15.2504 9.985
15.2656 10.142
15.2807 10.218
15.2959 9.891
15.3111 9.746
15.3263 9.621
15.3414 10.037
15.3566 10.347
15.3718 10.012
15.3870 10.296
15.4021 10.156
15.4173 9.794
15.4325 10.059
15.4477 10.177
15.4628 10.248
15.4780 10.015
15.4932 10.139
15.5084 10.176
15.5235 9.911
15.5387 9.909
15.5539 9.656
15.5691 9.940
15.5842 9.651
15.5994 9.642
15.6146 9.765
15.6298 10.105
15.6449 9.968
15.6601 9.644
15.6753 9.515
15.6905 9.662
15.7056 9.554
15.7208 9.711
15.7360 9.749
15.7512 9.474
15.7663 9.815
15.7815 9.800
15.7967 9.578
15.8119 9.765
15.8270 9.614
15.8422 9.663
15.8574 9.619
15.8726 9.497
15.8877 9.277
15.9029 9.599
15.9181 9.782
15.9333 9.275
15.9484 9.329
15.9636 9.438
15.9788 9.452
15.9940 9.865
16.0091 9.624
16.0243 9.773
16.0395 9.399
16.0547 9.713
16.0698 9.500
16.0850 9.619
16.1002 9.509
16.1154 9.358
16.1305 9.685
16.1457 9.763
16.1609 9.514
16.1761 9.425
16.1912 9.840
16.2064 9.737
16.2216 9.658
16.2368 9.923
16.2519 9.827
16.2671 9.673
16.2823 9.565
16.2975 9.832
16.3126 9.960
16.3278 9.834
16.3430 9.750
16.3582 9.853
16.3733 9.838
16.3885 9.783
16.4037 9.814
16.4189 9.719
16.4340 9.682
16.4492 9.362
16.4644 9.606
16.4796 9.786
16.4947 9.518
16.5099 9.560
16.5251 9.583
16.5403 9.578
16.5554 9.549
16.5706 9.352
16.5858 9.394
16.6010 9.639
16.6161 9.655
16.6313 9.545
16.6465 9.470
16.6617 9.624
16.6768 9.903
16.6920 9.902
16.7072 9.914
16.7224 9.818
16.7375 9.943
16.7527 9.885
16.7679 9.778
16.7831 9.954
16.7982 9.830
16.8134 9.831
16.8286 10.014
16.8438 9.754
16.8589 9.557
16.8741 9.652
16.8893 9.727
16.9045 9.763
16.9196 9.721
16.9348 9.609
16.9500 9.498
16.9652 9.783
16.9803 9.735
16.9955 9.703
17.0107 9.885
17.0259 9.937
17.0410 10.103
17.0562 10.242
17.0714 10.146
17.0866 10.247
17.1017 10.402
17.1169 10.449
17.1321 10.920
17.1473 11.340
17.1624 11.860
17.1776 12.546
17.1928 13.198
17.2080 13.763
17.2231 14.651
17.2383 16.016
17.2535 17.521
17.2687 18.522
17.2838 18.464
17.2990 17.616
17.3142 16.737
17.3294 16.281
17.3445 15.982
17.3597 15.834
17.3749 15.910
17.3901 15.296
17.4052 13.994
17.4204 12.988
17.4356 12.422
17.4508 12.069
17.4659 11.755
17.4811 11.432
17.4963 11.201
17.5115 11.201
17.5266 11.139
17.5418 10.756
17.5570 10.485
17.5722 10.661
17.5873 11.050
17.6025 11.113
17.6177 10.915
17.6329 11.098
17.6480 11.218
17.6632 11.410
17.6784 11.743
17.6936 12.038
17.7087 12.044
17.7239 11.535
17.7391 11.400
17.7543 11.454
17.7694 11.390
17.7846 11.489
17.7998 11.431
17.8150 11.106
17.8301 10.729
17.8453 10.460
17.8605 10.430
17.8757 10.308
17.8908 10.233
17.9060 10.229
17.9212 10.201
17.9364 10.077
17.9515 9.953
17.9667 10.167
17.9819 10.268
17.9971 10.328
18.0122 10.307
18.0274 10.366
18.0426 10.157
18.0578 10.062
18.0729 10.167
18.0881 10.179
18.1033 10.013
18.1185 9.958
18.1336 10.201
18.1488 10.301
18.1640 10.141
18.1792 9.907
18.1943 9.664
18.2095 9.904
18.2247 10.007
18.2399 9.864
18.2550 9.722
18.2702 9.810
18.2854 9.982
18.3006 9.905
18.3157 9.584
18.3309 9.589
18.3461 9.722
18.3613 9.682
18.3764 9.806
18.3916 9.877
18.4068 9.905
18.4220 9.833
18.4371 9.693
18.4523 9.634
18.4675 9.819
18.4827 9.882
18.4978 9.944
18.5130 9.773
18.5282 9.769
18.5434 9.790
18.5585 9.785
18.5737 9.826
18.5889 9.917
18.6041 9.899
18.6192 9.989
18.6344 9.946
18.6496 9.866
18.6648 9.729
18.6799 10.051
18.6951 10.131
18.7103 9.878
18.7255 9.618
18.7406 9.574
18.7558 9.808
18.7710 9.783
18.7862 9.783
18.8013 9.823
18.8165 9.656
18.8317 9.719
18.8469 9.827
18.8620 9.792
18.8772 9.991
18.8924 9.871
18.9076 9.814
18.9227 9.812
18.9379 9.860
18.9531 9.932
18.9683 9.932
18.9834 9.837
18.9986 10.037
19.0138 10.268
19.0290 10.124
19.0441 10.129
19.0593 10.305
19.0745 10.314
19.0897 10.293
19.1048 10.380
19.1200 10.330
19.1352 10.484
19.1504 10.642
19.1655 10.566
19.1807 10.594
19.1959 10.618
19.2111 10.576
19.2262 10.767
19.2414 10.771
19.2566 10.619
19.2718 10.734
19.2869 11.006
19.3021 10.738
19.3173 10.659
19.3325 10.816
19.3476 10.971
19.3628 11.118
19.3780 11.248
19.3932 11.217
19.4083 11.277
19.4235 11.575
19.4387 11.441
19.4539 11.316
19.4690 11.423
19.4842 11.292
19.4994 11.377
19.5146 11.495
19.5297 11.519
19.5449 11.683
19.5601 11.754
19.5753 11.476
19.5904 11.531
19.6056 11.633
19.6208 11.530
19.6360 11.479
19.6511 11.540
19.6663 11.769
19.6815 11.609
19.6967 11.673
19.7118 11.916
19.7270 11.803
19.7422 11.822
19.7574 11.854
19.7725 11.934
19.7877 11.926
19.8029 11.904
19.8180 12.136
19.8332 12.292
19.8484 12.228
19.8636 12.559
19.8787 12.953
19.8939 12.980
19.9091 13.014
19.9243 13.331
19.9394 13.804
19.9546 14.296
19.9698 14.594
19.9850 14.698
20.0001 14.400
20.0153 14.037
20.0305 14.160
20.0457 13.798
20.0608 13.654
20.0760 13.880
20.0912 13.917
20.1064 13.840
20.1215 13.521
20.1367 13.515
20.1519 13.394
20.1671 12.661
20.1822 12.578
20.1974 12.848
20.2126 12.857
20.2278 12.774
20.2429 12.716
20.2581 12.382
20.2733 12.333
20.2885 12.119
20.3036 11.954
20.3188 12.015
20.3340 12.243
20.3492 12.283
20.3643 11.956
20.3795 11.972
20.3947 12.186
20.4099 11.927
20.4250 12.151
20.4402 12.221
20.4554 11.913
20.4706 11.911
20.4857 11.874
20.5009 11.675
20.5161 11.755
20.5313 11.796
20.5464 11.658
20.5616 11.409
20.5768 11.377
20.5920 11.317
20.6071 11.103
20.6223 11.077
20.6375 10.875
20.6527 11.173
20.6678 11.217
20.6830 10.809
20.6982 10.730
20.7134 10.537
20.7285 10.282
20.7437 10.519
20.7589 10.700
20.7741 10.637
20.7892 10.583
20.8044 10.566
20.8196 10.313
20.8348 10.257
20.8499 10.455
20.8651 10.568
20.8803 10.604
20.8955 10.422
20.9106 10.143
20.9258 10.401
20.9410 10.366
20.9562 9.873
20.9713 10.341
20.9865 10.066
21.0017 10.309
21.0169 10.133
21.0320 9.928
21.0472 9.986
21.0624 9.817
21.0776 10.183
21.0927 10.133
21.1079 10.082
21.1231 9.861
21.1383 9.617
21.1534 9.888
21.1686 9.861
21.1838 9.695
21.1990 9.917
21.2141 9.667
21.2293 9.634
21.2445 9.927
21.2597 9.845
21.2748 9.625
21.2900 9.543
21.3052 9.735
21.3204 9.591
21.3355 9.587
21.3507 9.380
21.3659 9.406
21.3811 9.825
21.3962 9.323
21.4114 9.455
21.4266 9.596
21.4418 9.340
21.4569 9.279
21.4721 9.325
21.4873 9.382
21.5025 9.639
21.5176 9.561
21.5328 9.232
21.5480 9.181
21.5632 9.209
21.5783 9.251
21.5935 9.143
21.6087 8.987
21.6239 9.122
21.6390 9.464
21.6542 9.279
21.6694 9.119
21.6846 9.167
21.6997 9.009
21.7149 8.990
21.7301 9.206
21.7453 9.381
21.7604 9.290
21.7756 9.107
21.7908 8.975
21.8060 9.057
21.8211 8.924
21.8363 8.999
21.8515 9.132
21.8667 9.171
21.8818 8.931
21.8970 9.214
21.9122 9.084
21.9274 8.948
21.9425 9.042
21.9577 8.881
21.9729 8.771
21.9881 8.868
22.0032 8.847
22.0184 8.611
22.0336 8.673
22.0488 8.849
22.0639 9.076
22.0791 8.913
22.0943 8.680
22.1095 8.588
22.1246 8.651
22.1398 8.663
22.1550 8.470
22.1702 8.686
22.1853 8.722
22.2005 8.696
22.2157 8.627
22.2309 8.537
22.2460 8.604
22.2612 8.538
22.2764 8.580
22.2916 8.544
22.3067 8.480
22.3219 8.514
22.3371 8.383
22.3523 8.487
22.3674 8.615
22.3826 8.599
22.3978 8.405
22.4130 8.524
22.4281 8.556
22.4433 8.414
22.4585 8.254
22.4737 8.369
22.4888 8.454
22.5040 8.351
22.5192 8.117
22.5344 8.282
22.5495 8.319
22.5647 8.436
22.5799 8.212
22.5951 8.194
22.6102 8.450
22.6254 8.631
22.6406 8.410
22.6558 7.924
22.6709 8.244
22.6861 8.270
22.7013 8.432
22.7165 8.002
22.7316 6.429
