'Id: "" Comment: "" Operator: "Lab Manager" Anode: "Mo" Scantype: "Still (Eiger2R_500K (1D mode))" TimePerStep: "300" X: "11.8" Y: "9.4" Z: "11.284" 
7.2532 19.369
7.2684 19.163
7.2836 19.163
7.2987 18.787
7.3139 18.630
7.3291 18.728
7.3443 18.642
7.3594 19.302
7.3746 18.977
7.3898 19.233
7.4050 19.272
7.4201 19.320
7.4353 19.871
7.4505 19.643
7.4657 19.254
7.4808 19.396
7.4960 19.519
7.5112 19.672
7.5264 19.801
7.5415 19.691
7.5567 19.727
7.5719 19.925
7.5871 19.932
7.6022 19.927
7.6174 20.093
7.6326 20.266
7.6478 20.047
7.6629 20.201
7.6781 20.646
7.6933 20.559
7.7085 20.566
7.7236 20.575
7.7388 20.715
7.7540 20.683
7.7692 20.493
7.7843 20.726
7.7995 20.361
7.8147 20.355
7.8299 20.697
7.8450 20.541
7.8602 20.124
7.8754 20.270
7.8905 20.975
7.9057 20.964
7.9209 21.011
7.9361 20.952
7.9512 21.067
7.9664 20.926
7.9816 21.157
7.9968 21.049
8.0119 20.980
8.0271 21.330
8.0423 21.076
8.0575 20.900
8.0726 20.741
8.0878 21.138
8.1030 21.172
8.1182 21.226
8.1333 21.278
8.1485 21.397
8.1637 21.203
8.1789 21.517
8.1940 21.479
8.2092 21.489
8.2244 21.740
8.2396 21.773
8.2547 21.965
8.2699 21.962
8.2851 21.839
8.3003 21.671
8.3154 22.028
8.3306 22.092
8.3458 21.739
8.3610 21.659
8.3761 21.598
8.3913 21.647
8.4065 22.363
8.4217 22.106
8.4368 21.728
8.4520 21.941
8.4672 22.343
8.4824 22.095
8.4975 22.271
8.5127 22.762
8.5279 22.169
8.5431 21.978
8.5582 22.188
8.5734 22.160
8.5886 22.592
8.6038 21.954
8.6189 22.472
8.6341 22.645
8.6493 22.330
8.6645 22.242
8.6796 22.281
8.6948 22.583
8.7100 21.793
8.7252 22.333
8.7403 22.310
8.7555 22.708
8.7707 22.483
8.7859 22.355
8.8010 22.534
8.8162 22.536
8.8314 22.433
8.8466 22.384
8.8617 22.745
8.8769 22.554
8.8921 22.640
8.9073 22.343
8.9224 22.290
8.9376 22.067
8.9528 22.091
8.9680 22.293
8.9831 22.392
8.9983 22.345
9.0135 22.571
9.0287 22.689
9.0438 22.408
9.0590 22.478
9.0742 22.590
9.0894 22.410
9.1045 23.130
9.1197 22.943
9.1349 23.087
9.1501 22.858
9.1652 22.707
9.1804 22.768
9.1956 22.765
9.2108 22.596
9.2259 22.874
9.2411 23.406
9.2563 22.991
9.2715 22.787
9.2866 22.950
9.3018 23.204
9.3170 23.073
9.3322 22.933
9.3473 22.942
9.3625 22.855
9.3777 23.090
9.3929 23.251
9.4080 23.453
9.4232 23.139
9.4384 23.205
9.4536 23.152
9.4687 23.137
9.4839 23.195
9.4991 23.116
9.5143 23.117
9.5294 22.963
9.5446 23.303
9.5598 23.306
9.5750 23.094
9.5901 23.368
9.6053 23.416
9.6205 22.972
9.6357 23.140
9.6508 23.302
9.6660 23.555
9.6812 23.568
9.6964 23.741
9.7115 24.272
9.7267 24.340
9.7419 24.298
9.7571 24.185
9.7722 23.946
9.7874 23.870
9.8026 23.378
9.8178 23.526
9.8329 23.628
9.8481 23.453
9.8633 23.533
9.8785 23.393
9.8936 23.119
9.9088 23.236
9.9240 23.228
9.9392 23.293
9.9543 23.438
9.9695 23.750
9.9847 23.670
9.9999 23.320
10.0150 23.048
10.0302 23.135
10.0454 23.290
10.0606 23.148
10.0757 23.572
10.0909 23.395
10.1061 23.483
10.1213 23.522
10.1364 23.440
10.1516 23.784
10.1668 23.316
10.1820 22.801
10.1971 22.895
10.2123 23.248
10.2275 23.470
10.2427 23.058
10.2578 22.658
10.2730 22.723
10.2882 22.684
10.3034 22.517
10.3185 22.388
10.3337 22.654
10.3489 22.994
10.3641 22.707
10.3792 22.419
10.3944 22.690
10.4096 22.570
10.4248 23.003
10.4399 23.166
10.4551 22.834
10.4703 22.529
10.4855 22.419
10.5006 22.793
10.5158 22.896
10.5310 22.434
10.5462 22.294
10.5613 22.575
10.5765 22.556
10.5917 22.452
10.6069 22.384
10.6220 22.352
10.6372 22.361
10.6524 22.177
10.6676 22.118
10.6827 22.374
10.6979 22.504
10.7131 22.358
10.7283 22.486
10.7434 22.304
10.7586 22.249
10.7738 22.367
10.7890 22.501
10.8041 22.766
10.8193 22.629
10.8345 22.213
10.8497 22.417
10.8648 22.341
10.8800 21.832
10.8952 21.791
10.9104 22.022
10.9255 21.984
10.9407 22.127
10.9559 21.933
10.9711 21.564
10.9862 21.799
11.0014 22.118
11.0166 22.129
11.0318 22.180
11.0469 21.953
11.0621 21.697
11.0773 21.759
11.0925 21.770
11.1076 21.709
11.1228 21.888
11.1380 21.744
11.1532 21.791
11.1683 21.931
11.1835 21.971
11.1987 21.982
11.2139 21.501
11.2290 21.576
11.2442 21.727
11.2594 21.663
11.2746 21.307
11.2897 21.459
11.3049 21.795
11.3201 21.565
11.3353 21.891
11.3504 21.615
11.3656 21.406
11.3808 21.664
11.3960 21.361
11.4111 21.189
11.4263 21.171
11.4415 21.042
11.4567 20.834
11.4718 20.988
11.4870 21.177
11.5022 20.934
11.5174 20.975
11.5325 20.651
11.5477 21.078
11.5629 20.860
11.5781 20.936
11.5932 20.856
11.6084 20.799
11.6236 20.659
11.6388 21.005
11.6539 21.103
11.6691 21.020
11.6843 20.516
11.6995 20.244
11.7146 20.333
11.7298 20.125
11.7450 20.106
11.7602 20.090
11.7753 20.079
11.7905 20.025
11.8057 20.371
11.8209 20.245
11.8360 20.264
11.8512 20.316
11.8664 19.880
11.8816 19.872
11.8967 19.874
11.9119 19.695
11.9271 19.413
11.9423 19.421
11.9574 19.258
11.9726 19.552
11.9878 19.597
12.0030 19.273
12.0181 19.368
12.0333 19.261
12.0485 18.906
12.0637 18.762
12.0788 18.692
12.0940 18.654
12.1092 18.605
12.1244 18.446
12.1395 18.602
12.1547 18.598
12.1699 18.266
12.1851 18.017
12.2002 18.145
12.2154 18.145
12.2306 18.361
12.2458 18.430
12.2609 18.134
12.2761 18.236
12.2913 17.945
12.3065 17.840
12.3216 17.758
12.3368 17.683
12.3520 17.429
12.3672 17.271
12.3823 17.300
12.3975 17.088
12.4127 17.181
12.4279 17.073
12.4430 16.932
12.4582 16.814
12.4734 16.835
12.4886 16.664
12.5037 16.588
12.5189 16.373
12.5341 16.277
12.5493 16.341
12.5644 16.030
12.5796 16.067
12.5948 16.113
12.6100 16.004
12.6251 16.024
12.6403 16.240
12.6555 16.040
12.6707 15.655
12.6858 15.330
12.7010 15.611
12.7162 15.601
12.7314 15.503
12.7465 15.245
12.7617 15.323
12.7769 15.348
12.7921 15.182
12.8072 15.220
12.8224 15.265
12.8376 15.118
12.8528 14.934
12.8679 14.868
12.8831 14.664
12.8983 14.731
12.9135 14.728
12.9286 14.597
12.9438 14.698
12.9590 14.586
12.9742 14.462
12.9893 14.386
13.0045 14.359
13.0197 14.224
13.0349 14.121
13.0500 14.140
13.0652 13.851
13.0804 13.924
13.0956 13.968
13.1107 13.827
13.1259 13.830
13.1411 13.814
13.1563 13.738
13.1714 13.572
13.1866 13.552
13.2018 13.495
13.2170 13.476
13.2321 13.428
13.2473 13.293
13.2625 13.241
13.2777 13.359
13.2928 13.361
13.3080 13.214
13.3232 13.156
13.3384 13.056
13.3535 13.207
13.3687 13.174
13.3839 12.924
13.3991 12.981
13.4142 12.976
13.4294 13.051
13.4446 13.135
13.4598 12.818
13.4749 12.626
13.4901 12.849
13.5053 12.979
13.5205 12.731
13.5356 12.424
13.5508 12.354
13.5660 12.266
13.5812 12.260
13.5963 12.127
13.6115 12.139
13.6267 12.304
13.6419 12.325
13.6570 12.056
13.6722 12.207
13.6874 12.342
13.7026 12.332
13.7177 12.379
13.7329 12.101
13.7481 11.984
13.7633 12.057
13.7784 12.007
13.7936 12.222
13.8088 12.107
13.8239 12.124
13.8391 12.396
13.8543 12.273
13.8695 12.117
13.8846 12.280
13.8998 12.383
13.9150 11.830
13.9302 11.914
13.9453 12.179
13.9605 11.905
13.9757 11.694
13.9909 11.753
14.0060 11.755
14.0212 11.574
14.0364 11.681
14.0516 11.499
14.0667 11.638
14.0819 11.599
14.0971 11.578
14.1123 11.772
14.1274 11.405
14.1426 11.717
14.1578 11.704
14.1730 11.797
14.1881 11.949
14.2033 11.639
14.2185 11.661
14.2337 11.897
14.2488 12.068
14.2640 11.864
14.2792 12.047
14.2944 12.237
14.3095 12.332
14.3247 12.440
14.3399 12.369
14.3551 12.561
14.3702 13.044
14.3854 13.380
14.4006 13.239
14.4158 13.285
14.4309 13.149
14.4461 12.811
14.4613 12.529
14.4765 12.429
14.4916 12.367
14.5068 12.091
14.5220 11.699
14.5372 11.326
14.5523 11.769
14.5675 11.103
14.5827 11.280
14.5979 11.192
14.6130 10.993
14.6282 10.860
14.6434 10.843
14.6586 10.755
14.6737 10.870
14.6889 10.644
14.7041 10.665
14.7193 10.707
14.7344 10.869
14.7496 11.012
14.7648 10.771
14.7800 10.521
14.7951 10.485
14.8103 10.657
14.8255 10.513
14.8407 10.576
14.8558 10.355
14.8710 10.217
14.8862 10.794
14.9014 10.553
14.9165 10.673
14.9317 10.691
14.9469 10.501
14.9621 10.554
14.9772 9.882
14.9924 10.350
15.0076 10.338
15.0228 10.841
15.0379 10.358
15.0531 10.268
15.0683 10.354
15.0835 10.273
15.0986 10.444
15.1138 10.450
15.1290 10.067
15.1442 10.547
15.1593 9.938
15.1745 10.087
15.1897 10.023
15.2049 10.121
15.2200 10.131
15.2352 10.142
15.2504 10.109
15.2656 10.096
15.2807 10.359
15.2959 10.247
15.3111 10.319
15.3263 10.124
15.3414 10.255
15.3566 10.486
15.3718 10.365
15.3870 10.159
15.4021 10.486
15.4173 10.332
15.4325 10.022
15.4477 10.310
15.4628 10.299
15.4780 9.967
15.4932 10.091
15.5084 10.222
15.5235 9.903
15.5387 10.330
15.5539 10.203
15.5691 10.128
15.5842 10.113
15.5994 10.289
15.6146 9.972
15.6298 10.089
15.6449 9.718
15.6601 9.988
15.6753 9.803
15.6905 9.845
15.7056 9.671
15.7208 9.810
15.7360 9.912
15.7512 9.640
15.7663 9.666
15.7815 9.876
15.7967 9.595
15.8119 9.729
15.8270 9.758
15.8422 9.439
15.8574 9.759
15.8726 9.771
15.8877 9.669
15.9029 9.459
15.9181 9.489
15.9333 9.683
15.9484 9.498
15.9636 9.786
15.9788 9.852
15.9940 9.839
16.0091 9.435
16.0243 9.486
16.0395 9.795
16.0547 9.663
16.0698 9.741
16.0850 9.640
16.1002 9.487
16.1154 9.686
16.1305 9.697
16.1457 9.777
16.1609 9.571
16.1761 9.606
16.1912 9.766
16.2064 10.177
16.2216 9.923
16.2368 9.739
16.2519 9.574
16.2671 9.711
16.2823 9.505
16.2975 9.606
16.3126 9.763
16.3278 9.702
16.3430 9.714
16.3582 9.772
16.3733 9.879
16.3885 9.981
16.4037 9.927
16.4189 9.779
16.4340 9.752
16.4492 9.764
16.4644 9.640
16.4796 9.837
16.4947 9.720
16.5099 9.676
16.5251 9.681
16.5403 9.731
16.5554 9.719
16.5706 9.806
16.5858 9.605
16.6010 9.592
16.6161 9.708
16.6313 9.843
16.6465 9.903
16.6617 9.634
16.6768 9.626
16.6920 9.822
16.7072 9.810
16.7224 10.069
16.7375 10.048
16.7527 9.833
16.7679 9.897
16.7831 9.797
16.7982 9.805
16.8134 10.085
16.8286 10.128
16.8438 10.061
16.8589 9.886
16.8741 9.738
16.8893 9.580
16.9045 9.713
16.9196 9.753
16.9348 9.683
16.9500 9.747
16.9652 9.862
16.9803 9.906
16.9955 9.997
17.0107 9.865
17.0259 9.813
17.0410 9.959
17.0562 10.053
17.0714 10.023
17.0866 10.244
17.1017 10.555
17.1169 10.716
17.1321 10.844
17.1473 11.122
17.1624 11.570
17.1776 12.280
17.1928 13.114
17.2080 13.958
17.2231 14.773
17.2383 15.875
17.2535 17.491
17.2687 18.662
17.2838 18.792
17.2990 17.976
17.3142 17.050
17.3294 16.612
17.3445 15.985
17.3597 15.896
17.3749 16.038
17.3901 15.201
17.4052 14.103
17.4204 13.062
17.4356 12.388
17.4508 12.089
17.4659 11.915
17.4811 11.857
17.4963 11.604
17.5115 11.209
17.5266 11.220
17.5418 11.593
17.5570 11.548
17.5722 11.383
17.5873 11.289
17.6025 11.128
17.6177 11.193
17.6329 11.289
17.6480 11.334
17.6632 11.609
17.6784 11.908
17.6936 11.854
17.7087 11.583
17.7239 11.305
17.7391 11.009
17.7543 10.827
17.7694 10.872
17.7846 10.852
17.7998 10.971
17.8150 10.899
17.8301 10.761
17.8453 10.608
17.8605 10.302
17.8757 10.182
17.8908 10.105
17.9060 10.195
17.9212 10.187
17.9364 10.145
17.9515 10.255
17.9667 10.066
17.9819 10.054
17.9971 9.994
18.0122 10.188
18.0274 10.383
18.0426 10.193
18.0578 10.066
18.0729 10.001
18.0881 10.056
18.1033 10.102
18.1185 10.042
18.1336 10.168
18.1488 10.095
18.1640 9.710
18.1792 9.852
18.1943 10.100
18.2095 10.041
18.2247 9.828
18.2399 9.852
18.2550 9.792
18.2702 10.024
18.2854 9.937
18.3006 9.973
18.3157 9.980
18.3309 9.922
18.3461 9.945
18.3613 9.686
18.3764 9.692
18.3916 9.722
18.4068 9.668
18.4220 9.756
18.4371 9.785
18.4523 9.920
18.4675 9.765
18.4827 9.867
18.4978 9.870
18.5130 9.845
18.5282 9.804
18.5434 9.741
18.5585 9.572
18.5737 9.704
18.5889 9.749
18.6041 9.639
18.6192 9.614
18.6344 9.876
18.6496 9.774
18.6648 9.682
18.6799 9.933
18.6951 9.885
18.7103 9.893
18.7255 9.814
18.7406 9.738
18.7558 9.659
18.7710 9.679
18.7862 9.726
18.8013 9.532
18.8165 9.628
18.8317 9.955
18.8469 10.051
18.8620 10.130
18.8772 10.056
18.8924 10.011
18.9076 10.036
18.9227 10.062
18.9379 10.055
18.9531 9.959
18.9683 10.001
18.9834 9.900
18.9986 9.994
19.0138 9.972
19.0290 10.109
19.0441 10.246
19.0593 10.171
19.0745 10.195
19.0897 10.349
19.1048 10.500
19.1200 10.629
19.1352 10.342
19.1504 10.465
19.1655 10.648
19.1807 10.677
19.1959 10.591
19.2111 10.504
19.2262 10.814
19.2414 10.768
19.2566 10.880
19.2718 10.807
19.2869 10.791
19.3021 10.760
19.3173 10.784
19.3325 11.176
19.3476 11.270
19.3628 11.078
19.3780 11.277
19.3932 11.317
19.4083 11.291
19.4235 11.017
19.4387 11.121
19.4539 11.339
19.4690 11.212
19.4842 11.236
19.4994 11.426
19.5146 11.621
19.5297 11.582
19.5449 11.366
19.5601 11.502
19.5753 11.719
19.5904 11.667
19.6056 11.642
19.6208 11.321
19.6360 11.475
19.6511 11.815
19.6663 11.747
19.6815 11.770
19.6967 11.707
19.7118 11.777
19.7270 11.814
19.7422 11.769
19.7574 11.707
19.7725 11.945
19.7877 11.954
19.8029 11.843
19.8180 12.138
19.8332 12.201
19.8484 12.071
19.8636 12.207
19.8787 12.623
19.8939 12.772
19.9091 12.859
19.9243 13.305
19.9394 13.636
19.9546 13.891
19.9698 14.061
19.9850 14.092
20.0001 14.313
20.0153 14.341
20.0305 13.900
20.0457 13.669
20.0608 13.680
20.0760 13.699
20.0912 13.796
20.1064 13.599
20.1215 13.355
20.1367 13.309
20.1519 12.893
20.1671 12.796
20.1822 13.098
20.1974 13.006
20.2126 12.888
20.2278 13.014
20.2429 12.868
20.2581 12.460
20.2733 12.232
20.2885 12.112
20.3036 11.996
20.3188 12.017
20.3340 12.071
20.3492 12.112
20.3643 12.003
20.3795 11.967
20.3947 11.874
20.4099 11.923
20.4250 12.208
20.4402 12.044
20.4554 12.147
20.4706 11.703
20.4857 11.612
20.5009 11.684
20.5161 11.597
20.5313 11.556
20.5464 11.361
20.5616 11.553
20.5768 11.565
20.5920 11.418
20.6071 11.059
20.6223 11.120
20.6375 11.026
20.6527 10.950
20.6678 10.635
20.6830 10.557
20.6982 10.502
20.7134 10.305
20.7285 10.578
20.7437 10.305
20.7589 10.326
20.7741 10.147
20.7892 10.151
20.8044 10.209
20.8196 10.315
20.8348 10.329
20.8499 10.184
20.8651 10.071
20.8803 10.067
20.8955 10.155
20.9106 10.040
20.9258 9.991
20.9410 10.321
20.9562 10.362
20.9713 10.329
20.9865 10.185
21.0017 9.860
21.0169 9.862
21.0320 9.840
21.0472 9.795
21.0624 10.474
21.0776 10.130
21.0927 10.302
21.1079 10.212
21.1231 9.835
21.1383 9.867
21.1534 9.870
21.1686 9.603
21.1838 9.610
21.1990 9.755
21.2141 9.815
21.2293 9.804
21.2445 10.047
21.2597 9.806
21.2748 9.843
21.2900 9.607
21.3052 9.568
21.3204 9.730
21.3355 9.340
21.3507 9.679
21.3659 9.506
21.3811 9.745
21.3962 9.420
21.4114 9.791
21.4266 9.764
21.4418 9.565
21.4569 9.474
21.4721 9.885
21.4873 9.423
21.5025 9.609
21.5176 9.416
21.5328 9.334
21.5480 9.368
21.5632 9.486
21.5783 8.983
21.5935 9.249
21.6087 9.411
21.6239 9.269
21.6390 9.092
21.6542 9.214
21.6694 9.162
21.6846 9.071
21.6997 9.086
21.7149 9.077
21.7301 9.195
21.7453 9.006
21.7604 8.976
21.7756 9.040
21.7908 8.869
21.8060 9.030
21.8211 9.163
21.8363 9.113
21.8515 9.176
21.8667 9.081
21.8818 9.142
21.8970 9.039
21.9122 8.877
21.9274 8.945
21.9425 9.083
21.9577 8.872
21.9729 9.016
21.9881 9.096
22.0032 8.915
22.0184 8.644
22.0336 8.688
22.0488 8.780
22.0639 8.776
22.0791 8.821
22.0943 8.925
22.1095 8.866
22.1246 8.899
22.1398 8.665
22.1550 8.616
22.1702 8.711
22.1853 8.791
22.2005 8.703
22.2157 8.654
22.2309 8.591
22.2460 8.418
22.2612 8.688
22.2764 8.627
22.2916 8.450
22.3067 8.512
22.3219 8.700
22.3371 8.541
22.3523 8.347
22.3674 8.628
22.3826 8.672
22.3978 8.602
22.4130 8.413
22.4281 8.361
22.4433 8.674
22.4585 8.287
22.4737 8.467
22.4888 8.443
22.5040 8.229
22.5192 8.259
22.5344 8.717
22.5495 8.379
22.5647 8.751
22.5799 8.426
22.5951 8.698
22.6102 8.285
22.6254 8.520
22.6406 8.441
22.6558 8.431
22.6709 8.612
22.6861 8.408
22.7013 8.385
22.7165 8.080
22.7316 6.482
