'Id: "" Comment: "" Operator: "Lab Manager" Anode: "Mo" Scantype: "Still (Eiger2R_500K (1D mode))" TimePerStep: "300" X: "11.8" Y: "9.4" Z: "11.284" 
7.2532 19.248
7.2684 19.140
7.2836 18.953
7.2987 19.366
7.3139 19.522
7.3291 19.439
7.3443 19.074
7.3594 19.566
7.3746 19.876
7.3898 19.675
7.4050 19.796
7.4201 19.785
7.4353 19.786
7.4505 19.595
7.4657 19.231
7.4808 19.474
7.4960 19.682
7.5112 19.822
7.5264 19.865
7.5415 19.654
7.5567 19.788
7.5719 19.937
7.5871 19.963
7.6022 20.100
7.6174 20.009
7.6326 20.312
7.6478 20.081
7.6629 19.843
7.6781 19.962
7.6933 20.220
7.7085 20.607
7.7236 20.662
7.7388 20.479
7.7540 20.266
7.7692 20.140
7.7843 20.643
7.7995 20.937
7.8147 20.726
7.8299 20.726
7.8450 20.886
7.8602 21.036
7.8754 21.160
7.8905 20.940
7.9057 21.007
7.9209 20.889
7.9361 21.139
7.9512 21.265
7.9664 21.225
7.9816 21.166
7.9968 21.119
8.0119 21.462
8.0271 21.674
8.0423 21.348
8.0575 21.478
8.0726 21.669
8.0878 21.622
8.1030 21.634
8.1182 21.484
8.1333 21.593
8.1485 22.076
8.1637 21.668
8.1789 21.630
8.1940 22.362
8.2092 22.150
8.2244 21.869
8.2396 21.726
8.2547 22.056
8.2699 22.034
8.2851 21.623
8.3003 21.703
8.3154 22.076
8.3306 22.127
8.3458 21.760
8.3610 22.102
8.3761 22.176
8.3913 22.067
8.4065 22.426
8.4217 21.979
8.4368 22.609
8.4520 22.197
8.4672 22.448
8.4824 22.232
8.4975 22.480
8.5127 22.487
8.5279 22.227
8.5431 22.428
8.5582 21.890
8.5734 22.415
8.5886 22.416
8.6038 22.652
8.6189 22.494
8.6341 22.113
8.6493 22.499
8.6645 22.413
8.6796 22.626
8.6948 22.458
8.7100 23.096
8.7252 22.261
8.7403 22.797
8.7555 22.709
8.7707 22.763
8.7859 22.686
8.8010 22.310
8.8162 22.342
8.8314 22.660
8.8466 23.101
8.8617 22.595
8.8769 22.409
8.8921 22.932
8.9073 22.557
8.9224 22.243
8.9376 22.343
8.9528 22.476
8.9680 22.922
8.9831 22.851
8.9983 22.767
9.0135 22.495
9.0287 22.589
9.0438 22.826
9.0590 22.982
9.0742 23.002
9.0894 23.166
9.1045 22.973
9.1197 22.921
9.1349 23.333
9.1501 23.192
9.1652 22.863
9.1804 22.947
9.1956 22.756
9.2108 23.039
9.2259 23.109
9.2411 22.794
9.2563 23.094
9.2715 22.935
9.2866 22.727
9.3018 22.854
9.3170 23.305
9.3322 22.792
9.3473 22.988
9.3625 23.297
9.3777 23.251
9.3929 23.340
9.4080 23.561
9.4232 23.368
9.4384 22.997
9.4536 22.733
9.4687 22.761
9.4839 23.126
9.4991 23.172
9.5143 23.145
9.5294 23.461
9.5446 23.626
9.5598 23.175
9.5750 23.343
9.5901 23.676
9.6053 23.497
9.6205 23.451
9.6357 23.570
9.6508 23.675
9.6660 23.968
9.6812 24.067
9.6964 24.231
9.7115 23.903
9.7267 23.868
9.7419 24.472
9.7571 24.354
9.7722 24.159
9.7874 24.378
9.8026 24.313
9.8178 24.107
9.8329 24.318
9.8481 24.191
9.8633 23.797
9.8785 23.904
9.8936 23.948
9.9088 24.279
9.9240 24.747
9.9392 24.404
9.9543 24.245
9.9695 24.273
9.9847 24.110
9.9999 24.022
10.0150 23.733
10.0302 23.888
10.0454 24.008
10.0606 23.404
10.0757 23.612
10.0909 23.967
10.1061 23.775
10.1213 23.930
10.1364 23.811
10.1516 23.689
10.1668 23.722
10.1820 23.897
10.1971 24.269
10.2123 23.830
10.2275 23.474
10.2427 23.802
10.2578 24.051
10.2730 23.997
10.2882 23.497
10.3034 23.425
10.3185 23.432
10.3337 23.423
10.3489 22.977
10.3641 23.107
10.3792 23.208
10.3944 23.045
10.4096 23.258
10.4248 23.537
10.4399 23.308
10.4551 23.202
10.4703 23.353
10.4855 23.146
10.5006 23.037
10.5158 23.123
10.5310 22.794
10.5462 22.447
10.5613 22.592
10.5765 22.642
10.5917 22.637
10.6069 22.779
10.6220 22.747
10.6372 22.557
10.6524 22.787
10.6676 23.032
10.6827 23.069
10.6979 22.509
10.7131 22.853
10.7283 22.842
10.7434 22.419
10.7586 22.405
10.7738 22.463
10.7890 22.347
10.8041 22.436
10.8193 22.228
10.8345 22.022
10.8497 22.363
10.8648 22.436
10.8800 22.546
10.8952 22.288
10.9104 21.990
10.9255 21.875
10.9407 21.819
10.9559 22.068
10.9711 22.189
10.9862 22.121
11.0014 22.194
11.0166 22.412
11.0318 22.322
11.0469 21.977
11.0621 21.902
11.0773 22.024
11.0925 21.811
11.1076 21.904
11.1228 21.869
11.1380 21.759
11.1532 21.765
11.1683 21.900
11.1835 21.695
11.1987 21.443
11.2139 21.381
11.2290 21.519
11.2442 21.714
11.2594 21.720
11.2746 21.610
11.2897 21.733
11.3049 21.671
11.3201 21.585
11.3353 21.742
11.3504 21.143
11.3656 21.430
11.3808 21.502
11.3960 21.747
11.4111 21.363
11.4263 20.880
11.4415 21.076
11.4567 21.395
11.4718 21.348
11.4870 21.343
11.5022 21.137
11.5174 21.008
11.5325 21.316
11.5477 21.482
11.5629 21.383
11.5781 21.261
11.5932 21.279
11.6084 21.169
11.6236 20.957
11.6388 21.169
11.6539 21.111
11.6691 20.807
11.6843 20.792
11.6995 20.656
11.7146 20.328
11.7298 20.697
11.7450 20.552
11.7602 20.414
11.7753 20.410
11.7905 20.082
11.8057 20.100
11.8209 20.158
11.8360 19.646
11.8512 19.822
11.8664 20.021
11.8816 20.063
11.8967 19.672
11.9119 19.643
11.9271 19.571
11.9423 19.655
11.9574 19.429
11.9726 19.435
11.9878 19.415
12.0030 19.060
12.0181 19.062
12.0333 18.919
12.0485 18.850
12.0637 19.099
12.0788 19.134
12.0940 19.121
12.1092 18.917
12.1244 18.631
12.1395 18.575
12.1547 18.528
12.1699 18.364
12.1851 18.463
12.2002 18.312
12.2154 17.925
12.2306 18.254
12.2458 18.489
12.2609 18.342
12.2761 18.207
12.2913 18.065
12.3065 17.793
12.3216 17.700
12.3368 17.311
12.3520 17.286
12.3672 17.539
12.3823 17.363
12.3975 17.473
12.4127 17.300
12.4279 16.923
12.4430 16.859
12.4582 16.917
12.4734 16.826
12.4886 16.640
12.5037 16.474
12.5189 16.511
12.5341 16.380
12.5493 16.045
12.5644 16.165
12.5796 16.343
12.5948 15.987
12.6100 16.043
12.6251 16.027
12.6403 15.880
12.6555 15.696
12.6707 15.815
12.6858 15.737
12.7010 15.532
12.7162 15.558
12.7314 15.276
12.7465 15.233
12.7617 15.441
12.7769 15.037
12.7921 14.855
12.8072 15.226
12.8224 15.235
12.8376 15.025
12.8528 14.901
12.8679 14.937
12.8831 14.631
12.8983 14.582
12.9135 14.742
12.9286 14.550
12.9438 14.460
12.9590 14.576
12.9742 14.545
12.9893 14.472
13.0045 14.139
13.0197 13.969
13.0349 14.069
13.0500 13.962
13.0652 13.942
13.0804 13.738
13.0956 13.448
13.1107 13.692
13.1259 13.995
13.1411 13.778
13.1563 13.627
13.1714 13.582
13.1866 13.483
13.2018 13.540
13.2170 13.434
13.2321 13.286
13.2473 13.343
13.2625 13.398
13.2777 13.358
13.2928 13.361
13.3080 13.190
13.3232 13.220
13.3384 13.402
13.3535 13.029
13.3687 12.999
13.3839 13.266
13.3991 13.220
13.4142 13.126
13.4294 12.939
13.4446 12.658
13.4598 12.666
13.4749 12.842
13.4901 12.682
13.5053 12.625
13.5205 12.551
13.5356 12.423
13.5508 12.454
13.5660 12.423
13.5812 12.361
13.5963 12.255
13.6115 11.998
13.6267 12.208
13.6419 12.237
13.6570 11.970
13.6722 12.234
13.6874 12.235
13.7026 12.024
13.7177 11.997
13.7329 12.097
13.7481 12.173
13.7633 12.099
13.7784 11.972
13.7936 12.016
13.8088 12.195
13.8239 12.083
13.8391 12.190
13.8543 12.371
13.8695 12.351
13.8846 12.123
13.8998 12.014
13.9150 11.980
13.9302 11.994
13.9453 11.895
13.9605 11.975
13.9757 11.736
13.9909 11.679
14.0060 11.616
14.0212 11.334
14.0364 11.583
14.0516 11.451
14.0667 11.337
14.0819 11.349
14.0971 11.503
14.1123 11.363
14.1274 11.036
14.1426 11.154
14.1578 11.262
14.1730 11.389
14.1881 11.087
14.2033 11.278
14.2185 11.280
14.2337 11.098
14.2488 11.181
14.2640 11.319
14.2792 11.433
14.2944 11.392
14.3095 11.724
14.3247 11.800
14.3399 12.088
14.3551 12.176
14.3702 12.444
14.3854 12.687
14.4006 13.325
14.4158 13.784
14.4309 14.043
14.4461 14.159
14.4613 13.803
14.4765 13.686
14.4916 13.790
14.5068 13.893
14.5220 13.560
14.5372 13.593
14.5523 13.161
14.5675 12.567
14.5827 12.311
14.5979 12.178
14.6130 11.957
14.6282 11.689
14.6434 11.608
14.6586 11.346
14.6737 11.651
14.6889 11.428
14.7041 11.114
14.7193 10.950
14.7344 11.035
14.7496 11.413
14.7648 11.104
14.7800 11.383
14.7951 11.261
14.8103 11.020
14.8255 11.337
14.8407 11.250
14.8558 11.160
14.8710 10.938
14.8862 11.178
14.9014 10.934
14.9165 11.271
14.9317 11.278
14.9469 10.865
14.9621 10.763
14.9772 10.603
14.9924 11.015
15.0076 10.641
15.0228 10.594
15.0379 10.843
15.0531 10.700
15.0683 10.635
15.0835 10.847
15.0986 10.693
15.1138 11.038
15.1290 10.457
15.1442 10.198
15.1593 10.433
15.1745 10.379
15.1897 10.287
15.2049 10.373
15.2200 10.748
15.2352 10.202
15.2504 10.458
15.2656 10.339
15.2807 10.358
15.2959 10.552
15.3111 10.322
15.3263 10.425
15.3414 10.476
15.3566 10.388
15.3718 10.709
15.3870 10.464
15.4021 10.444
15.4173 10.540
15.4325 10.511
15.4477 10.551
15.4628 10.417
15.4780 10.583
15.4932 10.389
15.5084 10.435
15.5235 10.419
15.5387 10.044
15.5539 10.228
15.5691 10.536
15.5842 10.295
15.5994 10.458
15.6146 10.442
15.6298 10.302
15.6449 10.118
15.6601 10.103
15.6753 10.149
15.6905 10.120
15.7056 10.320
15.7208 10.370
15.7360 10.079
15.7512 10.157
15.7663 10.117
15.7815 9.882
15.7967 9.839
15.8119 9.811
15.8270 9.887
15.8422 9.949
15.8574 9.979
15.8726 9.928
15.8877 9.737
15.9029 9.767
15.9181 10.126
15.9333 10.118
15.9484 9.921
15.9636 9.709
15.9788 9.566
15.9940 9.528
16.0091 9.841
16.0243 9.792
16.0395 9.590
16.0547 10.012
16.0698 9.997
16.0850 9.902
16.1002 9.654
16.1154 9.881
16.1305 9.829
16.1457 9.584
16.1609 9.781
16.1761 9.647
16.1912 9.834
16.2064 9.784
16.2216 9.774
16.2368 9.906
16.2519 9.921
16.2671 9.944
16.2823 10.199
16.2975 10.229
16.3126 10.434
16.3278 10.365
16.3430 10.234
16.3582 10.068
16.3733 10.238
16.3885 10.210
16.4037 10.299
16.4189 10.406
16.4340 10.166
16.4492 10.076
16.4644 10.061
16.4796 10.036
16.4947 9.783
16.5099 9.744
16.5251 9.824
16.5403 9.647
16.5554 9.655
16.5706 9.908
16.5858 9.983
16.6010 9.966
16.6161 9.916
16.6313 9.946
16.6465 10.287
16.6617 10.206
16.6768 10.020
16.6920 10.143
16.7072 10.190
16.7224 10.298
16.7375 10.090
16.7527 10.047
16.7679 9.988
16.7831 10.138
16.7982 10.198
16.8134 9.871
16.8286 9.870
16.8438 9.998
16.8589 9.916
16.8741 9.781
16.8893 9.877
16.9045 9.804
16.9196 9.847
16.9348 10.012
16.9500 10.178
16.9652 10.048
16.9803 9.899
16.9955 10.202
17.0107 10.217
17.0259 9.929
17.0410 10.076
17.0562 10.514
17.0714 10.422
17.0866 10.502
17.1017 10.686
17.1169 10.703
17.1321 10.982
17.1473 11.332
17.1624 11.731
17.1776 12.390
17.1928 13.339
17.2080 14.215
17.2231 15.243
17.2383 16.410
17.2535 17.478
17.2687 18.443
17.2838 18.837
17.2990 18.254
17.3142 16.949
17.3294 16.266
17.3445 16.294
17.3597 16.335
17.3749 16.025
17.3901 15.274
17.4052 14.248
17.4204 13.013
17.4356 12.108
17.4508 11.647
17.4659 11.434
17.4811 11.392
17.4963 11.315
17.5115 11.083
17.5266 10.816
17.5418 10.724
17.5570 10.532
17.5722 10.281
17.5873 10.392
17.6025 10.551
17.6177 10.671
17.6329 10.754
17.6480 10.787
17.6632 10.698
17.6784 10.580
17.6936 10.775
17.7087 11.089
17.7239 11.211
17.7391 11.395
17.7543 11.544
17.7694 11.708
17.7846 11.925
17.7998 12.136
17.8150 12.536
17.8301 12.680
17.8453 12.624
17.8605 12.581
17.8757 12.424
17.8908 12.375
17.9060 12.535
17.9212 12.571
17.9364 11.978
17.9515 11.477
17.9667 11.471
17.9819 11.513
17.9971 11.213
18.0122 10.952
18.0274 10.658
18.0426 10.508
18.0578 10.394
18.0729 10.453
18.0881 10.409
18.1033 10.285
18.1185 10.027
18.1336 10.017
18.1488 10.220
18.1640 10.194
18.1792 9.981
18.1943 10.087
18.2095 10.017
18.2247 9.943
18.2399 10.076
18.2550 10.038
18.2702 10.151
18.2854 10.024
18.3006 9.943
18.3157 10.089
18.3309 10.189
18.3461 10.099
18.3613 10.058
18.3764 10.027
18.3916 9.942
18.4068 9.873
18.4220 9.810
18.4371 9.835
18.4523 10.039
18.4675 9.882
18.4827 9.897
18.4978 9.915
18.5130 9.973
18.5282 9.952
18.5434 9.951
18.5585 9.829
18.5737 9.949
18.5889 9.712
18.6041 9.668
18.6192 9.788
18.6344 9.771
18.6496 10.015
18.6648 9.845
18.6799 9.862
18.6951 9.831
18.7103 9.872
18.7255 9.927
18.7406 9.699
18.7558 9.589
18.7710 9.766
18.7862 10.002
18.8013 9.936
18.8165 10.006
18.8317 10.131
18.8469 10.231
18.8620 10.102
18.8772 9.951
18.8924 9.918
18.9076 9.874
18.9227 9.946
18.9379 10.036
18.9531 10.267
18.9683 10.109
18.9834 9.938
18.9986 10.330
19.0138 10.461
19.0290 10.504
19.0441 10.309
19.0593 10.296
19.0745 10.303
19.0897 10.308
19.1048 10.355
19.1200 10.382
19.1352 10.570
19.1504 10.517
19.1655 10.665
19.1807 10.616
19.1959 10.551
19.2111 10.691
19.2262 10.630
19.2414 10.800
19.2566 11.001
19.2718 10.948
19.2869 10.992
19.3021 10.990
19.3173 10.955
19.3325 11.176
19.3476 11.181
19.3628 11.212
19.3780 11.065
19.3932 10.910
19.4083 11.191
19.4235 11.460
19.4387 11.481
19.4539 11.390
19.4690 11.299
19.4842 11.383
19.4994 11.424
19.5146 11.559
19.5297 11.605
19.5449 11.694
19.5601 11.611
19.5753 11.404
19.5904 11.353
19.6056 11.213
19.6208 11.176
19.6360 11.636
19.6511 11.861
19.6663 11.554
19.6815 11.442
19.6967 11.529
19.7118 11.474
19.7270 11.703
19.7422 11.983
19.7574 11.825
19.7725 11.886
19.7877 12.036
19.8029 11.884
19.8180 11.821
19.8332 12.005
19.8484 11.980
19.8636 12.258
19.8787 12.615
19.8939 13.002
19.9091 13.202
19.9243 13.286
19.9394 13.554
19.9546 13.961
19.9698 14.368
19.9850 14.673
20.0001 14.536
20.0153 14.403
20.0305 14.299
20.0457 13.934
20.0608 13.790
20.0760 13.398
20.0912 13.530
20.1064 13.847
20.1215 13.416
20.1367 13.112
20.1519 12.861
20.1671 12.718
20.1822 12.498
20.1974 12.453
20.2126 12.574
20.2278 12.634
20.2429 12.402
20.2581 12.339
20.2733 12.097
20.2885 11.859
20.3036 12.001
20.3188 11.717
20.3340 11.692
20.3492 11.797
20.3643 11.473
20.3795 11.399
20.3947 11.313
20.4099 11.255
20.4250 11.205
20.4402 11.082
20.4554 11.031
20.4706 11.075
20.4857 11.287
20.5009 11.384
20.5161 11.324
20.5313 11.179
20.5464 11.236
20.5616 11.144
20.5768 11.167
20.5920 11.360
20.6071 11.366
20.6223 10.968
20.6375 11.068
20.6527 11.018
20.6678 11.073
20.6830 11.503
20.6982 11.197
20.7134 10.811
20.7285 10.746
20.7437 10.877
20.7589 10.621
20.7741 11.046
20.7892 10.853
20.8044 10.648
20.8196 10.489
20.8348 10.839
20.8499 10.459
20.8651 10.479
20.8803 10.443
20.8955 10.587
20.9106 10.471
20.9258 10.775
20.9410 10.641
20.9562 10.684
20.9713 10.587
20.9865 10.802
21.0017 10.502
21.0169 10.595
21.0320 10.661
21.0472 10.510
21.0624 10.510
21.0776 10.421
21.0927 10.344
21.1079 10.286
21.1231 10.062
21.1383 10.258
21.1534 10.106
21.1686 9.899
21.1838 9.875
21.1990 9.999
21.2141 10.109
21.2293 9.696
21.2445 9.676
21.2597 9.923
21.2748 9.548
21.2900 9.656
21.3052 9.508
21.3204 9.824
21.3355 9.345
21.3507 9.409
21.3659 9.396
21.3811 9.482
21.3962 9.566
21.4114 9.455
21.4266 9.305
21.4418 9.222
21.4569 9.258
21.4721 9.179
21.4873 9.303
21.5025 9.509
21.5176 9.460
21.5328 9.568
21.5480 9.253
21.5632 9.408
21.5783 9.375
21.5935 9.369
21.6087 9.155
21.6239 9.003
21.6390 9.171
21.6542 9.136
21.6694 9.519
21.6846 9.219
21.6997 9.044
21.7149 9.077
21.7301 9.109
21.7453 8.910
21.7604 8.953
21.7756 8.955
21.7908 8.981
21.8060 9.023
21.8211 9.048
21.8363 9.133
21.8515 9.204
21.8667 9.309
21.8818 9.212
21.8970 9.063
21.9122 8.902
21.9274 9.042
21.9425 9.176
21.9577 9.040
21.9729 8.728
21.9881 8.755
22.0032 8.859
22.0184 8.868
22.0336 8.926
22.0488 8.930
22.0639 8.881
22.0791 8.893
22.0943 8.746
22.1095 8.635
22.1246 8.645
22.1398 8.915
22.1550 8.846
22.1702 8.645
22.1853 8.739
22.2005 8.797
22.2157 8.566
22.2309 8.592
22.2460 8.442
22.2612 8.558
22.2764 8.482
22.2916 8.358
22.3067 8.351
22.3219 8.576
22.3371 8.850
22.3523 8.540
22.3674 8.690
22.3826 8.662
22.3978 8.454
22.4130 8.648
22.4281 8.349
22.4433 8.287
22.4585 8.246
22.4737 8.255
22.4888 8.374
22.5040 8.576
22.5192 8.500
22.5344 8.528
22.5495 8.455
22.5647 8.382
22.5799 8.206
22.5951 8.381
22.6102 8.461
22.6254 8.696
22.6406 8.712
22.6558 8.844
22.6709 8.383
22.6861 8.513
22.7013 8.100
22.7165 8.068
22.7316 6.422
