'Id: "" Comment: "" Operator: "Lab Manager" Anode: "Mo" Scantype: "Still (Eiger2R_500K (1D mode))" TimePerStep: "300" X: "11.8" Y: "9.4" Z: "11.284" 
7.2532 18.909
7.2684 18.765
7.2836 18.834
7.2987 19.010
7.3139 19.136
7.3291 18.784
7.3443 19.271
7.3594 19.278
7.3746 18.859
7.3898 19.356
7.4050 19.745
7.4201 19.145
7.4353 19.132
7.4505 19.620
7.4657 19.318
7.4808 19.534
7.4960 19.272
7.5112 19.296
7.5264 19.484
7.5415 19.553
7.5567 19.500
7.5719 19.845
7.5871 19.452
7.6022 19.774
7.6174 19.708
7.6326 20.120
7.6478 20.106
7.6629 19.569
7.6781 19.948
7.6933 20.414
7.7085 20.219
7.7236 20.133
7.7388 20.240
7.7540 20.365
7.7692 20.157
7.7843 20.144
7.7995 20.483
7.8147 20.539
7.8299 20.452
7.8450 20.423
7.8602 20.682
7.8754 20.643
7.8905 20.566
7.9057 20.341
7.9209 20.487
7.9361 20.626
7.9512 20.779
7.9664 20.671
7.9816 20.549
7.9968 20.916
8.0119 20.922
8.0271 20.735
8.0423 21.095
8.0575 20.742
8.0726 20.977
8.0878 20.897
8.1030 21.075
8.1182 21.294
8.1333 21.077
8.1485 21.146
8.1637 21.296
8.1789 21.539
8.1940 21.392
8.2092 21.182
8.2244 21.728
8.2396 21.754
8.2547 21.737
8.2699 21.614
8.2851 21.469
8.3003 21.429
8.3154 21.400
8.3306 21.294
8.3458 21.146
8.3610 21.769
8.3761 21.691
8.3913 21.665
8.4065 21.556
8.4217 21.809
8.4368 21.939
8.4520 21.828
8.4672 21.637
8.4824 21.686
8.4975 21.912
8.5127 21.784
8.5279 21.700
8.5431 21.972
8.5582 21.536
8.5734 22.060
8.5886 21.934
8.6038 21.549
8.6189 22.603
8.6341 21.836
8.6493 22.685
8.6645 21.872
8.6796 21.832
8.6948 22.365
8.7100 22.231
8.7252 22.064
8.7403 22.030
8.7555 22.153
8.7707 21.953
8.7859 21.506
8.8010 22.319
8.8162 22.347
8.8314 22.106
8.8466 22.036
8.8617 22.246
8.8769 22.377
8.8921 22.979
8.9073 22.992
8.9224 22.879
8.9376 22.522
8.9528 22.583
8.9680 22.357
8.9831 22.345
8.9983 22.444
9.0135 22.506
9.0287 22.693
9.0438 22.650
9.0590 22.644
9.0742 22.715
9.0894 22.686
9.1045 22.577
9.1197 22.635
9.1349 22.600
9.1501 22.887
9.1652 22.913
9.1804 22.717
9.1956 22.825
9.2108 22.672
9.2259 22.625
9.2411 22.361
9.2563 22.954
9.2715 23.174
9.2866 23.006
9.3018 22.837
9.3170 22.607
9.3322 22.470
9.3473 22.836
9.3625 22.953
9.3777 22.715
9.3929 22.819
9.4080 22.605
9.4232 22.957
9.4384 23.275
9.4536 23.027
9.4687 22.815
9.4839 22.933
9.4991 23.016
9.5143 22.933
9.5294 23.244
9.5446 23.324
9.5598 23.188
9.5750 23.223
9.5901 23.138
9.6053 22.992
9.6205 23.005
9.6357 22.976
9.6508 23.111
9.6660 23.474
9.6812 23.376
9.6964 23.487
9.7115 23.690
9.7267 23.425
9.7419 23.452
9.7571 23.563
9.7722 23.543
9.7874 23.688
9.8026 23.703
9.8178 23.515
9.8329 23.562
9.8481 23.405
9.8633 23.286
9.8785 23.138
9.8936 22.963
9.9088 22.993
9.9240 23.310
9.9392 23.097
9.9543 22.612
9.9695 23.088
9.9847 23.218
9.9999 22.884
10.0150 22.903
10.0302 23.095
10.0454 23.090
10.0606 22.938
10.0757 22.815
10.0909 22.976
10.1061 23.099
10.1213 23.086
10.1364 23.242
10.1516 23.427
10.1668 23.538
10.1820 23.694
10.1971 23.284
10.2123 23.282
10.2275 23.466
10.2427 23.070
10.2578 23.080
10.2730 23.076
10.2882 22.886
10.3034 23.050
10.3185 23.101
10.3337 22.677
10.3489 22.592
10.3641 22.659
10.3792 22.594
10.3944 22.621
10.4096 22.731
10.4248 22.672
10.4399 22.738
10.4551 22.869
10.4703 22.672
10.4855 22.412
10.5006 22.427
10.5158 22.504
10.5310 22.167
10.5462 22.194
10.5613 22.476
10.5765 22.478
10.5917 22.163
10.6069 22.083
10.6220 22.198
10.6372 22.437
10.6524 22.569
10.6676 22.685
10.6827 22.502
10.6979 22.472
10.7131 22.557
10.7283 22.253
10.7434 22.421
10.7586 22.391
10.7738 22.081
10.7890 22.085
10.8041 22.204
10.8193 22.120
10.8345 22.285
10.8497 22.326
10.8648 22.128
10.8800 22.070
10.8952 21.996
10.9104 22.003
10.9255 21.703
10.9407 21.780
10.9559 21.632
10.9711 21.933
10.9862 21.896
11.0014 21.971
11.0166 22.285
11.0318 21.938
11.0469 21.684
11.0621 21.612
11.0773 21.871
11.0925 21.704
11.1076 21.701
11.1228 21.781
11.1380 21.689
11.1532 21.829
11.1683 21.501
11.1835 21.463
11.1987 21.986
11.2139 21.738
11.2290 21.686
11.2442 21.499
11.2594 21.491
11.2746 21.548
11.2897 21.310
11.3049 21.551
11.3201 21.258
11.3353 21.429
11.3504 21.196
11.3656 21.132
11.3808 21.060
11.3960 21.589
11.4111 21.605
11.4263 21.153
11.4415 21.033
11.4567 20.991
11.4718 20.747
11.4870 20.501
11.5022 20.873
11.5174 21.085
11.5325 21.041
11.5477 20.735
11.5629 20.362
11.5781 20.601
11.5932 20.931
11.6084 20.442
11.6236 20.677
11.6388 20.575
11.6539 20.406
11.6691 20.341
11.6843 20.581
11.6995 20.402
11.7146 20.113
11.7298 20.243
11.7450 20.049
11.7602 20.023
11.7753 20.270
11.7905 20.305
11.8057 20.313
11.8209 20.342
11.8360 20.132
11.8512 20.341
11.8664 20.214
11.8816 19.812
11.8967 19.750
11.9119 19.686
11.9271 19.390
11.9423 19.666
11.9574 19.417
11.9726 19.046
11.9878 19.059
12.0030 19.417
12.0181 19.144
12.0333 18.948
12.0485 18.953
12.0637 18.578
12.0788 18.822
12.0940 18.822
12.1092 18.694
12.1244 18.441
12.1395 18.535
12.1547 18.613
12.1699 18.720
12.1851 18.424
12.2002 18.429
12.2154 18.067
12.2306 18.006
12.2458 17.987
12.2609 17.783
12.2761 17.672
12.2913 17.629
12.3065 17.512
12.3216 17.505
12.3368 17.168
12.3520 17.277
12.3672 17.273
12.3823 17.074
12.3975 17.040
12.4127 17.074
12.4279 17.137
12.4430 17.001
12.4582 16.560
12.4734 16.719
12.4886 16.770
12.5037 16.666
12.5189 16.745
12.5341 16.441
12.5493 16.381
12.5644 16.548
12.5796 16.145
12.5948 15.926
12.6100 16.053
12.6251 15.959
12.6403 15.944
12.6555 16.046
12.6707 15.964
12.6858 15.880
12.7010 16.045
12.7162 15.913
12.7314 15.639
12.7465 15.500
12.7617 15.445
12.7769 15.302
12.7921 15.154
12.8072 15.261
12.8224 15.390
12.8376 14.770
12.8528 14.491
12.8679 14.755
12.8831 14.696
12.8983 14.585
12.9135 14.599
12.9286 14.708
12.9438 14.294
12.9590 14.058
12.9742 14.311
12.9893 14.416
13.0045 14.175
13.0197 14.117
13.0349 14.170
13.0500 13.842
13.0652 13.693
13.0804 13.746
13.0956 13.771
13.1107 13.652
13.1259 13.649
13.1411 13.513
13.1563 13.581
13.1714 13.813
13.1866 13.569
13.2018 13.428
13.2170 13.455
13.2321 13.412
13.2473 13.199
13.2625 13.125
13.2777 13.290
13.2928 13.340
13.3080 13.140
13.3232 12.983
13.3384 13.212
13.3535 13.386
13.3687 13.076
13.3839 13.000
13.3991 13.054
13.4142 12.788
13.4294 12.500
13.4446 12.365
13.4598 12.572
13.4749 12.702
13.4901 12.604
13.5053 12.457
13.5205 12.134
13.5356 12.138
13.5508 12.524
13.5660 12.473
13.5812 12.307
13.5963 12.126
13.6115 12.154
13.6267 12.440
13.6419 12.191
13.6570 12.066
13.6722 12.233
13.6874 12.256
13.7026 12.020
13.7177 12.072
13.7329 12.286
13.7481 12.313
13.7633 12.242
13.7784 11.906
13.7936 12.045
13.8088 12.200
13.8239 12.349
13.8391 12.368
13.8543 12.263
13.8695 12.218
13.8846 12.384
13.8998 12.049
13.9150 11.934
13.9302 12.033
13.9453 12.116
13.9605 12.120
13.9757 11.982
13.9909 11.782
14.0060 11.519
14.0212 11.448
14.0364 11.477
14.0516 11.525
14.0667 11.512
14.0819 11.571
14.0971 11.424
14.1123 11.682
14.1274 11.549
14.1426 11.620
14.1578 11.469
14.1730 11.416
14.1881 11.602
14.2033 11.842
14.2185 11.579
14.2337 11.732
14.2488 11.659
14.2640 11.660
14.2792 11.818
14.2944 11.974
14.3095 12.132
14.3247 11.917
14.3399 12.038
14.3551 12.595
14.3702 12.588
14.3854 12.766
14.4006 13.091
14.4158 13.457
14.4309 12.798
14.4461 12.589
14.4613 12.373
14.4765 12.462
14.4916 12.526
14.5068 12.029
14.5220 11.640
14.5372 11.615
14.5523 11.341
14.5675 11.342
14.5827 11.181
14.5979 10.883
14.6130 10.753
14.6282 11.024
14.6434 10.876
14.6586 10.754
14.6737 10.834
14.6889 10.918
14.7041 10.817
14.7193 10.644
14.7344 10.674
14.7496 10.651
14.7648 10.473
14.7800 10.978
14.7951 10.584
14.8103 10.564
14.8255 10.447
14.8407 10.465
14.8558 10.768
14.8710 10.618
14.8862 10.312
14.9014 10.235
14.9165 10.445
14.9317 10.479
14.9469 10.442
14.9621 10.452
14.9772 10.116
14.9924 10.107
15.0076 10.387
15.0228 10.337
15.0379 10.247
15.0531 10.128
15.0683 10.051
15.0835 10.218
15.0986 10.267
15.1138 9.749
15.1290 10.434
15.1442 10.254
15.1593 10.223
15.1745 10.472
15.1897 10.112
15.2049 10.009
15.2200 9.948
15.2352 9.941
15.2504 10.093
15.2656 9.989
15.2807 9.815
15.2959 9.626
15.3111 10.268
15.3263 10.382
15.3414 10.051
15.3566 9.954
15.3718 9.683
15.3870 10.294
15.4021 10.242
15.4173 10.249
15.4325 9.913
15.4477 10.102
15.4628 10.085
15.4780 9.832
15.4932 10.032
15.5084 9.790
15.5235 9.967
15.5387 9.874
15.5539 9.981
15.5691 9.843
15.5842 9.687
15.5994 9.657
15.6146 9.802
15.6298 9.790
15.6449 9.885
15.6601 9.759
15.6753 9.740
15.6905 9.766
15.7056 9.596
15.7208 9.697
15.7360 10.094
15.7512 9.759
15.7663 9.911
15.7815 9.980
15.7967 9.640
15.8119 9.663
15.8270 9.809
15.8422 9.348
15.8574 9.561
15.8726 9.468
15.8877 9.239
15.9029 9.286
15.9181 9.277
15.9333 9.469
15.9484 9.273
15.9636 9.761
15.9788 9.562
15.9940 9.374
16.0091 9.466
16.0243 9.703
16.0395 9.665
16.0547 9.553
16.0698 9.409
16.0850 9.531
16.1002 9.628
16.1154 9.645
16.1305 9.589
16.1457 9.578
16.1609 9.551
16.1761 9.791
16.1912 9.419
16.2064 9.558
16.2216 9.846
16.2368 9.677
16.2519 9.627
16.2671 9.873
16.2823 9.524
16.2975 9.679
16.3126 10.010
16.3278 9.940
16.3430 9.441
16.3582 9.631
16.3733 9.804
16.3885 9.551
16.4037 9.603
16.4189 9.900
16.4340 9.786
16.4492 9.821
16.4644 9.899
16.4796 9.645
16.4947 9.523
16.5099 9.196
16.5251 9.211
16.5403 9.404
16.5554 9.584
16.5706 9.415
16.5858 9.387
16.6010 9.419
16.6161 9.553
16.6313 9.523
16.6465 9.673
16.6617 9.481
16.6768 9.318
16.6920 9.679
16.7072 10.025
16.7224 10.105
16.7375 9.767
16.7527 9.805
16.7679 9.723
16.7831 9.611
16.7982 9.724
16.8134 9.920
16.8286 9.729
16.8438 9.658
16.8589 9.729
16.8741 9.750
16.8893 9.722
16.9045 9.706
16.9196 9.898
16.9348 10.050
16.9500 9.781
16.9652 9.742
16.9803 9.831
16.9955 9.920
17.0107 9.849
17.0259 9.945
17.0410 9.907
17.0562 10.038
17.0714 10.245
17.0866 10.330
17.1017 10.330
17.1169 10.552
17.1321 10.877
17.1473 11.155
17.1624 11.627
17.1776 12.193
17.1928 12.955
17.2080 13.619
17.2231 14.516
17.2383 16.306
17.2535 17.848
17.2687 18.415
17.2838 18.449
17.2990 17.962
17.3142 16.999
17.3294 16.232
17.3445 15.887
17.3597 15.878
17.3749 15.679
17.3901 15.000
17.4052 14.234
17.4204 13.490
17.4356 12.661
17.4508 11.854
17.4659 11.487
17.4811 11.455
17.4963 11.355
17.5115 11.217
17.5266 10.932
17.5418 11.002
17.5570 11.324
17.5722 10.925
17.5873 10.727
17.6025 10.846
17.6177 11.025
17.6329 11.177
17.6480 11.117
17.6632 11.180
17.6784 11.522
17.6936 11.890
17.7087 11.724
17.7239 11.470
17.7391 11.327
17.7543 11.278
17.7694 11.262
17.7846 11.141
17.7998 10.939
17.8150 10.872
17.8301 10.775
17.8453 10.378
17.8605 10.424
17.8757 10.497
17.8908 10.565
17.9060 10.403
17.9212 10.087
17.9364 10.128
17.9515 10.170
17.9667 10.465
17.9819 10.524
17.9971 10.244
18.0122 10.102
18.0274 9.890
18.0426 9.997
18.0578 10.254
18.0729 10.176
18.0881 10.159
18.1033 10.072
18.1185 10.071
18.1336 9.998
18.1488 9.825
18.1640 9.870
18.1792 9.899
18.1943 9.939
18.2095 9.806
18.2247 9.933
18.2399 9.872
18.2550 9.786
18.2702 9.774
18.2854 9.910
18.3006 9.910
18.3157 9.681
18.3309 9.595
18.3461 9.673
18.3613 9.776
18.3764 9.823
18.3916 9.898
18.4068 9.944
18.4220 9.897
18.4371 9.809
18.4523 9.710
18.4675 9.949
18.4827 10.157
18.4978 9.855
18.5130 9.777
18.5282 9.649
18.5434 9.652
18.5585 9.758
18.5737 10.080
18.5889 10.081
18.6041 9.910
18.6192 9.845
18.6344 9.736
18.6496 9.715
18.6648 9.889
18.6799 9.918
18.6951 9.780
18.7103 9.768
18.7255 9.723
18.7406 9.720
18.7558 9.922
18.7710 10.011
18.7862 9.977
18.8013 9.852
18.8165 9.847
18.8317 10.127
18.8469 10.100
18.8620 9.875
18.8772 9.724
18.8924 9.884
18.9076 9.889
18.9227 9.759
18.9379 9.715
18.9531 9.839
18.9683 9.836
18.9834 9.763
18.9986 10.264
19.0138 10.359
19.0290 10.231
19.0441 10.208
19.0593 10.226
19.0745 10.435
19.0897 10.445
19.1048 10.145
19.1200 10.317
19.1352 10.460
19.1504 10.425
19.1655 10.447
19.1807 10.545
19.1959 10.703
19.2111 10.832
19.2262 10.895
19.2414 10.810
19.2566 10.827
19.2718 10.611
19.2869 10.856
19.3021 11.138
19.3173 11.277
19.3325 11.275
19.3476 11.122
19.3628 10.985
19.3780 10.902
19.3932 11.002
19.4083 11.202
19.4235 11.217
19.4387 11.281
19.4539 11.234
19.4690 11.139
19.4842 11.317
19.4994 11.547
19.5146 11.568
19.5297 11.559
19.5449 11.531
19.5601 11.514
19.5753 11.612
19.5904 11.429
19.6056 11.400
19.6208 11.608
19.6360 11.637
19.6511 11.775
19.6663 11.700
19.6815 11.502
19.6967 11.554
19.7118 11.569
19.7270 11.648
19.7422 11.747
19.7574 11.892
19.7725 11.919
19.7877 12.035
19.8029 12.056
19.8180 11.985
19.8332 12.322
19.8484 12.520
19.8636 12.490
19.8787 12.586
19.8939 12.737
19.9091 12.980
19.9243 13.489
19.9394 13.748
19.9546 14.124
19.9698 14.331
19.9850 14.615
20.0001 14.734
20.0153 14.235
20.0305 14.173
20.0457 13.947
20.0608 13.887
20.0760 13.877
20.0912 13.671
20.1064 13.689
20.1215 13.559
20.1367 13.410
20.1519 12.982
20.1671 12.713
20.1822 13.005
20.1974 12.997
20.2126 12.831
20.2278 12.888
20.2429 12.821
20.2581 12.629
20.2733 12.050
20.2885 11.962
20.3036 12.006
20.3188 12.003
20.3340 12.018
20.3492 11.926
20.3643 11.768
20.3795 11.858
20.3947 11.629
20.4099 11.556
20.4250 11.534
20.4402 11.700
20.4554 11.447
20.4706 11.667
20.4857 12.190
20.5009 11.854
20.5161 11.624
20.5313 11.634
20.5464 11.702
20.5616 11.676
20.5768 11.860
20.5920 11.599
20.6071 11.187
20.6223 11.392
20.6375 11.163
20.6527 10.629
20.6678 10.591
20.6830 10.685
20.6982 11.061
20.7134 10.947
20.7285 10.507
20.7437 10.463
20.7589 10.327
20.7741 10.341
20.7892 10.534
20.8044 10.332
20.8196 10.379
20.8348 10.246
20.8499 9.951
20.8651 10.159
20.8803 10.338
20.8955 10.492
20.9106 10.561
20.9258 10.366
20.9410 10.297
20.9562 10.717
20.9713 10.292
20.9865 10.046
21.0017 10.143
21.0169 10.338
21.0320 10.367
21.0472 10.116
21.0624 9.808
21.0776 9.861
21.0927 10.153
21.1079 10.161
21.1231 10.219
21.1383 10.164
21.1534 10.070
21.1686 9.969
21.1838 10.055
21.1990 9.554
21.2141 9.459
21.2293 9.887
21.2445 9.637
21.2597 9.619
21.2748 9.740
21.2900 9.613
21.3052 9.539
21.3204 9.380
21.3355 9.420
21.3507 9.541
21.3659 9.382
21.3811 9.698
21.3962 9.341
21.4114 9.470
21.4266 9.313
21.4418 9.412
21.4569 9.552
21.4721 9.387
21.4873 9.501
21.5025 9.261
21.5176 9.205
21.5328 9.234
21.5480 9.200
21.5632 9.000
21.5783 8.994
21.5935 9.230
21.6087 9.158
21.6239 9.048
21.6390 8.965
21.6542 9.261
21.6694 9.381
21.6846 9.253
21.6997 9.310
21.7149 9.133
21.7301 9.158
21.7453 8.909
21.7604 8.753
21.7756 8.954
21.7908 8.975
21.8060 9.021
21.8211 9.111
21.8363 8.961
21.8515 9.117
21.8667 9.029
21.8818 9.018
21.8970 8.863
21.9122 8.651
21.9274 8.850
21.9425 8.910
21.9577 8.928
21.9729 9.066
21.9881 9.191
22.0032 8.952
22.0184 8.590
22.0336 8.559
22.0488 8.644
22.0639 8.677
22.0791 8.701
22.0943 8.688
22.1095 8.524
22.1246 8.391
22.1398 8.494
22.1550 8.420
22.1702 8.408
22.1853 8.584
22.2005 8.726
22.2157 8.407
22.2309 8.377
22.2460 8.359
22.2612 8.622
22.2764 8.601
22.2916 8.770
22.3067 8.599
22.3219 8.515
22.3371 8.629
22.3523 8.697
22.3674 8.520
22.3826 8.447
22.3978 8.309
22.4130 8.124
22.4281 8.396
22.4433 8.412
22.4585 8.481
22.4737 8.763
22.4888 8.624
22.5040 8.554
22.5192 8.521
22.5344 8.491
22.5495 8.520
22.5647 8.341
22.5799 8.154
22.5951 8.202
22.6102 8.592
22.6254 8.545
22.6406 8.456
22.6558 8.269
22.6709 8.228
22.6861 8.137
22.7013 8.218
22.7165 7.984
22.7316 6.251
