'Id: "" Comment: "" Operator: "Lab Manager" Anode: "Mo" Scantype: "Still (Eiger2R_500K (1D mode))" TimePerStep: "300" X: "11.8" Y: "9.4" Z: "11.284" 
7.2532 18.602
7.2684 18.886
7.2836 18.531
7.2987 19.506
7.3139 19.139
7.3291 18.927
7.3443 19.034
7.3594 19.212
7.3746 19.199
7.3898 19.292
7.4050 19.666
7.4201 19.500
7.4353 19.016
7.4505 19.267
7.4657 19.267
7.4808 19.495
7.4960 19.798
7.5112 20.033
7.5264 19.896
7.5415 19.787
7.5567 19.848
7.5719 19.931
7.5871 20.182
7.6022 20.423
7.6174 20.231
7.6326 20.253
7.6478 20.234
7.6629 20.122
7.6781 20.186
7.6933 20.363
7.7085 20.208
7.7236 20.492
7.7388 20.317
7.7540 20.312
7.7692 20.968
7.7843 20.677
7.7995 20.471
7.8147 20.600
7.8299 20.853
7.8450 21.030
7.8602 20.950
7.8754 20.845
7.8905 20.721
7.9057 20.895
7.9209 20.969
7.9361 21.007
7.9512 20.933
7.9664 20.741
7.9816 20.812
7.9968 20.917
8.0119 21.009
8.0271 21.155
8.0423 20.736
8.0575 20.780
8.0726 20.968
8.0878 21.215
8.1030 21.350
8.1182 20.963
8.1333 21.240
8.1485 21.120
8.1637 21.415
8.1789 21.225
8.1940 21.153
8.2092 21.186
8.2244 21.592
8.2396 21.884
8.2547 21.647
8.2699 21.813
8.2851 20.870
8.3003 21.675
8.3154 21.733
8.3306 22.210
8.3458 21.829
8.3610 21.873
8.3761 21.560
8.3913 21.948
8.4065 22.105
8.4217 21.466
8.4368 21.966
8.4520 22.511
8.4672 22.032
8.4824 22.270
8.4975 21.812
8.5127 22.004
8.5279 21.981
8.5431 21.915
8.5582 22.191
8.5734 21.494
8.5886 21.677
8.6038 22.312
8.6189 22.313
8.6341 22.163
8.6493 22.417
8.6645 22.272
8.6796 22.222
8.6948 21.789
8.7100 22.377
8.7252 22.145
8.7403 22.342
8.7555 22.189
8.7707 22.150
8.7859 22.268
8.8010 22.739
8.8162 23.132
8.8314 22.442
8.8466 22.405
8.8617 22.691
8.8769 22.600
8.8921 22.545
8.9073 22.488
8.9224 22.984
8.9376 22.668
8.9528 22.573
8.9680 22.945
8.9831 22.667
8.9983 22.519
9.0135 22.706
9.0287 22.838
9.0438 22.713
9.0590 22.641
9.0742 22.914
9.0894 23.177
9.1045 22.891
9.1197 22.919
9.1349 22.864
9.1501 22.718
9.1652 22.901
9.1804 23.044
9.1956 22.643
9.2108 22.887
9.2259 23.061
9.2411 23.117
9.2563 22.512
9.2715 22.802
9.2866 22.995
9.3018 22.971
9.3170 22.931
9.3322 23.010
9.3473 23.005
9.3625 22.755
9.3777 23.178
9.3929 23.185
9.4080 22.844
9.4232 22.997
9.4384 22.749
9.4536 22.939
9.4687 23.376
9.4839 23.177
9.4991 23.130
9.5143 22.851
9.5294 23.123
9.5446 23.274
9.5598 23.217
9.5750 23.616
9.5901 23.515
9.6053 23.183
9.6205 23.157
9.6357 23.393
9.6508 23.609
9.6660 23.479
9.6812 23.754
9.6964 23.822
9.7115 23.952
9.7267 24.089
9.7419 23.981
9.7571 23.710
9.7722 23.667
9.7874 23.688
9.8026 23.705
9.8178 23.560
9.8329 23.174
9.8481 23.117
9.8633 23.263
9.8785 22.993
9.8936 22.799
9.9088 23.048
9.9240 23.337
9.9392 23.121
9.9543 22.996
9.9695 23.226
9.9847 23.210
9.9999 23.146
10.0150 23.187
10.0302 23.317
10.0454 23.561
10.0606 23.692
10.0757 23.676
10.0909 23.336
10.1061 23.061
10.1213 23.180
10.1364 23.530
10.1516 23.347
10.1668 22.783
10.1820 23.098
10.1971 23.437
10.2123 23.176
10.2275 23.288
10.2427 23.420
10.2578 23.098
10.2730 22.973
10.2882 23.152
10.3034 23.320
10.3185 22.977
10.3337 22.707
10.3489 22.762
10.3641 22.981
10.3792 22.910
10.3944 22.616
10.4096 22.583
10.4248 22.792
10.4399 22.510
10.4551 22.475
10.4703 22.741
10.4855 23.091
10.5006 22.858
10.5158 22.823
10.5310 22.566
10.5462 22.566
10.5613 22.369
10.5765 22.406
10.5917 22.586
10.6069 22.584
10.6220 22.415
10.6372 22.670
10.6524 22.909
10.6676 22.588
10.6827 22.429
10.6979 22.343
10.7131 22.575
10.7283 22.746
10.7434 22.423
10.7586 22.586
10.7738 22.038
10.7890 22.140
10.8041 22.298
10.8193 22.376
10.8345 22.202
10.8497 21.970
10.8648 22.281
10.8800 22.211
10.8952 22.084
10.9104 22.163
10.9255 22.281
10.9407 22.391
10.9559 22.285
10.9711 21.755
10.9862 22.194
11.0014 22.289
11.0166 22.027
11.0318 22.371
11.0469 22.023
11.0621 21.668
11.0773 22.015
11.0925 22.120
11.1076 21.899
11.1228 21.576
11.1380 21.626
11.1532 21.867
11.1683 21.656
11.1835 21.682
11.1987 22.039
11.2139 21.974
11.2290 21.617
11.2442 21.705
11.2594 21.755
11.2746 21.288
11.2897 21.433
11.3049 21.627
11.3201 21.547
11.3353 21.519
11.3504 21.825
11.3656 21.722
11.3808 21.396
11.3960 21.450
11.4111 21.220
11.4263 21.351
11.4415 21.190
11.4567 20.992
11.4718 21.046
11.4870 21.273
11.5022 21.199
11.5174 20.935
11.5325 20.747
11.5477 20.828
11.5629 20.952
11.5781 21.044
11.5932 21.167
11.6084 20.944
11.6236 20.834
11.6388 20.764
11.6539 20.711
11.6691 20.670
11.6843 20.525
11.6995 20.315
11.7146 20.566
11.7298 20.766
11.7450 20.546
11.7602 20.263
11.7753 20.276
11.7905 20.489
11.8057 20.170
11.8209 19.873
11.8360 19.924
11.8512 19.788
11.8664 20.006
11.8816 20.012
11.8967 19.875
11.9119 19.837
11.9271 19.829
11.9423 19.291
11.9574 19.433
11.9726 19.496
11.9878 19.198
12.0030 19.363
12.0181 19.141
12.0333 19.130
12.0485 19.021
12.0637 19.136
12.0788 18.865
12.0940 18.581
12.1092 18.696
12.1244 18.702
12.1395 18.696
12.1547 18.459
12.1699 18.286
12.1851 18.147
12.2002 18.566
12.2154 18.256
12.2306 17.862
12.2458 17.871
12.2609 18.021
12.2761 18.099
12.2913 17.616
12.3065 17.660
12.3216 17.885
12.3368 17.517
12.3520 17.296
12.3672 17.447
12.3823 17.357
12.3975 17.496
12.4127 17.253
12.4279 16.683
12.4430 16.640
12.4582 16.727
12.4734 16.678
12.4886 16.680
12.5037 16.618
12.5189 16.592
12.5341 16.584
12.5493 16.666
12.5644 16.432
12.5796 16.302
12.5948 15.878
12.6100 15.954
12.6251 16.248
12.6403 16.159
12.6555 15.591
12.6707 15.432
12.6858 15.854
12.7010 16.143
12.7162 16.046
12.7314 15.727
12.7465 15.614
12.7617 15.375
12.7769 15.223
12.7921 14.965
12.8072 15.082
12.8224 15.414
12.8376 15.109
12.8528 14.998
12.8679 14.896
12.8831 14.730
12.8983 14.619
12.9135 14.774
12.9286 14.722
12.9438 14.569
12.9590 14.660
12.9742 14.766
12.9893 14.577
13.0045 14.269
13.0197 14.240
13.0349 14.278
13.0500 14.042
13.0652 13.789
13.0804 13.710
13.0956 13.924
13.1107 13.950
13.1259 13.714
13.1411 13.630
13.1563 13.712
13.1714 13.651
13.1866 13.419
13.2018 13.340
13.2170 13.308
13.2321 13.286
13.2473 13.385
13.2625 13.289
13.2777 13.051
13.2928 13.122
13.3080 13.158
13.3232 13.281
13.3384 13.316
13.3535 13.136
13.3687 12.944
13.3839 12.852
13.3991 13.015
13.4142 13.172
13.4294 12.792
13.4446 12.461
13.4598 12.515
13.4749 12.398
13.4901 12.346
13.5053 12.445
13.5205 12.402
13.5356 12.500
13.5508 12.445
13.5660 12.581
13.5812 12.516
13.5963 12.230
13.6115 12.178
13.6267 12.197
13.6419 12.054
13.6570 12.307
13.6722 12.295
13.6874 12.224
13.7026 12.294
13.7177 12.065
13.7329 12.081
13.7481 12.033
13.7633 12.104
13.7784 12.041
13.7936 12.047
13.8088 12.312
13.8239 12.229
13.8391 12.177
13.8543 12.659
13.8695 12.524
13.8846 12.305
13.8998 12.160
13.9150 12.096
13.9302 11.859
13.9453 11.823
13.9605 11.821
13.9757 11.756
13.9909 11.849
14.0060 11.700
14.0212 11.642
14.0364 11.728
14.0516 11.702
14.0667 11.417
14.0819 11.487
14.0971 11.595
14.1123 11.513
14.1274 11.614
14.1426 11.681
14.1578 11.612
14.1730 11.484
14.1881 11.387
14.2033 11.364
14.2185 11.403
14.2337 11.661
14.2488 11.626
14.2640 11.523
14.2792 11.756
14.2944 12.008
14.3095 12.043
14.3247 12.109
14.3399 12.416
14.3551 12.575
14.3702 12.773
14.3854 12.841
14.4006 13.071
14.4158 13.872
14.4309 13.629
14.4461 13.451
14.4613 12.836
14.4765 12.718
14.4916 12.731
14.5068 12.306
14.5220 11.862
14.5372 11.979
14.5523 11.635
14.5675 11.706
14.5827 11.297
14.5979 11.097
14.6130 11.120
14.6282 10.847
14.6434 11.265
14.6586 10.670
14.6737 10.769
14.6889 10.867
14.7041 10.613
14.7193 10.516
14.7344 10.957
14.7496 10.577
14.7648 10.649
14.7800 10.592
14.7951 10.770
14.8103 10.705
14.8255 10.700
14.8407 10.887
14.8558 10.726
14.8710 10.739
14.8862 10.492
14.9014 10.833
14.9165 10.646
14.9317 10.710
14.9469 10.612
14.9621 10.595
14.9772 10.516
14.9924 10.457
15.0076 10.390
15.0228 10.383
15.0379 10.348
15.0531 10.011
15.0683 10.401
15.0835 10.259
15.0986 10.442
15.1138 10.432
15.1290 10.263
15.1442 10.273
15.1593 10.407
15.1745 10.321
15.1897 10.258
15.2049 10.041
15.2200 10.370
15.2352 10.551
15.2504 10.165
15.2656 10.082
15.2807 9.926
15.2959 10.072
15.3111 10.355
15.3263 10.091
15.3414 10.009
15.3566 10.150
15.3718 10.219
15.3870 10.156
15.4021 10.162
15.4173 10.340
15.4325 10.767
15.4477 10.319
15.4628 10.202
15.4780 10.324
15.4932 10.260
15.5084 10.102
15.5235 10.250
15.5387 10.248
15.5539 10.280
15.5691 9.826
15.5842 9.658
15.5994 9.789
15.6146 9.865
15.6298 9.879
15.6449 9.876
15.6601 9.793
15.6753 9.707
15.6905 9.732
15.7056 9.591
15.7208 9.515
15.7360 9.508
15.7512 9.730
15.7663 9.884
15.7815 9.789
15.7967 9.956
15.8119 9.879
15.8270 9.627
15.8422 9.847
15.8574 9.772
15.8726 9.618
15.8877 9.818
15.9029 9.435
15.9181 9.454
15.9333 9.857
15.9484 9.760
15.9636 9.687
15.9788 9.632
15.9940 9.585
16.0091 9.678
16.0243 9.942
16.0395 9.797
16.0547 9.695
16.0698 9.422
16.0850 9.440
16.1002 9.497
16.1154 9.644
16.1305 9.615
16.1457 9.650
16.1609 9.636
16.1761 9.724
16.1912 9.781
16.2064 9.691
16.2216 9.938
16.2368 10.086
16.2519 9.914
16.2671 9.730
16.2823 9.532
16.2975 9.719
16.3126 9.848
16.3278 10.078
16.3430 9.926
16.3582 9.896
16.3733 10.056
16.3885 10.183
16.4037 9.801
16.4189 9.754
16.4340 9.771
16.4492 9.492
16.4644 9.521
16.4796 9.693
16.4947 9.833
16.5099 9.924
16.5251 9.964
16.5403 9.560
16.5554 9.602
16.5706 9.716
16.5858 9.527
16.6010 9.547
16.6161 9.623
16.6313 9.734
16.6465 9.818
16.6617 9.655
16.6768 9.844
16.6920 9.895
16.7072 9.860
16.7224 9.960
16.7375 10.060
16.7527 9.976
16.7679 9.929
16.7831 9.856
16.7982 9.739
16.8134 9.982
16.8286 9.812
16.8438 9.521
16.8589 9.575
16.8741 9.712
16.8893 9.798
16.9045 9.596
16.9196 9.632
16.9348 9.726
16.9500 9.605
16.9652 9.762
16.9803 9.621
16.9955 9.667
17.0107 9.912
17.0259 10.100
17.0410 10.048
17.0562 10.067
17.0714 10.071
17.0866 10.186
17.1017 10.657
17.1169 10.993
17.1321 11.219
17.1473 11.423
17.1624 11.754
17.1776 12.322
17.1928 13.107
17.2080 13.840
17.2231 14.974
17.2383 16.304
17.2535 17.479
17.2687 18.522
17.2838 18.717
17.2990 17.757
17.3142 16.895
17.3294 16.496
17.3445 16.003
17.3597 15.760
17.3749 15.547
17.3901 14.954
17.4052 14.228
17.4204 13.238
17.4356 12.377
17.4508 11.766
17.4659 11.309
17.4811 11.298
17.4963 11.231
17.5115 11.150
17.5266 11.042
17.5418 10.774
17.5570 10.708
17.5722 10.755
17.5873 10.722
17.6025 10.907
17.6177 10.966
17.6329 11.090
17.6480 11.293
17.6632 11.367
17.6784 11.756
17.6936 12.017
17.7087 12.113
17.7239 11.954
17.7391 11.471
17.7543 11.237
17.7694 11.235
17.7846 11.472
17.7998 11.623
17.8150 11.306
17.8301 11.034
17.8453 10.810
17.8605 10.636
17.8757 10.705
17.8908 10.563
17.9060 10.399
17.9212 10.448
17.9364 10.231
17.9515 9.916
17.9667 9.994
17.9819 10.289
17.9971 10.433
18.0122 10.403
18.0274 10.337
18.0426 10.479
18.0578 10.295
18.0729 10.124
18.0881 10.170
18.1033 10.093
18.1185 10.131
18.1336 10.184
18.1488 10.060
18.1640 9.919
18.1792 9.930
18.1943 10.017
18.2095 10.047
18.2247 10.010
18.2399 9.845
18.2550 9.909
18.2702 9.746
18.2854 9.766
18.3006 9.958
18.3157 10.009
18.3309 9.853
18.3461 9.869
18.3613 9.847
18.3764 9.648
18.3916 9.916
18.4068 10.034
18.4220 9.695
18.4371 9.832
18.4523 9.838
18.4675 9.701
18.4827 9.822
18.4978 9.699
18.5130 9.795
18.5282 9.876
18.5434 9.916
18.5585 9.857
18.5737 9.771
18.5889 9.811
18.6041 9.980
18.6192 9.813
18.6344 9.699
18.6496 9.665
18.6648 9.698
18.6799 9.820
18.6951 9.821
18.7103 9.691
18.7255 9.661
18.7406 9.610
18.7558 9.763
18.7710 9.683
18.7862 9.576
18.8013 9.776
18.8165 9.944
18.8317 9.953
18.8469 9.797
18.8620 9.771
18.8772 10.165
18.8924 10.084
18.9076 9.937
18.9227 9.825
18.9379 9.973
18.9531 9.979
18.9683 9.935
18.9834 10.056
18.9986 10.242
19.0138 10.197
19.0290 10.190
19.0441 10.136
19.0593 10.056
19.0745 10.321
19.0897 10.414
19.1048 10.302
19.1200 10.252
19.1352 10.194
19.1504 10.170
19.1655 10.282
19.1807 10.239
19.1959 10.303
19.2111 10.457
19.2262 10.629
19.2414 11.007
19.2566 11.028
19.2718 10.875
19.2869 10.906
19.3021 11.096
19.3173 11.028
19.3325 11.025
19.3476 11.016
19.3628 10.978
19.3780 11.255
19.3932 11.171
19.4083 11.191
19.4235 11.267
19.4387 11.306
19.4539 11.398
19.4690 11.253
19.4842 11.390
19.4994 11.573
19.5146 11.494
19.5297 11.452
19.5449 11.419
19.5601 11.432
19.5753 11.428
19.5904 11.465
19.6056 11.685
19.6208 11.683
19.6360 11.766
19.6511 11.838
19.6663 11.661
19.6815 11.788
19.6967 11.874
19.7118 11.982
19.7270 11.946
19.7422 11.729
19.7574 11.755
19.7725 11.823
19.7877 11.930
19.8029 11.812
19.8180 11.905
19.8332 12.012
19.8484 12.037
19.8636 12.248
19.8787 12.407
19.8939 13.041
19.9091 13.347
19.9243 13.221
19.9394 13.489
19.9546 13.982
19.9698 14.148
19.9850 14.250
20.0001 14.288
20.0153 14.031
20.0305 13.901
20.0457 13.807
20.0608 13.504
20.0760 13.452
20.0912 13.529
20.1064 13.433
20.1215 13.381
20.1367 12.923
20.1519 12.828
20.1671 12.943
20.1822 12.862
20.1974 12.799
20.2126 12.682
20.2278 12.547
20.2429 12.415
20.2581 12.285
20.2733 11.820
20.2885 11.802
20.3036 11.874
20.3188 11.987
20.3340 11.861
20.3492 11.970
20.3643 11.906
20.3795 11.656
20.3947 11.553
20.4099 11.637
20.4250 11.643
20.4402 12.225
20.4554 12.135
20.4706 12.176
20.4857 12.156
20.5009 11.974
20.5161 11.779
20.5313 11.884
20.5464 11.481
20.5616 11.678
20.5768 11.898
20.5920 11.948
20.6071 11.466
20.6223 11.301
20.6375 11.205
20.6527 11.045
20.6678 10.951
20.6830 10.609
20.6982 10.533
20.7134 10.670
20.7285 10.609
20.7437 10.626
20.7589 10.446
20.7741 10.338
20.7892 10.415
20.8044 10.388
20.8196 10.400
20.8348 10.357
20.8499 10.252
20.8651 10.140
20.8803 10.540
20.8955 10.628
20.9106 10.143
20.9258 9.966
20.9410 10.032
20.9562 10.238
20.9713 10.085
20.9865 9.911
21.0017 9.946
21.0169 9.954
21.0320 9.754
21.0472 10.111
21.0624 9.823
21.0776 10.055
21.0927 9.719
21.1079 10.148
21.1231 9.869
21.1383 10.148
21.1534 9.941
21.1686 9.634
21.1838 9.808
21.1990 9.563
21.2141 9.764
21.2293 9.594
21.2445 9.612
21.2597 9.759
21.2748 9.579
21.2900 9.879
21.3052 9.474
21.3204 9.482
21.3355 9.640
21.3507 9.587
21.3659 9.376
21.3811 9.608
21.3962 9.556
21.4114 9.288
21.4266 9.445
21.4418 9.525
21.4569 9.472
21.4721 9.661
21.4873 9.658
21.5025 9.351
21.5176 9.353
21.5328 9.260
21.5480 9.477
21.5632 9.323
21.5783 9.475
21.5935 9.296
21.6087 9.104
21.6239 9.134
21.6390 9.151
21.6542 9.083
21.6694 8.843
21.6846 9.182
21.6997 9.213
21.7149 9.062
21.7301 9.178
21.7453 9.023
21.7604 9.036
21.7756 9.017
21.7908 8.926
21.8060 9.293
21.8211 9.168
21.8363 9.039
21.8515 8.969
21.8667 9.086
21.8818 9.082
21.8970 9.030
21.9122 8.927
21.9274 9.050
21.9425 8.933
21.9577 8.915
21.9729 8.807
21.9881 8.713
22.0032 8.838
22.0184 8.926
22.0336 9.094
22.0488 8.949
22.0639 8.786
22.0791 8.775
22.0943 8.528
22.1095 8.463
22.1246 8.448
22.1398 8.714
22.1550 8.726
22.1702 8.622
22.1853 8.606
22.2005 8.554
22.2157 8.519
22.2309 8.472
22.2460 8.686
22.2612 8.528
22.2764 8.395
22.2916 8.373
22.3067 8.574
22.3219 8.729
22.3371 8.507
22.3523 8.429
22.3674 8.614
22.3826 8.482
22.3978 8.607
22.4130 8.248
22.4281 8.263
22.4433 8.373
22.4585 8.537
22.4737 8.373
22.4888 8.608
22.5040 8.538
22.5192 8.319
22.5344 8.216
22.5495 8.291
22.5647 8.501
22.5799 8.431
22.5951 8.100
22.6102 8.271
22.6254 8.662
22.6406 8.249
22.6558 8.410
22.6709 8.334
22.6861 8.553
22.7013 8.178
22.7165 8.137
22.7316 6.353
