'Id: "" Comment: "" Operator: "Lab Manager" Anode: "Mo" Scantype: "Still (Eiger2R_500K (1D mode))" TimePerStep: "300" X: "11.8" Y: "9.4" Z: "11.284" 
7.2532 18.765
7.2684 18.975
7.2836 18.428
7.2987 18.946
7.3139 18.893
7.3291 19.309
7.3443 19.406
7.3594 18.964
7.3746 19.450
7.3898 19.530
7.4050 19.440
7.4201 19.707
7.4353 19.487
7.4505 19.533
7.4657 19.648
7.4808 19.767
7.4960 19.606
7.5112 19.484
7.5264 19.551
7.5415 19.693
7.5567 20.100
7.5719 20.294
7.5871 20.323
7.6022 20.336
7.6174 20.075
7.6326 20.164
7.6478 20.409
7.6629 20.205
7.6781 20.052
7.6933 20.307
7.7085 20.527
7.7236 20.466
7.7388 20.588
7.7540 20.680
7.7692 20.637
7.7843 20.715
7.7995 20.794
7.8147 20.444
7.8299 20.625
7.8450 20.890
7.8602 21.066
7.8754 20.811
7.8905 20.600
7.9057 20.870
7.9209 20.684
7.9361 20.930
7.9512 21.420
7.9664 21.493
7.9816 21.293
7.9968 20.984
8.0119 20.980
8.0271 21.031
8.0423 20.893
8.0575 21.312
8.0726 21.595
8.0878 20.964
8.1030 21.360
8.1182 21.767
8.1333 21.951
8.1485 21.641
8.1637 21.430
8.1789 21.455
8.1940 21.610
8.2092 21.518
8.2244 21.359
8.2396 21.465
8.2547 21.877
8.2699 21.692
8.2851 21.713
8.3003 21.873
8.3154 21.881
8.3306 21.727
8.3458 22.030
8.3610 21.882
8.3761 22.279
8.3913 22.173
8.4065 22.164
8.4217 22.100
8.4368 21.845
8.4520 22.030
8.4672 22.219
8.4824 22.174
8.4975 21.797
8.5127 22.090
8.5279 22.447
8.5431 21.935
8.5582 22.358
8.5734 21.970
8.5886 22.354
8.6038 22.286
8.6189 22.425
8.6341 22.297
8.6493 22.408
8.6645 22.362
8.6796 22.751
8.6948 22.861
8.7100 22.631
8.7252 22.929
8.7403 22.790
8.7555 22.698
8.7707 23.129
8.7859 22.854
8.8010 22.793
8.8162 22.591
8.8314 22.821
8.8466 22.703
8.8617 22.514
8.8769 22.741
8.8921 22.769
8.9073 22.775
8.9224 23.042
8.9376 22.825
8.9528 22.843
8.9680 22.607
8.9831 22.896
8.9983 22.718
9.0135 22.706
9.0287 22.751
9.0438 22.850
9.0590 22.908
9.0742 23.218
9.0894 23.081
9.1045 22.974
9.1197 23.119
9.1349 23.006
9.1501 22.626
9.1652 22.969
9.1804 22.806
9.1956 23.122
9.2108 22.812
9.2259 23.085
9.2411 23.188
9.2563 23.317
9.2715 23.408
9.2866 23.258
9.3018 23.373
9.3170 23.028
9.3322 23.023
9.3473 23.190
9.3625 23.197
9.3777 23.207
9.3929 23.497
9.4080 23.495
9.4232 23.136
9.4384 22.978
9.4536 22.820
9.4687 23.238
9.4839 23.605
9.4991 23.437
9.5143 23.144
9.5294 23.260
9.5446 23.325
9.5598 23.259
9.5750 23.476
9.5901 23.716
9.6053 23.293
9.6205 23.452
9.6357 23.686
9.6508 23.606
9.6660 23.812
9.6812 24.021
9.6964 24.268
9.7115 24.569
9.7267 24.022
9.7419 23.781
9.7571 24.107
9.7722 24.231
9.7874 24.083
9.8026 23.923
9.8178 23.852
9.8329 23.629
9.8481 23.725
9.8633 23.589
9.8785 23.424
9.8936 23.442
9.9088 23.448
9.9240 23.377
9.9392 23.562
9.9543 23.847
9.9695 24.108
9.9847 24.081
9.9999 23.733
10.0150 23.842
10.0302 23.677
10.0454 23.682
10.0606 23.974
10.0757 23.727
10.0909 23.656
10.1061 23.767
10.1213 23.889
10.1364 24.096
10.1516 24.088
10.1668 24.033
10.1820 23.952
10.1971 24.157
10.2123 24.481
10.2275 24.294
10.2427 24.169
10.2578 23.990
10.2730 23.790
10.2882 23.638
10.3034 23.369
10.3185 23.681
10.3337 23.532
10.3489 23.002
10.3641 23.040
10.3792 23.016
10.3944 22.888
10.4096 23.162
10.4248 22.680
10.4399 22.473
10.4551 22.858
10.4703 23.027
10.4855 22.781
10.5006 22.866
10.5158 23.513
10.5310 23.197
10.5462 22.639
10.5613 22.668
10.5765 22.563
10.5917 22.248
10.6069 22.350
10.6220 22.439
10.6372 22.715
10.6524 22.487
10.6676 22.576
10.6827 22.651
10.6979 22.490
10.7131 22.294
10.7283 22.707
10.7434 22.516
10.7586 22.394
10.7738 22.740
10.7890 22.458
10.8041 22.291
10.8193 22.684
10.8345 22.567
10.8497 22.273
10.8648 22.448
10.8800 22.322
10.8952 22.326
10.9104 22.492
10.9255 22.382
10.9407 22.435
10.9559 22.326
10.9711 22.096
10.9862 22.129
11.0014 22.232
11.0166 22.249
11.0318 22.108
11.0469 22.106
11.0621 21.951
11.0773 22.245
11.0925 22.319
11.1076 22.140
11.1228 21.823
11.1380 21.679
11.1532 22.061
11.1683 21.811
11.1835 21.936
11.1987 21.999
11.2139 22.014
11.2290 22.073
11.2442 22.187
11.2594 22.150
11.2746 21.961
11.2897 21.474
11.3049 21.661
11.3201 21.584
11.3353 21.833
11.3504 21.539
11.3656 21.484
11.3808 21.410
11.3960 21.491
11.4111 21.362
11.4263 21.203
11.4415 21.554
11.4567 21.312
11.4718 21.561
11.4870 21.502
11.5022 21.191
11.5174 21.337
11.5325 21.165
11.5477 20.826
11.5629 20.778
11.5781 20.838
11.5932 20.588
11.6084 20.473
11.6236 20.610
11.6388 20.564
11.6539 20.797
11.6691 20.893
11.6843 20.534
11.6995 20.395
11.7146 20.577
11.7298 20.613
11.7450 20.706
11.7602 20.316
11.7753 20.145
11.7905 20.466
11.8057 20.306
11.8209 20.011
11.8360 19.827
11.8512 20.146
11.8664 20.041
11.8816 19.695
11.8967 19.228
11.9119 19.401
11.9271 19.627
11.9423 19.299
11.9574 19.493
11.9726 19.357
11.9878 19.135
12.0030 19.325
12.0181 19.277
12.0333 18.853
12.0485 19.160
12.0637 19.274
12.0788 18.963
12.0940 18.958
12.1092 18.794
12.1244 18.604
12.1395 18.583
12.1547 18.321
12.1699 18.181
12.1851 18.584
12.2002 18.472
12.2154 18.069
12.2306 17.877
12.2458 18.104
12.2609 17.919
12.2761 18.027
12.2913 17.628
12.3065 17.702
12.3216 18.096
12.3368 17.622
12.3520 17.205
12.3672 17.504
12.3823 17.266
12.3975 17.365
12.4127 17.553
12.4279 17.493
12.4430 17.515
12.4582 17.403
12.4734 16.824
12.4886 16.858
12.5037 17.154
12.5189 16.767
12.5341 16.631
12.5493 16.633
12.5644 16.570
12.5796 16.602
12.5948 16.485
12.6100 16.380
12.6251 16.096
12.6403 15.945
12.6555 15.747
12.6707 15.675
12.6858 15.825
12.7010 15.819
12.7162 15.589
12.7314 15.578
12.7465 15.340
12.7617 15.144
12.7769 15.104
12.7921 15.229
12.8072 15.305
12.8224 15.276
12.8376 15.204
12.8528 14.849
12.8679 14.848
12.8831 14.969
12.8983 14.728
12.9135 14.219
12.9286 14.401
12.9438 14.750
12.9590 14.633
12.9742 14.699
12.9893 14.660
13.0045 14.481
13.0197 14.412
13.0349 14.470
13.0500 14.373
13.0652 14.154
13.0804 14.151
13.0956 14.010
13.1107 13.583
13.1259 13.403
13.1411 13.682
13.1563 13.840
13.1714 13.764
13.1866 13.638
13.2018 13.538
13.2170 13.417
13.2321 13.252
13.2473 13.259
13.2625 13.433
13.2777 13.448
13.2928 13.059
13.3080 12.852
13.3232 13.012
13.3384 13.085
13.3535 13.047
13.3687 13.082
13.3839 13.005
13.3991 12.796
13.4142 12.683
13.4294 12.717
13.4446 12.869
13.4598 12.836
13.4749 12.615
13.4901 12.561
13.5053 12.490
13.5205 12.581
13.5356 12.432
13.5508 12.400
13.5660 12.446
13.5812 12.261
13.5963 12.336
13.6115 12.519
13.6267 12.241
13.6419 12.025
13.6570 11.964
13.6722 12.179
13.6874 12.186
13.7026 11.722
13.7177 11.764
13.7329 11.987
13.7481 11.971
13.7633 12.057
13.7784 11.961
13.7936 12.122
13.8088 12.255
13.8239 12.247
13.8391 12.226
13.8543 12.095
13.8695 12.139
13.8846 11.880
13.8998 11.907
13.9150 12.117
13.9302 12.086
13.9453 11.985
13.9605 11.872
13.9757 11.504
13.9909 11.559
14.0060 11.422
14.0212 11.564
14.0364 11.614
14.0516 11.420
14.0667 11.595
14.0819 11.285
14.0971 11.423
14.1123 11.559
14.1274 11.339
14.1426 11.461
14.1578 11.629
14.1730 11.311
14.1881 11.642
14.2033 11.728
14.2185 11.473
14.2337 11.821
14.2488 12.227
14.2640 12.265
14.2792 12.338
14.2944 12.248
14.3095 12.081
14.3247 12.189
14.3399 12.605
14.3551 12.636
14.3702 13.111
14.3854 13.338
14.4006 13.167
14.4158 13.180
14.4309 12.983
14.4461 13.054
14.4613 13.200
14.4765 13.078
14.4916 12.766
14.5068 12.555
14.5220 12.500
14.5372 12.275
14.5523 12.020
14.5675 11.900
14.5827 11.855
14.5979 11.945
14.6130 11.775
14.6282 11.622
14.6434 11.242
14.6586 11.113
14.6737 11.232
14.6889 11.309
14.7041 11.404
14.7193 11.186
14.7344 11.154
14.7496 11.238
14.7648 11.125
14.7800 10.759
14.7951 10.445
14.8103 10.704
14.8255 10.500
14.8407 10.639
14.8558 10.572
14.8710 10.787
14.8862 10.411
14.9014 10.229
14.9165 10.742
14.9317 10.970
14.9469 10.681
14.9621 10.572
14.9772 10.471
14.9924 10.516
15.0076 10.588
15.0228 10.765
15.0379 10.570
15.0531 10.299
15.0683 10.267
15.0835 10.544
15.0986 10.370
15.1138 10.778
15.1290 10.491
15.1442 10.671
15.1593 10.592
15.1745 10.282
15.1897 10.452
15.2049 10.330
15.2200 10.423
15.2352 10.628
15.2504 10.200
15.2656 10.232
15.2807 10.162
15.2959 10.312
15.3111 10.377
15.3263 10.345
15.3414 10.319
15.3566 10.350
15.3718 10.291
15.3870 10.331
15.4021 10.236
15.4173 10.510
15.4325 10.523
15.4477 10.870
15.4628 10.280
15.4780 10.745
15.4932 10.546
15.5084 10.407
15.5235 10.126
15.5387 10.551
15.5539 10.352
15.5691 10.274
15.5842 10.466
15.5994 10.139
15.6146 10.010
15.6298 10.163
15.6449 10.014
15.6601 10.276
15.6753 10.124
15.6905 9.894
15.7056 9.859
15.7208 9.691
15.7360 9.882
15.7512 9.916
15.7663 9.700
15.7815 9.968
15.7967 10.074
15.8119 9.677
15.8270 10.117
15.8422 9.866
15.8574 9.789
15.8726 9.666
15.8877 9.785
15.9029 9.478
15.9181 9.776
15.9333 9.792
15.9484 10.008
15.9636 9.851
15.9788 10.026
15.9940 9.927
16.0091 9.801
16.0243 9.579
16.0395 9.867
16.0547 9.784
16.0698 9.835
16.0850 9.721
16.1002 9.728
16.1154 9.550
16.1305 9.657
16.1457 9.552
16.1609 9.916
16.1761 9.771
16.1912 9.810
16.2064 9.837
16.2216 9.655
16.2368 9.916
16.2519 9.752
16.2671 10.014
16.2823 10.054
16.2975 10.116
16.3126 10.031
16.3278 9.819
16.3430 10.008
16.3582 10.228
16.3733 10.170
16.3885 10.162
16.4037 10.218
16.4189 10.112
16.4340 9.894
16.4492 9.949
16.4644 9.693
16.4796 9.683
16.4947 9.669
16.5099 9.774
16.5251 9.824
16.5403 9.835
16.5554 9.913
16.5706 9.775
16.5858 9.603
16.6010 9.580
16.6161 9.784
16.6313 9.800
16.6465 9.794
16.6617 9.589
16.6768 9.739
16.6920 9.996
16.7072 9.909
16.7224 10.070
16.7375 10.062
16.7527 9.993
16.7679 9.811
16.7831 9.925
16.7982 9.905
16.8134 9.919
16.8286 9.813
16.8438 9.495
16.8589 9.354
16.8741 9.722
16.8893 9.887
16.9045 9.751
16.9196 9.766
16.9348 9.894
16.9500 10.023
16.9652 10.103
16.9803 9.999
16.9955 9.813
17.0107 9.962
17.0259 10.257
17.0410 10.339
17.0562 10.165
17.0714 10.218
17.0866 10.346
17.1017 10.504
17.1169 10.772
17.1321 10.960
17.1473 11.389
17.1624 11.768
17.1776 12.189
17.1928 13.012
17.2080 13.849
17.2231 14.867
17.2383 15.910
17.2535 17.181
17.2687 18.343
17.2838 18.760
17.2990 18.316
17.3142 17.213
17.3294 16.451
17.3445 16.319
17.3597 16.217
17.3749 15.894
17.3901 15.145
17.4052 14.136
17.4204 13.311
17.4356 12.452
17.4508 11.869
17.4659 11.575
17.4811 11.530
17.4963 11.595
17.5115 11.354
17.5266 11.310
17.5418 11.330
17.5570 11.284
17.5722 11.397
17.5873 11.654
17.6025 11.611
17.6177 11.342
17.6329 11.211
17.6480 11.035
17.6632 10.942
17.6784 10.844
17.6936 10.967
17.7087 11.146
17.7239 10.982
17.7391 10.646
17.7543 10.717
17.7694 10.797
17.7846 10.996
17.7998 11.258
17.8150 11.236
17.8301 11.264
17.8453 11.066
17.8605 10.778
17.8757 10.829
17.8908 11.013
17.9060 10.847
17.9212 10.661
17.9364 10.588
17.9515 10.572
17.9667 10.740
17.9819 10.569
17.9971 10.334
18.0122 10.493
18.0274 10.388
18.0426 10.394
18.0578 10.336
18.0729 10.003
18.0881 9.962
18.1033 9.840
18.1185 9.885
18.1336 10.124
18.1488 10.147
18.1640 10.089
18.1792 9.875
18.1943 9.712
18.2095 9.893
18.2247 9.905
18.2399 9.739
18.2550 9.711
18.2702 9.749
18.2854 9.913
18.3006 9.927
18.3157 9.702
18.3309 9.767
18.3461 9.734
18.3613 9.830
18.3764 9.931
18.3916 9.688
18.4068 9.768
18.4220 9.822
18.4371 9.774
18.4523 9.680
18.4675 9.992
18.4827 9.798
18.4978 9.708
18.5130 9.712
18.5282 9.713
18.5434 9.724
18.5585 9.659
18.5737 9.613
18.5889 9.702
18.6041 9.870
18.6192 9.771
18.6344 9.585
18.6496 9.770
18.6648 9.642
18.6799 9.771
18.6951 9.806
18.7103 9.773
18.7255 9.689
18.7406 9.540
18.7558 9.697
18.7710 9.876
18.7862 9.944
18.8013 9.831
18.8165 9.581
18.8317 9.741
18.8469 9.698
18.8620 9.902
18.8772 10.028
18.8924 9.978
18.9076 10.149
18.9227 10.191
18.9379 10.052
18.9531 9.893
18.9683 9.879
18.9834 10.020
18.9986 10.095
19.0138 9.901
19.0290 10.097
19.0441 10.296
19.0593 10.181
19.0745 10.240
19.0897 10.293
19.1048 10.248
19.1200 10.370
19.1352 10.378
19.1504 10.360
19.1655 10.483
19.1807 10.547
19.1959 10.632
19.2111 10.682
19.2262 10.680
19.2414 10.708
19.2566 10.752
19.2718 10.874
19.2869 10.919
19.3021 11.232
19.3173 11.236
19.3325 11.024
19.3476 11.034
19.3628 10.988
19.3780 11.030
19.3932 11.227
19.4083 11.330
19.4235 11.339
19.4387 11.463
19.4539 11.336
19.4690 11.129
19.4842 11.008
19.4994 11.148
19.5146 11.496
19.5297 11.475
19.5449 11.689
19.5601 11.797
19.5753 11.369
19.5904 11.339
19.6056 11.546
19.6208 11.712
19.6360 11.707
19.6511 11.726
19.6663 11.584
19.6815 11.481
19.6967 11.606
19.7118 11.720
19.7270 11.739
19.7422 11.709
19.7574 11.625
19.7725 11.524
19.7877 11.784
19.8029 12.036
19.8180 11.943
19.8332 11.923
19.8484 12.131
19.8636 12.246
19.8787 12.618
19.8939 12.992
19.9091 13.095
19.9243 13.353
19.9394 13.759
19.9546 14.129
19.9698 14.214
19.9850 14.600
20.0001 14.305
20.0153 13.827
20.0305 13.564
20.0457 13.454
20.0608 13.590
20.0760 13.452
20.0912 13.470
20.1064 13.742
20.1215 13.588
20.1367 13.429
20.1519 13.138
20.1671 12.850
20.1822 12.983
20.1974 13.208
20.2126 13.288
20.2278 13.073
20.2429 12.667
20.2581 12.053
20.2733 12.006
20.2885 12.177
20.3036 11.844
20.3188 11.852
20.3340 11.609
20.3492 11.600
20.3643 11.393
20.3795 11.303
20.3947 11.437
20.4099 11.102
20.4250 11.021
20.4402 11.149
20.4554 11.048
20.4706 10.890
20.4857 10.923
20.5009 11.042
20.5161 11.016
20.5313 10.954
20.5464 10.973
20.5616 10.968
20.5768 10.764
20.5920 10.982
20.6071 10.883
20.6223 11.006
20.6375 11.032
20.6527 10.820
20.6678 10.864
20.6830 11.014
20.6982 10.756
20.7134 10.635
20.7285 10.943
20.7437 10.908
20.7589 10.658
20.7741 10.388
20.7892 10.388
20.8044 10.551
20.8196 10.417
20.8348 10.349
20.8499 10.498
20.8651 10.306
20.8803 10.386
20.8955 10.163
20.9106 10.075
20.9258 10.111
20.9410 10.164
20.9562 9.860
20.9713 9.831
20.9865 10.009
21.0017 10.257
21.0169 9.841
21.0320 10.160
21.0472 9.922
21.0624 9.826
21.0776 9.782
21.0927 9.784
21.1079 9.718
21.1231 9.721
21.1383 9.861
21.1534 9.475
21.1686 9.725
21.1838 9.601
21.1990 10.001
21.2141 9.711
21.2293 9.772
21.2445 9.657
21.2597 9.532
21.2748 9.888
21.2900 9.592
21.3052 9.568
21.3204 9.583
21.3355 9.600
21.3507 9.478
21.3659 9.656
21.3811 9.514
21.3962 9.682
21.4114 9.447
21.4266 9.484
21.4418 9.645
21.4569 9.457
21.4721 9.183
21.4873 9.409
21.5025 9.065
21.5176 9.465
21.5328 9.243
21.5480 9.242
21.5632 9.378
21.5783 9.240
21.5935 9.316
21.6087 9.143
21.6239 9.264
21.6390 9.325
21.6542 9.024
21.6694 9.249
21.6846 9.152
21.6997 9.292
21.7149 9.267
21.7301 9.213
21.7453 9.104
21.7604 8.985
21.7756 9.010
21.7908 8.942
21.8060 8.887
21.8211 8.889
21.8363 9.220
21.8515 9.149
21.8667 9.053
21.8818 8.991
21.8970 9.078
21.9122 9.116
21.9274 8.770
21.9425 8.744
21.9577 8.908
21.9729 8.993
21.9881 8.974
22.0032 8.734
22.0184 8.720
22.0336 8.910
22.0488 8.905
22.0639 8.841
22.0791 8.884
22.0943 8.884
22.1095 8.580
22.1246 8.513
22.1398 8.733
22.1550 8.924
22.1702 8.750
22.1853 8.774
22.2005 8.717
22.2157 8.563
22.2309 8.481
22.2460 8.502
22.2612 8.688
22.2764 8.796
22.2916 8.682
22.3067 9.027
22.3219 8.610
22.3371 8.521
22.3523 8.363
22.3674 8.464
22.3826 8.487
22.3978 8.625
22.4130 8.465
22.4281 8.289
22.4433 8.518
22.4585 8.727
22.4737 8.641
22.4888 8.116
22.5040 8.258
22.5192 8.304
22.5344 8.404
22.5495 8.410
22.5647 8.348
22.5799 8.400
22.5951 8.660
22.6102 8.572
22.6254 8.398
22.6406 8.201
22.6558 8.620
22.6709 8.420
22.6861 8.467
22.7013 8.189
22.7165 7.831
22.7316 6.461
