'Id: "" Comment: "" Operator: "Lab Manager" Anode: "Mo" Scantype: "Still (Eiger2R_500K (1D mode))" TimePerStep: "300" X: "11.8" Y: "9.4" Z: "11.284" 
7.2532 19.083
7.2684 18.915
7.2836 18.849
7.2987 18.905
7.3139 19.080
7.3291 18.956
7.3443 19.242
7.3594 19.293
7.3746 19.185
7.3898 19.257
7.4050 19.324
7.4201 19.354
7.4353 19.685
7.4505 19.962
7.4657 19.825
7.4808 19.380
7.4960 19.834
7.5112 19.530
7.5264 19.274
7.5415 19.696
7.5567 19.932
7.5719 19.999
7.5871 20.076
7.6022 20.422
7.6174 20.062
7.6326 20.189
7.6478 20.497
7.6629 20.316
7.6781 20.351
7.6933 20.525
7.7085 20.603
7.7236 20.864
7.7388 20.809
7.7540 20.520
7.7692 20.391
7.7843 20.192
7.7995 20.776
7.8147 21.066
7.8299 20.759
7.8450 20.427
7.8602 20.462
7.8754 20.664
7.8905 20.941
7.9057 21.011
7.9209 21.136
7.9361 21.374
7.9512 21.401
7.9664 21.243
7.9816 21.106
7.9968 21.118
8.0119 21.299
8.0271 21.157
8.0423 21.186
8.0575 21.033
8.0726 21.228
8.0878 21.358
8.1030 21.210
8.1182 21.233
8.1333 21.410
8.1485 21.251
8.1637 21.402
8.1789 21.559
8.1940 21.485
8.2092 21.386
8.2244 21.324
8.2396 21.311
8.2547 21.466
8.2699 21.725
8.2851 21.978
8.3003 21.837
8.3154 21.669
8.3306 22.012
8.3458 22.055
8.3610 22.161
8.3761 21.651
8.3913 21.869
8.4065 22.090
8.4217 21.912
8.4368 22.377
8.4520 21.984
8.4672 22.099
8.4824 21.739
8.4975 22.498
8.5127 21.862
8.5279 22.294
8.5431 22.305
8.5582 22.480
8.5734 22.217
8.5886 22.081
8.6038 22.445
8.6189 22.697
8.6341 22.298
8.6493 22.444
8.6645 22.540
8.6796 22.827
8.6948 22.774
8.7100 22.931
8.7252 22.877
8.7403 22.930
8.7555 22.554
8.7707 22.978
8.7859 22.539
8.8010 23.070
8.8162 22.926
8.8314 22.701
8.8466 22.452
8.8617 22.870
8.8769 22.804
8.8921 22.566
8.9073 22.610
8.9224 22.508
8.9376 22.535
8.9528 22.864
8.9680 22.624
8.9831 22.425
8.9983 22.567
9.0135 23.284
9.0287 22.842
9.0438 22.787
9.0590 23.366
9.0742 23.013
9.0894 22.526
9.1045 23.093
9.1197 23.068
9.1349 22.874
9.1501 22.877
9.1652 23.041
9.1804 23.203
9.1956 23.104
9.2108 22.938
9.2259 22.828
9.2411 22.958
9.2563 22.763
9.2715 22.585
9.2866 22.850
9.3018 22.950
9.3170 22.970
9.3322 23.222
9.3473 23.362
9.3625 23.280
9.3777 23.617
9.3929 23.365
9.4080 23.395
9.4232 23.125
9.4384 22.989
9.4536 23.062
9.4687 23.089
9.4839 23.023
9.4991 22.800
9.5143 23.084
9.5294 23.235
9.5446 23.080
9.5598 23.051
9.5750 23.234
9.5901 23.640
9.6053 23.533
9.6205 23.187
9.6357 23.446
9.6508 23.500
9.6660 23.161
9.6812 23.244
9.6964 23.519
9.7115 23.759
9.7267 24.158
9.7419 24.609
9.7571 24.312
9.7722 24.087
9.7874 24.068
9.8026 23.691
9.8178 23.452
9.8329 23.579
9.8481 23.562
9.8633 23.567
9.8785 23.503
9.8936 23.276
9.9088 23.128
9.9240 23.132
9.9392 23.249
9.9543 23.724
9.9695 23.898
9.9847 23.789
9.9999 23.741
10.0150 23.735
10.0302 23.940
10.0454 23.676
10.0606 23.650
10.0757 23.902
10.0909 23.836
10.1061 23.904
10.1213 23.943
10.1364 24.148
10.1516 24.059
10.1668 24.042
10.1820 24.193
10.1971 24.326
10.2123 24.505
10.2275 24.379
10.2427 24.375
10.2578 24.314
10.2730 24.402
10.2882 24.059
10.3034 23.964
10.3185 23.592
10.3337 23.211
10.3489 23.014
10.3641 22.967
10.3792 23.368
10.3944 23.384
10.4096 23.078
10.4248 23.074
10.4399 22.877
10.4551 22.685
10.4703 22.754
10.4855 23.254
10.5006 23.345
10.5158 22.831
10.5310 22.990
10.5462 22.803
10.5613 22.784
10.5765 22.607
10.5917 22.615
10.6069 22.625
10.6220 22.670
10.6372 22.826
10.6524 22.867
10.6676 22.369
10.6827 22.554
10.6979 22.664
10.7131 22.715
10.7283 22.617
10.7434 22.638
10.7586 22.863
10.7738 22.442
10.7890 22.483
10.8041 22.324
10.8193 22.509
10.8345 22.156
10.8497 22.037
10.8648 22.263
10.8800 22.537
10.8952 22.570
10.9104 22.435
10.9255 21.893
10.9407 22.144
10.9559 22.283
10.9711 22.053
10.9862 22.548
11.0014 22.459
11.0166 22.209
11.0318 22.290
11.0469 21.754
11.0621 21.808
11.0773 21.980
11.0925 21.724
11.1076 22.050
11.1228 21.954
11.1380 21.887
11.1532 21.727
11.1683 21.747
11.1835 21.970
11.1987 22.224
11.2139 22.340
11.2290 22.487
11.2442 21.809
11.2594 21.625
11.2746 22.011
11.2897 22.053
11.3049 21.758
11.3201 21.673
11.3353 21.555
11.3504 21.259
11.3656 21.389
11.3808 21.200
11.3960 21.445
11.4111 21.414
11.4263 21.091
11.4415 20.829
11.4567 21.022
11.4718 20.943
11.4870 21.135
11.5022 20.648
11.5174 20.896
11.5325 21.220
11.5477 20.944
11.5629 20.979
11.5781 21.076
11.5932 20.902
11.6084 20.718
11.6236 21.038
11.6388 21.017
11.6539 20.885
11.6691 20.652
11.6843 20.418
11.6995 20.392
11.7146 20.472
11.7298 20.446
11.7450 20.110
11.7602 20.188
11.7753 20.169
11.7905 20.152
11.8057 19.756
11.8209 19.880
11.8360 19.756
11.8512 19.659
11.8664 19.811
11.8816 19.663
11.8967 19.502
11.9119 19.356
11.9271 19.602
11.9423 19.599
11.9574 19.418
11.9726 19.505
11.9878 19.367
12.0030 19.409
12.0181 19.069
12.0333 19.100
12.0485 19.225
12.0637 18.769
12.0788 18.676
12.0940 18.629
12.1092 18.624
12.1244 18.492
12.1395 18.162
12.1547 18.128
12.1699 18.204
12.1851 17.983
12.2002 18.156
12.2154 18.333
12.2306 18.074
12.2458 17.818
12.2609 17.912
12.2761 17.856
12.2913 18.041
12.3065 18.109
12.3216 17.441
12.3368 17.269
12.3520 17.643
12.3672 17.491
12.3823 17.277
12.3975 17.417
12.4127 17.231
12.4279 17.051
12.4430 17.366
12.4582 17.301
12.4734 17.004
12.4886 17.051
12.5037 16.911
12.5189 16.836
12.5341 16.774
12.5493 16.860
12.5644 16.540
12.5796 16.305
12.5948 16.252
12.6100 16.103
12.6251 15.849
12.6403 16.050
12.6555 16.064
12.6707 15.762
12.6858 15.448
12.7010 15.451
12.7162 15.312
12.7314 15.379
12.7465 15.601
12.7617 15.353
12.7769 15.391
12.7921 15.321
12.8072 15.000
12.8224 15.068
12.8376 15.027
12.8528 14.672
12.8679 14.699
12.8831 14.885
12.8983 14.790
12.9135 14.622
12.9286 14.259
12.9438 14.197
12.9590 14.350
12.9742 14.277
12.9893 14.321
13.0045 14.221
13.0197 14.306
13.0349 14.156
13.0500 13.939
13.0652 14.015
13.0804 13.982
13.0956 13.906
13.1107 13.669
13.1259 13.642
13.1411 13.729
13.1563 13.657
13.1714 13.556
13.1866 13.462
13.2018 13.586
13.2170 13.667
13.2321 13.492
13.2473 13.366
13.2625 13.398
13.2777 13.148
13.2928 12.988
13.3080 13.082
13.3232 12.967
13.3384 12.980
13.3535 12.969
13.3687 12.954
13.3839 12.875
13.3991 12.966
13.4142 13.094
13.4294 12.865
13.4446 12.777
13.4598 12.903
13.4749 12.873
13.4901 12.711
13.5053 12.554
13.5205 12.721
13.5356 12.477
13.5508 12.251
13.5660 12.214
13.5812 12.221
13.5963 12.182
13.6115 12.174
13.6267 12.216
13.6419 12.205
13.6570 12.049
13.6722 12.028
13.6874 11.954
13.7026 11.873
13.7177 11.916
13.7329 12.107
13.7481 12.104
13.7633 11.897
13.7784 12.075
13.7936 12.162
13.8088 12.012
13.8239 12.160
13.8391 12.241
13.8543 12.168
13.8695 12.071
13.8846 12.076
13.8998 12.015
13.9150 11.983
13.9302 11.982
13.9453 12.060
13.9605 11.965
13.9757 11.550
13.9909 11.663
14.0060 11.529
14.0212 11.352
14.0364 11.365
14.0516 11.143
14.0667 11.150
14.0819 11.385
14.0971 11.440
14.1123 11.231
14.1274 11.224
14.1426 11.418
14.1578 11.474
14.1730 11.393
14.1881 11.412
14.2033 11.499
14.2185 11.802
14.2337 11.615
14.2488 11.624
14.2640 11.968
14.2792 12.232
14.2944 12.086
14.3095 12.373
14.3247 12.054
14.3399 12.588
14.3551 12.625
14.3702 13.068
14.3854 12.982
14.4006 13.264
14.4158 12.966
14.4309 12.899
14.4461 12.735
14.4613 12.897
14.4765 13.345
14.4916 13.010
14.5068 12.693
14.5220 12.476
14.5372 12.454
14.5523 12.566
14.5675 12.745
14.5827 12.304
14.5979 12.206
14.6130 12.153
14.6282 11.980
14.6434 11.692
14.6586 11.873
14.6737 11.603
14.6889 11.729
14.7041 11.567
14.7193 11.297
14.7344 11.065
14.7496 11.091
14.7648 11.029
14.7800 11.155
14.7951 11.373
14.8103 11.020
14.8255 10.919
14.8407 10.698
14.8558 10.855
14.8710 10.659
14.8862 10.738
14.9014 10.910
14.9165 10.972
14.9317 11.055
14.9469 10.667
14.9621 10.793
14.9772 10.483
14.9924 10.694
15.0076 10.640
15.0228 10.366
15.0379 10.400
15.0531 10.660
15.0683 10.699
15.0835 10.709
15.0986 10.258
15.1138 10.474
15.1290 10.293
15.1442 10.794
15.1593 10.377
15.1745 10.424
15.1897 10.750
15.2049 10.288
15.2200 10.542
15.2352 10.597
15.2504 10.142
15.2656 10.114
15.2807 9.992
15.2959 10.223
15.3111 10.653
15.3263 10.430
15.3414 10.184
15.3566 10.428
15.3718 10.469
15.3870 10.308
15.4021 10.499
15.4173 10.492
15.4325 10.463
15.4477 10.806
15.4628 10.513
15.4780 10.308
15.4932 10.190
15.5084 10.388
15.5235 10.364
15.5387 10.451
15.5539 10.485
15.5691 10.333
15.5842 10.013
15.5994 10.350
15.6146 10.357
15.6298 9.880
15.6449 10.149
15.6601 9.965
15.6753 10.039
15.6905 9.989
15.7056 10.063
15.7208 10.102
15.7360 9.768
15.7512 9.991
15.7663 9.705
15.7815 9.661
15.7967 9.899
15.8119 9.802
15.8270 9.984
15.8422 9.897
15.8574 9.751
15.8726 9.758
15.8877 9.685
15.9029 9.451
15.9181 9.473
15.9333 9.722
15.9484 9.745
15.9636 9.672
15.9788 9.984
15.9940 9.988
16.0091 9.649
16.0243 9.754
16.0395 9.784
16.0547 9.888
16.0698 9.868
16.0850 9.919
16.1002 9.661
16.1154 9.687
16.1305 9.781
16.1457 9.797
16.1609 9.819
16.1761 10.040
16.1912 9.934
16.2064 9.734
16.2216 9.810
16.2368 9.780
16.2519 9.792
16.2671 10.154
16.2823 9.959
16.2975 10.029
16.3126 10.245
16.3278 10.284
16.3430 10.169
16.3582 9.856
16.3733 10.014
16.3885 10.143
16.4037 10.378
16.4189 10.255
16.4340 10.098
16.4492 10.327
16.4644 9.984
16.4796 9.900
16.4947 9.958
16.5099 9.864
16.5251 9.743
16.5403 9.491
16.5554 9.433
16.5706 9.535
16.5858 9.548
16.6010 9.895
16.6161 9.666
16.6313 9.603
16.6465 9.649
16.6617 9.821
16.6768 10.005
16.6920 9.886
16.7072 9.971
16.7224 10.044
16.7375 9.845
16.7527 9.995
16.7679 9.941
16.7831 9.924
16.7982 9.939
16.8134 9.689
16.8286 9.781
16.8438 9.714
16.8589 9.587
16.8741 9.694
16.8893 9.770
16.9045 9.697
16.9196 9.706
16.9348 9.752
16.9500 9.823
16.9652 9.777
16.9803 9.709
16.9955 9.969
17.0107 9.920
17.0259 9.817
17.0410 9.930
17.0562 10.058
17.0714 10.494
17.0866 10.464
17.1017 10.259
17.1169 10.523
17.1321 10.889
17.1473 11.161
17.1624 11.568
17.1776 12.145
17.1928 12.699
17.2080 13.699
17.2231 14.912
17.2383 16.076
17.2535 17.375
17.2687 18.257
17.2838 18.506
17.2990 17.974
17.3142 16.869
17.3294 16.104
17.3445 15.862
17.3597 15.786
17.3749 15.622
17.3901 14.948
17.4052 14.060
17.4204 13.445
17.4356 12.626
17.4508 12.010
17.4659 11.848
17.4811 11.540
17.4963 11.294
17.5115 11.400
17.5266 11.463
17.5418 11.492
17.5570 11.513
17.5722 11.454
17.5873 11.509
17.6025 11.472
17.6177 11.271
17.6329 11.037
17.6480 11.026
17.6632 11.002
17.6784 10.913
17.6936 10.929
17.7087 11.047
17.7239 10.932
17.7391 10.790
17.7543 10.987
17.7694 11.103
17.7846 10.990
17.7998 11.212
17.8150 11.304
17.8301 11.339
17.8453 11.467
17.8605 11.283
17.8757 11.404
17.8908 11.591
17.9060 11.488
17.9212 11.370
17.9364 11.290
17.9515 10.970
17.9667 11.025
17.9819 11.098
17.9971 11.185
18.0122 10.975
18.0274 10.606
18.0426 10.628
18.0578 10.506
18.0729 10.238
18.0881 10.176
18.1033 10.025
18.1185 10.075
18.1336 10.164
18.1488 10.030
18.1640 9.878
18.1792 10.035
18.1943 9.990
18.2095 9.865
18.2247 9.805
18.2399 9.858
18.2550 9.852
18.2702 9.696
18.2854 9.707
18.3006 9.754
18.3157 10.003
18.3309 9.918
18.3461 9.853
18.3613 10.030
18.3764 9.909
18.3916 9.890
18.4068 9.871
18.4220 9.853
18.4371 9.868
18.4523 9.661
18.4675 9.746
18.4827 9.828
18.4978 9.787
18.5130 9.926
18.5282 10.115
18.5434 10.008
18.5585 9.627
18.5737 9.580
18.5889 10.074
18.6041 9.970
18.6192 9.630
18.6344 9.660
18.6496 9.644
18.6648 9.632
18.6799 10.067
18.6951 9.895
18.7103 9.678
18.7255 9.758
18.7406 9.688
18.7558 9.680
18.7710 9.760
18.7862 9.772
18.8013 9.559
18.8165 9.710
18.8317 10.137
18.8469 10.011
18.8620 10.049
18.8772 10.147
18.8924 9.827
18.9076 9.677
18.9227 9.966
18.9379 9.958
18.9531 9.796
18.9683 9.915
18.9834 9.952
18.9986 10.011
19.0138 9.890
19.0290 10.165
19.0441 10.415
19.0593 10.292
19.0745 10.255
19.0897 10.141
19.1048 10.269
19.1200 10.347
19.1352 10.532
19.1504 10.743
19.1655 10.513
19.1807 10.556
19.1959 10.590
19.2111 10.621
19.2262 10.876
19.2414 10.861
19.2566 10.795
19.2718 10.965
19.2869 11.138
19.3021 10.908
19.3173 10.866
19.3325 11.002
19.3476 10.966
19.3628 11.219
19.3780 11.325
19.3932 11.092
19.4083 11.102
19.4235 11.243
19.4387 11.324
19.4539 11.448
19.4690 11.385
19.4842 11.333
19.4994 11.230
19.5146 11.264
19.5297 11.364
19.5449 11.519
19.5601 11.620
19.5753 11.493
19.5904 11.556
19.6056 11.697
19.6208 11.845
19.6360 11.913
19.6511 11.973
19.6663 11.899
19.6815 11.559
19.6967 11.521
19.7118 11.668
19.7270 11.617
19.7422 11.681
19.7574 11.806
19.7725 11.619
19.7877 11.749
19.8029 12.016
19.8180 11.962
19.8332 11.978
19.8484 12.251
19.8636 12.379
19.8787 12.484
19.8939 12.507
19.9091 12.879
19.9243 13.182
19.9394 13.354
19.9546 13.600
19.9698 14.055
19.9850 14.198
20.0001 14.112
20.0153 13.908
20.0305 13.712
20.0457 13.713
20.0608 13.885
20.0760 13.763
20.0912 13.690
20.1064 13.671
20.1215 13.279
20.1367 13.176
20.1519 13.131
20.1671 12.908
20.1822 12.856
20.1974 13.058
20.2126 13.063
20.2278 12.995
20.2429 12.667
20.2581 12.480
20.2733 12.157
20.2885 11.956
20.3036 11.667
20.3188 11.926
20.3340 11.908
20.3492 11.698
20.3643 11.380
20.3795 11.438
20.3947 11.396
20.4099 11.333
20.4250 11.182
20.4402 10.644
20.4554 10.647
20.4706 10.925
20.4857 11.120
20.5009 11.089
20.5161 11.130
20.5313 10.825
20.5464 10.775
20.5616 10.961
20.5768 11.105
20.5920 11.005
20.6071 11.000
20.6223 10.787
20.6375 10.808
20.6527 10.892
20.6678 10.749
20.6830 10.883
20.6982 10.661
20.7134 10.718
20.7285 10.937
20.7437 10.819
20.7589 10.710
20.7741 10.786
20.7892 10.557
20.8044 10.383
20.8196 10.573
20.8348 10.226
20.8499 10.657
20.8651 10.353
20.8803 10.300
20.8955 10.333
20.9106 10.311
20.9258 10.392
20.9410 10.216
20.9562 10.270
20.9713 10.239
20.9865 10.256
21.0017 9.896
21.0169 10.652
21.0320 9.941
21.0472 10.125
21.0624 9.971
21.0776 9.705
21.0927 9.682
21.1079 9.930
21.1231 10.237
21.1383 9.933
21.1534 9.782
21.1686 9.735
21.1838 9.899
21.1990 9.461
21.2141 9.601
21.2293 9.631
21.2445 9.794
21.2597 9.661
21.2748 10.046
21.2900 9.491
21.3052 9.542
21.3204 9.507
21.3355 9.793
21.3507 9.848
21.3659 9.807
21.3811 9.661
21.3962 9.819
21.4114 9.308
21.4266 9.228
21.4418 9.269
21.4569 9.047
21.4721 9.431
21.4873 9.304
21.5025 9.381
21.5176 9.480
21.5328 9.328
21.5480 9.475
21.5632 9.307
21.5783 9.215
21.5935 9.259
21.6087 9.413
21.6239 9.154
21.6390 9.052
21.6542 8.925
21.6694 8.902
21.6846 8.994
21.6997 9.010
21.7149 8.973
21.7301 8.965
21.7453 8.947
21.7604 8.926
21.7756 9.065
21.7908 9.206
21.8060 8.883
21.8211 8.962
21.8363 9.050
21.8515 9.046
21.8667 9.119
21.8818 8.834
21.8970 8.922
21.9122 9.120
21.9274 8.968
21.9425 8.779
21.9577 8.772
21.9729 8.979
21.9881 8.914
22.0032 8.846
22.0184 8.858
22.0336 8.936
22.0488 9.065
22.0639 8.852
22.0791 8.715
22.0943 8.542
22.1095 8.568
22.1246 8.827
22.1398 8.986
22.1550 8.774
22.1702 8.533
22.1853 8.579
22.2005 8.626
22.2157 8.700
22.2309 8.655
22.2460 8.449
22.2612 8.582
22.2764 8.665
22.2916 8.717
22.3067 8.661
22.3219 8.694
22.3371 8.467
22.3523 8.508
22.3674 8.557
22.3826 8.600
22.3978 8.499
22.4130 8.679
22.4281 8.513
22.4433 8.480
22.4585 8.640
22.4737 8.484
22.4888 8.220
22.5040 8.378
22.5192 8.670
22.5344 8.776
22.5495 8.460
22.5647 8.611
22.5799 8.764
22.5951 8.633
22.6102 8.545
22.6254 8.529
22.6406 8.457
22.6558 8.293
22.6709 8.385
22.6861 8.291
22.7013 8.203
22.7165 8.090
22.7316 6.286
