'Id: "" Comment: "" Operator: "Lab Manager" Anode: "Mo" Scantype: "Still (Eiger2R_500K (1D mode))" TimePerStep: "300" X: "11.8" Y: "9.4" Z: "11.284" 
7.2532 19.087
7.2684 19.052
7.2836 18.832
7.2987 19.095
7.3139 18.773
7.3291 19.160
7.3443 19.158
7.3594 19.273
7.3746 19.229
7.3898 19.513
7.4050 19.163
7.4201 19.618
7.4353 19.854
7.4505 19.433
7.4657 19.206
7.4808 19.228
7.4960 19.785
7.5112 20.078
7.5264 19.801
7.5415 19.870
7.5567 19.945
7.5719 20.051
7.5871 19.831
7.6022 19.685
7.6174 19.895
7.6326 20.168
7.6478 20.374
7.6629 20.337
7.6781 20.389
7.6933 20.495
7.7085 20.351
7.7236 20.108
7.7388 20.079
7.7540 20.124
7.7692 20.549
7.7843 21.042
7.7995 20.685
7.8147 20.703
7.8299 20.945
7.8450 20.837
7.8602 20.912
7.8754 20.822
7.8905 20.756
7.9057 20.970
7.9209 20.818
7.9361 20.893
7.9512 21.022
7.9664 20.894
7.9816 20.935
7.9968 21.149
8.0119 21.179
8.0271 21.084
8.0423 21.415
8.0575 21.500
8.0726 21.304
8.0878 20.983
8.1030 21.153
8.1182 21.403
8.1333 21.373
8.1485 21.161
8.1637 21.534
8.1789 21.508
8.1940 21.464
8.2092 21.393
8.2244 21.687
8.2396 21.794
8.2547 21.550
8.2699 21.642
8.2851 21.464
8.3003 21.707
8.3154 21.768
8.3306 21.645
8.3458 21.931
8.3610 21.836
8.3761 22.307
8.3913 22.130
8.4065 21.721
8.4217 21.950
8.4368 22.108
8.4520 21.938
8.4672 21.965
8.4824 22.254
8.4975 21.868
8.5127 22.176
8.5279 22.531
8.5431 21.795
8.5582 22.742
8.5734 22.229
8.5886 22.183
8.6038 22.316
8.6189 22.312
8.6341 22.845
8.6493 22.320
8.6645 22.409
8.6796 22.606
8.6948 22.933
8.7100 22.931
8.7252 23.057
8.7403 22.398
8.7555 22.879
8.7707 23.258
8.7859 23.154
8.8010 22.765
8.8162 22.284
8.8314 22.755
8.8466 22.992
8.8617 23.086
8.8769 22.718
8.8921 22.811
8.9073 22.752
8.9224 22.548
8.9376 22.594
8.9528 22.653
8.9680 22.560
8.9831 22.771
8.9983 22.766
9.0135 22.842
9.0287 22.948
9.0438 22.821
9.0590 22.617
9.0742 22.712
9.0894 22.699
9.1045 22.980
9.1197 22.455
9.1349 23.073
9.1501 23.081
9.1652 23.041
9.1804 23.106
9.1956 23.005
9.2108 23.160
9.2259 23.064
9.2411 22.943
9.2563 22.918
9.2715 22.914
9.2866 23.355
9.3018 23.401
9.3170 23.117
9.3322 22.936
9.3473 22.804
9.3625 22.992
9.3777 23.392
9.3929 23.187
9.4080 23.145
9.4232 22.992
9.4384 23.013
9.4536 23.230
9.4687 23.122
9.4839 23.305
9.4991 23.526
9.5143 23.188
9.5294 22.933
9.5446 23.198
9.5598 23.435
9.5750 23.382
9.5901 22.968
9.6053 22.731
9.6205 23.243
9.6357 23.824
9.6508 23.999
9.6660 24.136
9.6812 24.118
9.6964 23.698
9.7115 23.979
9.7267 24.698
9.7419 24.398
9.7571 24.083
9.7722 24.038
9.7874 23.844
9.8026 23.764
9.8178 23.561
9.8329 23.526
9.8481 23.476
9.8633 23.339
9.8785 23.405
9.8936 23.580
9.9088 23.663
9.9240 23.702
9.9392 23.408
9.9543 23.251
9.9695 23.545
9.9847 23.360
9.9999 23.297
10.0150 23.609
10.0302 23.605
10.0454 23.726
10.0606 23.479
10.0757 23.695
10.0909 23.992
10.1061 23.431
10.1213 23.547
10.1364 23.754
10.1516 23.616
10.1668 23.805
10.1820 23.916
10.1971 23.848
10.2123 23.940
10.2275 24.455
10.2427 24.002
10.2578 23.581
10.2730 23.668
10.2882 23.921
10.3034 23.803
10.3185 23.509
10.3337 23.448
10.3489 23.340
10.3641 23.202
10.3792 22.991
10.3944 23.075
10.4096 23.047
10.4248 22.805
10.4399 22.695
10.4551 22.626
10.4703 23.216
10.4855 23.322
10.5006 22.734
10.5158 22.429
10.5310 22.777
10.5462 22.732
10.5613 22.645
10.5765 22.665
10.5917 23.023
10.6069 22.893
10.6220 22.847
10.6372 22.660
10.6524 22.549
10.6676 22.749
10.6827 22.750
10.6979 22.857
10.7131 22.554
10.7283 22.386
10.7434 22.311
10.7586 22.137
10.7738 22.370
10.7890 22.541
10.8041 22.560
10.8193 22.786
10.8345 22.559
10.8497 22.661
10.8648 21.996
10.8800 22.175
10.8952 22.356
10.9104 22.225
10.9255 21.948
10.9407 21.910
10.9559 22.010
10.9711 22.032
10.9862 22.020
11.0014 21.816
11.0166 21.937
11.0318 22.011
11.0469 22.000
11.0621 22.126
11.0773 22.012
11.0925 21.846
11.1076 22.042
11.1228 21.961
11.1380 21.780
11.1532 21.658
11.1683 21.884
11.1835 22.072
11.1987 22.018
11.2139 21.702
11.2290 22.201
11.2442 21.720
11.2594 21.784
11.2746 22.111
11.2897 22.030
11.3049 22.148
11.3201 21.878
11.3353 21.810
11.3504 21.881
11.3656 21.431
11.3808 21.343
11.3960 21.311
11.4111 21.006
11.4263 20.846
11.4415 21.230
11.4567 21.042
11.4718 21.138
11.4870 21.364
11.5022 21.378
11.5174 21.131
11.5325 21.024
11.5477 21.108
11.5629 21.024
11.5781 21.021
11.5932 20.733
11.6084 20.363
11.6236 20.877
11.6388 20.988
11.6539 20.714
11.6691 20.795
11.6843 20.519
11.6995 20.419
11.7146 20.473
11.7298 20.402
11.7450 20.326
11.7602 20.534
11.7753 20.632
11.7905 20.024
11.8057 19.940
11.8209 20.202
11.8360 20.243
11.8512 20.057
11.8664 19.749
11.8816 19.681
11.8967 19.943
11.9119 19.696
11.9271 19.993
11.9423 19.511
11.9574 19.335
11.9726 19.383
11.9878 19.310
12.0030 19.467
12.0181 19.087
12.0333 18.583
12.0485 19.118
12.0637 19.224
12.0788 18.947
12.0940 18.969
12.1092 19.038
12.1244 18.785
12.1395 18.657
12.1547 18.597
12.1699 18.250
12.1851 18.239
12.2002 18.327
12.2154 18.503
12.2306 18.137
12.2458 17.896
12.2609 18.038
12.2761 18.009
12.2913 17.880
12.3065 17.620
12.3216 17.544
12.3368 17.626
12.3520 17.596
12.3672 17.333
12.3823 17.281
12.3975 17.601
12.4127 17.373
12.4279 17.116
12.4430 17.195
12.4582 17.372
12.4734 17.316
12.4886 17.032
12.5037 17.171
12.5189 17.291
12.5341 16.678
12.5493 16.412
12.5644 16.565
12.5796 16.299
12.5948 16.157
12.6100 15.935
12.6251 16.071
12.6403 16.289
12.6555 16.252
12.6707 15.649
12.6858 15.535
12.7010 15.990
12.7162 15.933
12.7314 15.732
12.7465 15.647
12.7617 15.595
12.7769 15.566
12.7921 15.435
12.8072 15.131
12.8224 15.200
12.8376 15.122
12.8528 15.021
12.8679 15.045
12.8831 14.922
12.8983 14.750
12.9135 14.553
12.9286 14.346
12.9438 14.370
12.9590 14.559
12.9742 14.539
12.9893 14.577
13.0045 14.459
13.0197 14.493
13.0349 14.515
13.0500 14.180
13.0652 14.210
13.0804 14.173
13.0956 13.924
13.1107 13.841
13.1259 13.700
13.1411 13.844
13.1563 13.860
13.1714 13.667
13.1866 13.656
13.2018 13.529
13.2170 13.473
13.2321 13.440
13.2473 13.434
13.2625 13.404
13.2777 13.168
13.2928 13.082
13.3080 13.163
13.3232 13.088
13.3384 13.087
13.3535 13.060
13.3687 12.948
13.3839 13.154
13.3991 13.229
13.4142 12.869
13.4294 12.788
13.4446 12.974
13.4598 12.857
13.4749 12.863
13.4901 12.925
13.5053 12.727
13.5205 12.477
13.5356 12.317
13.5508 12.315
13.5660 12.315
13.5812 12.342
13.5963 12.313
13.6115 12.210
13.6267 12.473
13.6419 12.526
13.6570 12.393
13.6722 12.062
13.6874 11.776
13.7026 11.788
13.7177 11.839
13.7329 12.271
13.7481 12.226
13.7633 12.142
13.7784 12.125
13.7936 11.920
13.8088 12.163
13.8239 12.199
13.8391 12.220
13.8543 12.202
13.8695 12.517
13.8846 12.526
13.8998 12.033
13.9150 11.888
13.9302 11.980
13.9453 11.850
13.9605 11.619
13.9757 11.656
13.9909 11.775
14.0060 11.544
14.0212 11.668
14.0364 11.693
14.0516 11.582
14.0667 11.505
14.0819 11.401
14.0971 11.579
14.1123 11.610
14.1274 11.446
14.1426 11.425
14.1578 11.680
14.1730 11.635
14.1881 11.572
14.2033 11.705
14.2185 11.993
14.2337 12.149
14.2488 12.147
14.2640 12.299
14.2792 11.973
14.2944 11.965
14.3095 12.131
14.3247 12.227
14.3399 12.601
14.3551 13.099
14.3702 12.988
14.3854 13.233
14.4006 13.098
14.4158 12.984
14.4309 12.857
14.4461 12.612
14.4613 12.345
14.4765 12.610
14.4916 12.509
14.5068 12.309
14.5220 12.267
14.5372 11.530
14.5523 11.686
14.5675 11.723
14.5827 11.383
14.5979 10.883
14.6130 11.369
14.6282 11.193
14.6434 10.947
14.6586 10.982
14.6737 11.088
14.6889 11.330
14.7041 10.741
14.7193 10.981
14.7344 10.721
14.7496 11.048
14.7648 10.812
14.7800 10.783
14.7951 10.959
14.8103 10.923
14.8255 10.682
14.8407 10.271
14.8558 10.457
14.8710 10.814
14.8862 10.648
14.9014 10.766
14.9165 10.968
14.9317 11.044
14.9469 10.905
14.9621 10.688
14.9772 10.100
14.9924 10.402
15.0076 10.750
15.0228 10.597
15.0379 10.670
15.0531 10.770
15.0683 10.623
15.0835 10.348
15.0986 10.485
15.1138 10.472
15.1290 10.430
15.1442 10.467
15.1593 10.655
15.1745 10.352
15.1897 10.328
15.2049 10.320
15.2200 10.526
15.2352 10.376
15.2504 10.531
15.2656 10.188
15.2807 10.370
15.2959 10.752
15.3111 10.188
15.3263 10.175
15.3414 10.039
15.3566 10.307
15.3718 10.492
15.3870 10.578
15.4021 10.534
15.4173 10.619
15.4325 10.731
15.4477 10.295
15.4628 10.585
15.4780 10.448
15.4932 10.178
15.5084 10.467
15.5235 10.186
15.5387 10.294
15.5539 10.261
15.5691 10.078
15.5842 10.272
15.5994 10.018
15.6146 9.876
15.6298 9.853
15.6449 9.721
15.6601 9.851
15.6753 10.099
15.6905 9.725
15.7056 9.939
15.7208 9.723
15.7360 9.903
15.7512 10.032
15.7663 10.045
15.7815 9.880
15.7967 9.740
15.8119 9.676
15.8270 9.960
15.8422 9.749
15.8574 9.964
15.8726 9.940
15.8877 9.827
15.9029 9.805
15.9181 9.623
15.9333 9.877
15.9484 9.921
15.9636 10.101
15.9788 9.941
15.9940 9.785
16.0091 9.860
16.0243 9.535
16.0395 9.716
16.0547 10.066
16.0698 9.870
16.0850 9.680
16.1002 9.691
16.1154 9.609
16.1305 9.549
16.1457 9.679
16.1609 9.707
16.1761 9.865
16.1912 9.554
16.2064 9.382
16.2216 9.659
16.2368 9.891
16.2519 9.813
16.2671 9.739
16.2823 10.013
16.2975 9.992
16.3126 10.112
16.3278 10.435
16.3430 10.299
16.3582 10.004
16.3733 9.717
16.3885 9.947
16.4037 10.079
16.4189 10.022
16.4340 10.046
16.4492 10.129
16.4644 9.932
16.4796 10.034
16.4947 10.033
16.5099 9.762
16.5251 9.589
16.5403 9.871
16.5554 9.775
16.5706 9.617
16.5858 9.820
16.6010 9.763
16.6161 9.653
16.6313 9.707
16.6465 9.687
16.6617 9.750
16.6768 9.828
16.6920 9.877
16.7072 10.068
16.7224 10.176
16.7375 10.035
16.7527 10.314
16.7679 10.197
16.7831 9.901
16.7982 10.053
16.8134 9.924
16.8286 10.044
16.8438 9.938
16.8589 9.720
16.8741 9.768
16.8893 9.741
16.9045 9.864
16.9196 9.916
16.9348 9.899
16.9500 9.857
16.9652 9.800
16.9803 9.899
16.9955 9.844
17.0107 9.787
17.0259 9.925
17.0410 10.232
17.0562 10.273
17.0714 10.274
17.0866 10.475
17.1017 10.685
17.1169 10.798
17.1321 10.906
17.1473 11.675
17.1624 12.021
17.1776 12.107
17.1928 13.011
17.2080 14.081
17.2231 14.976
17.2383 16.214
17.2535 17.577
17.2687 18.487
17.2838 18.721
17.2990 18.010
17.3142 17.035
17.3294 16.448
17.3445 16.084
17.3597 15.793
17.3749 15.697
17.3901 15.155
17.4052 14.277
17.4204 13.458
17.4356 12.441
17.4508 11.788
17.4659 11.596
17.4811 11.523
17.4963 11.432
17.5115 11.388
17.5266 11.461
17.5418 11.260
17.5570 11.128
17.5722 11.581
17.5873 11.696
17.6025 11.503
17.6177 11.418
17.6329 11.191
17.6480 11.069
17.6632 11.104
17.6784 11.243
17.6936 11.329
17.7087 11.109
17.7239 10.919
17.7391 10.696
17.7543 10.354
17.7694 10.320
17.7846 10.242
17.7998 10.311
17.8150 10.551
17.8301 10.445
17.8453 10.375
17.8605 10.478
17.8757 10.721
17.8908 10.822
17.9060 10.623
17.9212 10.438
17.9364 10.312
17.9515 10.289
17.9667 10.316
17.9819 10.304
17.9971 10.418
18.0122 10.458
18.0274 10.344
18.0426 10.346
18.0578 10.384
18.0729 10.393
18.0881 10.206
18.1033 9.993
18.1185 9.964
18.1336 9.992
18.1488 10.273
18.1640 10.089
18.1792 9.855
18.1943 10.125
18.2095 9.991
18.2247 9.961
18.2399 10.082
18.2550 9.929
18.2702 9.852
18.2854 9.958
18.3006 9.744
18.3157 9.711
18.3309 9.901
18.3461 9.920
18.3613 9.859
18.3764 9.926
18.3916 10.017
18.4068 9.961
18.4220 9.732
18.4371 9.695
18.4523 9.864
18.4675 9.769
18.4827 9.705
18.4978 9.603
18.5130 9.896
18.5282 10.029
18.5434 9.785
18.5585 9.651
18.5737 9.855
18.5889 9.888
18.6041 9.918
18.6192 9.923
18.6344 9.999
18.6496 10.014
18.6648 9.720
18.6799 9.494
18.6951 9.757
18.7103 9.961
18.7255 9.779
18.7406 9.657
18.7558 9.818
18.7710 9.924
18.7862 9.723
18.8013 9.492
18.8165 9.549
18.8317 9.479
18.8469 9.576
18.8620 9.665
18.8772 9.653
18.8924 9.682
18.9076 9.671
18.9227 10.029
18.9379 10.032
18.9531 9.749
18.9683 9.708
18.9834 9.885
18.9986 10.000
19.0138 9.990
19.0290 9.845
19.0441 9.879
19.0593 10.162
19.0745 10.182
19.0897 10.299
19.1048 10.384
19.1200 10.255
19.1352 10.301
19.1504 10.324
19.1655 10.556
19.1807 10.773
19.1959 10.868
19.2111 10.629
19.2262 10.737
19.2414 10.791
19.2566 10.884
19.2718 10.951
19.2869 10.925
19.3021 11.033
19.3173 10.986
19.3325 11.120
19.3476 11.176
19.3628 11.061
19.3780 11.037
19.3932 11.011
19.4083 11.211
19.4235 11.321
19.4387 11.281
19.4539 11.358
19.4690 11.353
19.4842 11.254
19.4994 11.341
19.5146 11.507
19.5297 11.456
19.5449 11.295
19.5601 11.447
19.5753 11.720
19.5904 11.890
19.6056 11.732
19.6208 11.653
19.6360 11.665
19.6511 11.616
19.6663 11.800
19.6815 11.727
19.6967 11.412
19.7118 11.474
19.7270 11.780
19.7422 11.893
19.7574 11.737
19.7725 11.707
19.7877 11.900
19.8029 11.927
19.8180 12.008
19.8332 12.014
19.8484 12.220
19.8636 12.191
19.8787 12.196
19.8939 12.783
19.9091 12.905
19.9243 13.143
19.9394 13.696
19.9546 13.878
19.9698 13.986
19.9850 14.224
20.0001 14.398
20.0153 14.365
20.0305 14.157
20.0457 14.141
20.0608 14.180
20.0760 13.808
20.0912 13.569
20.1064 13.620
20.1215 13.652
20.1367 13.496
20.1519 13.184
20.1671 12.981
20.1822 12.929
20.1974 13.123
20.2126 13.057
20.2278 13.055
20.2429 12.731
20.2581 12.378
20.2733 11.993
20.2885 12.212
20.3036 12.079
20.3188 11.978
20.3340 12.222
20.3492 11.850
20.3643 11.773
20.3795 11.658
20.3947 11.328
20.4099 10.980
20.4250 10.874
20.4402 10.906
20.4554 10.949
20.4706 10.901
20.4857 10.749
20.5009 10.737
20.5161 10.765
20.5313 10.706
20.5464 10.677
20.5616 10.728
20.5768 10.924
20.5920 10.745
20.6071 10.898
20.6223 10.939
20.6375 10.807
20.6527 10.837
20.6678 10.483
20.6830 10.536
20.6982 10.544
20.7134 10.543
20.7285 10.410
20.7437 10.637
20.7589 10.456
20.7741 10.711
20.7892 10.452
20.8044 10.435
20.8196 10.436
20.8348 10.399
20.8499 10.135
20.8651 10.576
20.8803 10.520
20.8955 10.282
20.9106 10.079
20.9258 10.191
20.9410 10.051
20.9562 10.281
20.9713 10.405
20.9865 10.057
21.0017 10.091
21.0169 10.029
21.0320 10.109
21.0472 9.989
21.0624 10.060
21.0776 10.069
21.0927 9.655
21.1079 9.945
21.1231 10.049
21.1383 9.472
21.1534 10.009
21.1686 9.544
21.1838 9.927
21.1990 9.724
21.2141 9.810
21.2293 9.641
21.2445 9.598
21.2597 9.349
21.2748 9.681
21.2900 9.683
21.3052 9.762
21.3204 9.489
21.3355 9.491
21.3507 9.370
21.3659 9.271
21.3811 9.496
21.3962 9.747
21.4114 9.454
21.4266 9.471
21.4418 9.478
21.4569 9.530
21.4721 9.381
21.4873 9.509
21.5025 9.524
21.5176 9.629
21.5328 9.361
21.5480 9.433
21.5632 9.460
21.5783 9.208
21.5935 9.140
21.6087 9.299
21.6239 9.092
21.6390 8.912
21.6542 9.260
21.6694 9.266
21.6846 9.184
21.6997 8.918
21.7149 9.158
21.7301 9.351
21.7453 9.073
21.7604 9.018
21.7756 9.048
21.7908 8.911
21.8060 8.940
21.8211 8.892
21.8363 9.251
21.8515 9.169
21.8667 8.967
21.8818 8.929
21.8970 8.936
21.9122 8.855
21.9274 8.854
21.9425 8.923
21.9577 8.942
21.9729 8.612
21.9881 8.670
22.0032 8.940
22.0184 8.866
22.0336 8.860
22.0488 8.900
22.0639 9.092
22.0791 9.106
22.0943 8.780
22.1095 8.630
22.1246 8.845
22.1398 8.614
22.1550 8.608
22.1702 8.936
22.1853 8.898
22.2005 8.814
22.2157 8.583
22.2309 8.399
22.2460 8.584
22.2612 8.763
22.2764 8.636
22.2916 8.525
22.3067 8.461
22.3219 8.439
22.3371 8.552
22.3523 8.539
22.3674 8.686
22.3826 8.426
22.3978 8.555
22.4130 8.590
22.4281 8.562
22.4433 8.589
22.4585 8.581
22.4737 8.314
22.4888 8.367
22.5040 8.629
22.5192 8.495
22.5344 8.535
22.5495 8.368
22.5647 8.362
22.5799 8.477
22.5951 8.383
22.6102 8.433
22.6254 8.762
22.6406 8.582
22.6558 8.814
22.6709 8.280
22.6861 8.384
22.7013 8.497
22.7165 7.917
22.7316 6.613
