'Id: "" Comment: "" Operator: "Lab Manager" Anode: "Mo" Scantype: "Still (Eiger2R_500K (1D mode))" TimePerStep: "300" X: "11.8" Y: "9.4" Z: "11.284" 
7.2532 18.793
7.2684 18.701
7.2836 18.758
7.2987 18.879
7.3139 19.217
7.3291 18.606
7.3443 19.281
7.3594 19.288
7.3746 19.066
7.3898 19.119
7.4050 19.462
7.4201 20.064
7.4353 19.926
7.4505 19.444
7.4657 19.209
7.4808 19.295
7.4960 19.576
7.5112 19.756
7.5264 19.576
7.5415 19.560
7.5567 20.053
7.5719 20.437
7.5871 20.274
7.6022 19.905
7.6174 20.399
7.6326 20.344
7.6478 20.118
7.6629 19.905
7.6781 20.030
7.6933 20.367
7.7085 20.368
7.7236 20.386
7.7388 20.223
7.7540 20.121
7.7692 20.309
7.7843 20.319
7.7995 20.120
7.8147 19.960
7.8299 20.440
7.8450 20.857
7.8602 20.665
7.8754 20.544
7.8905 20.897
7.9057 20.844
7.9209 20.791
7.9361 21.163
7.9512 21.129
7.9664 20.843
7.9816 20.681
7.9968 20.709
8.0119 20.977
8.0271 21.063
8.0423 20.933
8.0575 21.129
8.0726 21.085
8.0878 21.391
8.1030 21.411
8.1182 21.318
8.1333 21.587
8.1485 21.494
8.1637 21.242
8.1789 21.289
8.1940 21.328
8.2092 21.441
8.2244 21.536
8.2396 21.364
8.2547 21.257
8.2699 21.309
8.2851 21.540
8.3003 21.457
8.3154 22.063
8.3306 21.996
8.3458 21.726
8.3610 21.466
8.3761 21.969
8.3913 21.826
8.4065 21.692
8.4217 22.027
8.4368 22.057
8.4520 21.902
8.4672 21.872
8.4824 21.952
8.4975 22.178
8.5127 22.612
8.5279 22.000
8.5431 21.995
8.5582 22.252
8.5734 22.055
8.5886 21.911
8.6038 22.300
8.6189 22.375
8.6341 21.698
8.6493 22.311
8.6645 22.325
8.6796 22.355
8.6948 22.227
8.7100 22.499
8.7252 22.615
8.7403 22.277
8.7555 22.487
8.7707 22.293
8.7859 22.065
8.8010 22.764
8.8162 22.425
8.8314 22.652
8.8466 22.494
8.8617 22.140
8.8769 22.465
8.8921 22.073
8.9073 22.509
8.9224 22.844
8.9376 22.410
8.9528 22.669
8.9680 22.537
8.9831 22.732
8.9983 22.733
9.0135 23.137
9.0287 22.845
9.0438 22.680
9.0590 22.755
9.0742 22.855
9.0894 22.823
9.1045 22.847
9.1197 22.670
9.1349 22.870
9.1501 22.903
9.1652 22.934
9.1804 23.096
9.1956 23.128
9.2108 23.028
9.2259 23.158
9.2411 23.198
9.2563 23.227
9.2715 22.975
9.2866 22.968
9.3018 23.132
9.3170 23.257
9.3322 23.240
9.3473 23.056
9.3625 23.057
9.3777 23.315
9.3929 22.991
9.4080 22.982
9.4232 23.085
9.4384 23.193
9.4536 23.186
9.4687 23.444
9.4839 23.346
9.4991 22.814
9.5143 22.819
9.5294 23.000
9.5446 22.919
9.5598 23.298
9.5750 23.061
9.5901 23.083
9.6053 23.317
9.6205 23.083
9.6357 23.382
9.6508 23.448
9.6660 23.423
9.6812 23.786
9.6964 24.079
9.7115 23.792
9.7267 23.986
9.7419 24.166
9.7571 23.771
9.7722 23.656
9.7874 23.611
9.8026 23.569
9.8178 23.448
9.8329 23.273
9.8481 23.524
9.8633 23.519
9.8785 23.248
9.8936 23.278
9.9088 23.397
9.9240 23.236
9.9392 23.425
9.9543 23.284
9.9695 23.078
9.9847 23.237
9.9999 23.003
10.0150 23.018
10.0302 23.490
10.0454 23.437
10.0606 22.939
10.0757 22.895
10.0909 23.253
10.1061 23.436
10.1213 23.776
10.1364 23.722
10.1516 23.460
10.1668 23.475
10.1820 23.657
10.1971 23.704
10.2123 22.901
10.2275 22.926
10.2427 23.039
10.2578 22.876
10.2730 22.832
10.2882 22.904
10.3034 22.891
10.3185 22.951
10.3337 22.812
10.3489 22.620
10.3641 22.917
10.3792 22.878
10.3944 22.545
10.4096 22.616
10.4248 22.601
10.4399 22.577
10.4551 22.756
10.4703 22.715
10.4855 22.728
10.5006 22.683
10.5158 22.871
10.5310 22.239
10.5462 22.249
10.5613 22.629
10.5765 22.541
10.5917 22.634
10.6069 22.640
10.6220 22.439
10.6372 22.317
10.6524 22.248
10.6676 22.426
10.6827 22.168
10.6979 22.399
10.7131 22.328
10.7283 22.759
10.7434 22.575
10.7586 22.417
10.7738 22.093
10.7890 22.200
10.8041 22.374
10.8193 22.407
10.8345 22.334
10.8497 22.223
10.8648 22.348
10.8800 22.245
10.8952 22.456
10.9104 22.472
10.9255 22.421
10.9407 22.235
10.9559 21.942
10.9711 22.260
10.9862 21.995
11.0014 21.791
11.0166 21.799
11.0318 21.668
11.0469 21.968
11.0621 21.819
11.0773 21.589
11.0925 21.641
11.1076 21.926
11.1228 21.845
11.1380 21.746
11.1532 21.822
11.1683 21.815
11.1835 21.361
11.1987 21.706
11.2139 21.485
11.2290 21.552
11.2442 21.625
11.2594 21.660
11.2746 21.323
11.2897 21.399
11.3049 21.730
11.3201 21.713
11.3353 21.307
11.3504 21.010
11.3656 21.429
11.3808 21.620
11.3960 21.243
11.4111 21.295
11.4263 21.132
11.4415 21.224
11.4567 21.051
11.4718 21.160
11.4870 21.385
11.5022 21.114
11.5174 20.789
11.5325 21.041
11.5477 21.132
11.5629 20.876
11.5781 20.465
11.5932 20.701
11.6084 20.716
11.6236 20.765
11.6388 20.625
11.6539 20.254
11.6691 20.354
11.6843 20.448
11.6995 20.547
11.7146 20.065
11.7298 20.180
11.7450 20.548
11.7602 20.566
11.7753 20.410
11.7905 19.965
11.8057 19.914
11.8209 20.095
11.8360 20.134
11.8512 19.970
11.8664 20.211
11.8816 19.789
11.8967 19.764
11.9119 19.431
11.9271 19.699
11.9423 19.752
11.9574 19.259
11.9726 19.472
11.9878 19.404
12.0030 19.383
12.0181 19.341
12.0333 19.154
12.0485 18.885
12.0637 19.035
12.0788 18.973
12.0940 19.106
12.1092 18.945
12.1244 18.876
12.1395 18.715
12.1547 18.495
12.1699 18.302
12.1851 18.287
12.2002 18.488
12.2154 18.395
12.2306 18.327
12.2458 18.154
12.2609 18.209
12.2761 18.094
12.2913 17.518
12.3065 17.511
12.3216 17.552
12.3368 17.364
12.3520 17.142
12.3672 17.190
12.3823 17.227
12.3975 17.215
12.4127 17.310
12.4279 17.365
12.4430 17.096
12.4582 16.563
12.4734 16.527
12.4886 16.540
12.5037 16.751
12.5189 16.705
12.5341 16.492
12.5493 16.336
12.5644 16.238
12.5796 16.330
12.5948 16.218
12.6100 16.116
12.6251 15.720
12.6403 15.725
12.6555 15.861
12.6707 15.761
12.6858 15.597
12.7010 15.593
12.7162 15.570
12.7314 15.492
12.7465 15.409
12.7617 15.423
12.7769 15.487
12.7921 15.610
12.8072 15.295
12.8224 14.986
12.8376 15.030
12.8528 14.941
12.8679 14.770
12.8831 14.721
12.8983 14.445
12.9135 14.589
12.9286 14.691
12.9438 14.364
12.9590 14.147
12.9742 14.101
12.9893 14.374
13.0045 14.400
13.0197 14.236
13.0349 14.195
13.0500 14.038
13.0652 13.797
13.0804 13.804
13.0956 13.797
13.1107 13.622
13.1259 13.627
13.1411 13.696
13.1563 13.567
13.1714 13.675
13.1866 13.597
13.2018 13.442
13.2170 13.542
13.2321 13.574
13.2473 13.532
13.2625 13.145
13.2777 13.031
13.2928 13.356
13.3080 13.340
13.3232 12.940
13.3384 12.876
13.3535 12.792
13.3687 12.797
13.3839 12.933
13.3991 12.929
13.4142 12.848
13.4294 12.740
13.4446 12.874
13.4598 12.946
13.4749 12.732
13.4901 12.551
13.5053 12.652
13.5205 12.734
13.5356 12.458
13.5508 12.395
13.5660 12.422
13.5812 12.534
13.5963 12.491
13.6115 12.392
13.6267 12.273
13.6419 12.062
13.6570 12.307
13.6722 12.173
13.6874 12.154
13.7026 12.254
13.7177 12.020
13.7329 12.227
13.7481 12.167
13.7633 11.959
13.7784 12.008
13.7936 12.192
13.8088 11.959
13.8239 12.245
13.8391 12.265
13.8543 12.318
13.8695 12.301
13.8846 12.188
13.8998 12.007
13.9150 12.075
13.9302 11.913
13.9453 11.869
13.9605 11.673
13.9757 11.568
13.9909 11.633
14.0060 11.724
14.0212 11.494
14.0364 11.438
14.0516 11.476
14.0667 11.433
14.0819 11.285
14.0971 11.248
14.1123 11.441
14.1274 11.375
14.1426 11.395
14.1578 11.231
14.1730 11.321
14.1881 11.484
14.2033 11.388
14.2185 11.178
14.2337 11.455
14.2488 11.718
14.2640 11.645
14.2792 11.635
14.2944 12.036
14.3095 11.933
14.3247 12.180
14.3399 12.490
14.3551 12.612
14.3702 12.756
14.3854 13.261
14.4006 13.322
14.4158 13.694
14.4309 13.746
14.4461 13.379
14.4613 12.890
14.4765 12.771
14.4916 12.413
14.5068 12.414
14.5220 12.134
14.5372 12.113
14.5523 11.762
14.5675 11.319
14.5827 11.541
14.5979 11.216
14.6130 10.651
14.6282 10.904
14.6434 10.738
14.6586 10.963
14.6737 10.893
14.6889 10.830
14.7041 10.755
14.7193 10.661
14.7344 10.691
14.7496 10.901
14.7648 10.455
14.7800 10.488
14.7951 10.551
14.8103 10.477
14.8255 10.403
14.8407 10.463
14.8558 10.449
14.8710 10.649
14.8862 10.641
14.9014 10.329
14.9165 10.651
14.9317 10.571
14.9469 10.367
14.9621 10.733
14.9772 10.514
14.9924 10.366
15.0076 10.248
15.0228 10.563
15.0379 10.189
15.0531 10.298
15.0683 10.085
15.0835 10.364
15.0986 10.066
15.1138 9.931
15.1290 10.315
15.1442 10.323
15.1593 10.311
15.1745 10.023
15.1897 10.220
15.2049 9.994
15.2200 10.312
15.2352 10.127
15.2504 10.139
15.2656 10.252
15.2807 10.525
15.2959 9.980
15.3111 10.127
15.3263 10.517
15.3414 9.986
15.3566 10.341
15.3718 10.100
15.3870 9.906
15.4021 10.142
15.4173 10.104
15.4325 10.340
15.4477 10.440
15.4628 10.035
15.4780 10.121
15.4932 10.358
15.5084 10.387
15.5235 10.023
15.5387 9.883
15.5539 9.911
15.5691 10.102
15.5842 9.633
15.5994 9.848
15.6146 9.888
15.6298 9.993
15.6449 9.906
15.6601 9.917
15.6753 9.475
15.6905 9.897
15.7056 9.868
15.7208 9.472
15.7360 9.526
15.7512 9.871
15.7663 9.827
15.7815 9.652
15.7967 9.676
15.8119 9.794
15.8270 9.850
15.8422 9.755
15.8574 9.324
15.8726 9.540
15.8877 9.716
15.9029 9.912
15.9181 9.691
15.9333 9.687
15.9484 9.892
15.9636 9.663
15.9788 9.796
15.9940 9.764
16.0091 9.782
16.0243 9.730
16.0395 9.626
16.0547 9.520
16.0698 9.601
16.0850 9.843
16.1002 9.918
16.1154 9.665
16.1305 9.582
16.1457 9.735
16.1609 9.456
16.1761 9.547
16.1912 9.555
16.2064 9.728
16.2216 10.088
16.2368 10.016
16.2519 9.789
16.2671 9.967
16.2823 10.107
16.2975 10.013
16.3126 9.983
16.3278 9.890
16.3430 9.922
16.3582 9.829
16.3733 9.972
16.3885 9.889
16.4037 9.630
16.4189 9.757
16.4340 9.588
16.4492 9.645
16.4644 9.594
16.4796 9.785
16.4947 9.939
16.5099 9.871
16.5251 9.661
16.5403 9.550
16.5554 9.736
16.5706 9.668
16.5858 9.521
16.6010 9.849
16.6161 9.867
16.6313 9.750
16.6465 9.743
16.6617 9.768
16.6768 9.710
16.6920 9.622
16.7072 9.605
16.7224 9.722
16.7375 9.771
16.7527 9.699
16.7679 9.617
16.7831 9.780
16.7982 9.832
16.8134 9.738
16.8286 9.990
16.8438 10.014
16.8589 9.646
16.8741 9.672
16.8893 9.792
16.9045 9.845
16.9196 9.843
16.9348 9.756
16.9500 9.771
16.9652 9.778
16.9803 9.796
16.9955 9.875
17.0107 9.920
17.0259 9.940
17.0410 9.906
17.0562 9.933
17.0714 10.321
17.0866 10.504
17.1017 10.345
17.1169 10.411
17.1321 10.855
17.1473 11.186
17.1624 11.520
17.1776 12.036
17.1928 12.744
17.2080 13.862
17.2231 15.196
17.2383 16.295
17.2535 17.378
17.2687 18.421
17.2838 18.548
17.2990 18.013
17.3142 17.153
17.3294 16.234
17.3445 15.741
17.3597 15.538
17.3749 15.685
17.3901 15.414
17.4052 14.288
17.4204 13.017
17.4356 12.241
17.4508 11.957
17.4659 11.588
17.4811 11.396
17.4963 11.212
17.5115 10.886
17.5266 10.985
17.5418 11.005
17.5570 10.852
17.5722 10.826
17.5873 10.901
17.6025 10.925
17.6177 10.952
17.6329 11.079
17.6480 11.106
17.6632 11.487
17.6784 11.791
17.6936 11.868
17.7087 12.081
17.7239 12.095
17.7391 11.868
17.7543 11.564
17.7694 11.268
17.7846 11.271
17.7998 11.532
17.8150 11.605
17.8301 11.231
17.8453 10.914
17.8605 10.735
17.8757 10.618
17.8908 10.498
17.9060 10.517
17.9212 10.513
17.9364 10.393
17.9515 10.205
17.9667 10.213
17.9819 10.530
17.9971 10.262
18.0122 10.085
18.0274 10.191
18.0426 10.135
18.0578 10.249
18.0729 10.182
18.0881 10.133
18.1033 10.224
18.1185 10.176
18.1336 9.887
18.1488 9.819
18.1640 10.053
18.1792 10.153
18.1943 9.973
18.2095 9.926
18.2247 10.038
18.2399 9.864
18.2550 9.709
18.2702 9.735
18.2854 9.725
18.3006 9.847
18.3157 10.083
18.3309 9.954
18.3461 10.106
18.3613 9.986
18.3764 9.621
18.3916 9.570
18.4068 9.677
18.4220 9.854
18.4371 9.807
18.4523 9.770
18.4675 9.881
18.4827 9.861
18.4978 9.916
18.5130 10.013
18.5282 9.766
18.5434 9.749
18.5585 9.866
18.5737 9.730
18.5889 9.732
18.6041 9.787
18.6192 9.752
18.6344 9.649
18.6496 9.557
18.6648 9.569
18.6799 9.702
18.6951 9.772
18.7103 9.754
18.7255 9.815
18.7406 9.838
18.7558 9.955
18.7710 10.045
18.7862 10.031
18.8013 9.708
18.8165 9.609
18.8317 9.638
18.8469 9.626
18.8620 9.766
18.8772 9.988
18.8924 9.830
18.9076 9.635
18.9227 9.809
18.9379 9.856
18.9531 10.180
18.9683 10.310
18.9834 10.024
18.9986 10.233
19.0138 10.252
19.0290 9.991
19.0441 10.327
19.0593 10.446
19.0745 10.264
19.0897 10.348
19.1048 10.483
19.1200 10.405
19.1352 10.228
19.1504 10.204
19.1655 10.347
19.1807 10.613
19.1959 10.760
19.2111 10.553
19.2262 10.439
19.2414 10.736
19.2566 10.798
19.2718 10.856
19.2869 11.141
19.3021 11.248
19.3173 11.034
19.3325 10.850
19.3476 11.048
19.3628 11.095
19.3780 10.965
19.3932 11.110
19.4083 11.118
19.4235 11.079
19.4387 11.159
19.4539 11.290
19.4690 11.399
19.4842 11.282
19.4994 11.348
19.5146 11.392
19.5297 11.458
19.5449 11.471
19.5601 11.434
19.5753 11.417
19.5904 11.457
19.6056 11.524
19.6208 11.516
19.6360 11.333
19.6511 11.491
19.6663 11.808
19.6815 12.012
19.6967 12.013
19.7118 11.803
19.7270 11.595
19.7422 11.532
19.7574 11.591
19.7725 11.693
19.7877 11.716
19.8029 11.724
19.8180 11.876
19.8332 11.937
19.8484 12.184
19.8636 12.326
19.8787 12.552
19.8939 12.877
19.9091 13.068
19.9243 13.391
19.9394 13.665
19.9546 13.895
19.9698 14.307
19.9850 14.506
20.0001 14.455
20.0153 14.324
20.0305 13.966
20.0457 13.646
20.0608 13.618
20.0760 13.702
20.0912 13.794
20.1064 13.765
20.1215 13.538
20.1367 13.125
20.1519 12.941
20.1671 12.984
20.1822 12.730
20.1974 12.698
20.2126 12.826
20.2278 12.768
20.2429 12.544
20.2581 12.412
20.2733 12.141
20.2885 12.014
20.3036 11.945
20.3188 11.869
20.3340 11.830
20.3492 12.097
20.3643 11.955
20.3795 11.723
20.3947 11.706
20.4099 11.593
20.4250 12.072
20.4402 11.927
20.4554 11.830
20.4706 12.153
20.4857 12.073
20.5009 12.151
20.5161 11.951
20.5313 11.558
20.5464 11.289
20.5616 11.526
20.5768 11.762
20.5920 11.630
20.6071 11.616
20.6223 11.270
20.6375 11.137
20.6527 11.067
20.6678 10.719
20.6830 10.717
20.6982 10.812
20.7134 10.658
20.7285 10.611
20.7437 10.643
20.7589 10.466
20.7741 10.421
20.7892 10.351
20.8044 10.558
20.8196 10.274
20.8348 10.224
20.8499 10.468
20.8651 10.273
20.8803 10.257
20.8955 10.360
20.9106 9.945
20.9258 10.298
20.9410 10.035
20.9562 10.072
20.9713 10.240
20.9865 10.021
21.0017 10.089
21.0169 10.107
21.0320 9.988
21.0472 10.152
21.0624 10.177
21.0776 9.868
21.0927 9.504
21.1079 9.682
21.1231 9.768
21.1383 9.673
21.1534 9.646
21.1686 9.849
21.1838 9.988
21.1990 9.547
21.2141 9.736
21.2293 9.653
21.2445 9.875
21.2597 9.686
21.2748 9.570
21.2900 9.515
21.3052 9.596
21.3204 9.378
21.3355 9.634
21.3507 9.336
21.3659 9.729
21.3811 9.435
21.3962 9.534
21.4114 9.487
21.4266 9.344
21.4418 9.328
21.4569 9.545
21.4721 9.182
21.4873 9.283
21.5025 9.417
21.5176 9.441
21.5328 9.322
21.5480 9.182
21.5632 9.312
21.5783 9.305
21.5935 9.264
21.6087 9.505
21.6239 9.391
21.6390 9.167
21.6542 9.307
21.6694 9.174
21.6846 9.012
21.6997 9.162
21.7149 9.234
21.7301 9.042
21.7453 9.123
21.7604 9.197
21.7756 9.240
21.7908 8.869
21.8060 8.977
21.8211 8.945
21.8363 9.115
21.8515 9.072
21.8667 8.955
21.8818 8.883
21.8970 9.049
21.9122 8.920
21.9274 8.924
21.9425 8.781
21.9577 8.852
21.9729 9.129
21.9881 9.010
22.0032 8.825
22.0184 8.703
22.0336 8.945
22.0488 9.099
22.0639 8.920
22.0791 8.846
22.0943 8.904
22.1095 8.710
22.1246 8.783
22.1398 8.835
22.1550 8.618
22.1702 8.665
22.1853 8.667
22.2005 8.708
22.2157 8.738
22.2309 8.593
22.2460 8.562
22.2612 8.667
22.2764 8.668
22.2916 8.391
22.3067 8.681
22.3219 8.591
22.3371 8.449
22.3523 8.402
22.3674 8.604
22.3826 8.469
22.3978 8.625
22.4130 8.564
22.4281 8.280
22.4433 8.299
22.4585 8.255
22.4737 8.469
22.4888 8.206
22.5040 8.364
22.5192 8.308
22.5344 8.457
22.5495 8.583
22.5647 8.499
22.5799 8.244
22.5951 8.387
22.6102 8.497
22.6254 8.258
22.6406 8.448
22.6558 8.470
22.6709 8.242
22.6861 8.336
22.7013 7.895
22.7165 8.021
22.7316 6.410
