'Id: "" Comment: "" Operator: "Lab Manager" Anode: "Mo" Scantype: "Still (Eiger2R_500K (1D mode))" TimePerStep: "300" X: "11.8" Y: "9.4" Z: "11.284" 
7.2532 18.843
7.2684 19.704
7.2836 19.018
7.2987 18.753
7.3139 18.997
7.3291 19.182
7.3443 19.221
7.3594 19.374
7.3746 19.279
7.3898 19.598
7.4050 19.483
7.4201 19.653
7.4353 19.568
7.4505 19.359
7.4657 19.642
7.4808 19.434
7.4960 19.748
7.5112 19.924
7.5264 19.672
7.5415 19.603
7.5567 19.768
7.5719 19.934
7.5871 19.564
7.6022 19.773
7.6174 19.879
7.6326 19.781
7.6478 20.135
7.6629 20.523
7.6781 20.401
7.6933 20.229
7.7085 20.251
7.7236 20.541
7.7388 20.453
7.7540 20.306
7.7692 20.270
7.7843 20.519
7.7995 20.553
7.8147 20.681
7.8299 20.804
7.8450 20.854
7.8602 21.186
7.8754 20.898
7.8905 20.748
7.9057 20.722
7.9209 20.694
7.9361 20.750
7.9512 20.859
7.9664 20.885
7.9816 20.995
7.9968 21.051
8.0119 20.973
8.0271 20.950
8.0423 21.112
8.0575 21.003
8.0726 21.281
8.0878 21.261
8.1030 21.371
8.1182 21.489
8.1333 21.646
8.1485 21.431
8.1637 21.335
8.1789 21.663
8.1940 21.645
8.2092 21.770
8.2244 21.709
8.2396 21.744
8.2547 21.743
8.2699 21.660
8.2851 21.847
8.3003 21.746
8.3154 22.135
8.3306 21.386
8.3458 21.425
8.3610 21.770
8.3761 21.659
8.3913 22.085
8.4065 21.973
8.4217 21.735
8.4368 21.546
8.4520 21.846
8.4672 22.481
8.4824 21.880
8.4975 22.197
8.5127 21.818
8.5279 22.031
8.5431 22.487
8.5582 21.849
8.5734 22.061
8.5886 22.531
8.6038 22.316
8.6189 21.947
8.6341 21.619
8.6493 22.476
8.6645 22.111
8.6796 22.592
8.6948 22.469
8.7100 22.834
8.7252 22.569
8.7403 22.409
8.7555 22.669
8.7707 22.967
8.7859 22.459
8.8010 22.448
8.8162 22.642
8.8314 22.576
8.8466 22.163
8.8617 22.671
8.8769 22.517
8.8921 22.559
8.9073 22.858
8.9224 22.989
8.9376 22.895
8.9528 22.611
8.9680 22.731
8.9831 23.019
8.9983 22.540
9.0135 22.798
9.0287 22.601
9.0438 22.813
9.0590 23.010
9.0742 22.910
9.0894 22.931
9.1045 22.837
9.1197 22.833
9.1349 23.197
9.1501 23.094
9.1652 23.069
9.1804 22.693
9.1956 22.601
9.2108 22.838
9.2259 22.972
9.2411 22.804
9.2563 23.196
9.2715 23.462
9.2866 23.168
9.3018 23.083
9.3170 23.222
9.3322 23.105
9.3473 22.986
9.3625 22.994
9.3777 22.987
9.3929 22.949
9.4080 23.002
9.4232 22.996
9.4384 23.046
9.4536 23.001
9.4687 23.019
9.4839 23.155
9.4991 23.277
9.5143 23.420
9.5294 23.177
9.5446 23.447
9.5598 23.808
9.5750 23.627
9.5901 23.546
9.6053 23.478
9.6205 23.519
9.6357 23.481
9.6508 23.408
9.6660 23.417
9.6812 23.698
9.6964 23.978
9.7115 24.079
9.7267 23.912
9.7419 23.895
9.7571 24.199
9.7722 24.096
9.7874 23.913
9.8026 23.938
9.8178 23.541
9.8329 23.579
9.8481 23.731
9.8633 23.456
9.8785 23.288
9.8936 23.621
9.9088 23.819
9.9240 23.735
9.9392 23.914
9.9543 23.855
9.9695 23.670
9.9847 23.327
9.9999 23.319
10.0150 23.280
10.0302 23.255
10.0454 23.412
10.0606 23.205
10.0757 23.217
10.0909 23.514
10.1061 23.237
10.1213 23.271
10.1364 22.916
10.1516 22.862
10.1668 22.846
10.1820 22.915
10.1971 22.986
10.2123 22.919
10.2275 23.214
10.2427 23.367
10.2578 23.406
10.2730 23.201
10.2882 23.075
10.3034 23.049
10.3185 23.149
10.3337 23.393
10.3489 23.250
10.3641 22.913
10.3792 23.013
10.3944 22.912
10.4096 22.999
10.4248 23.254
10.4399 23.309
10.4551 22.964
10.4703 22.477
10.4855 22.696
10.5006 22.806
10.5158 22.901
10.5310 22.686
10.5462 22.392
10.5613 22.253
10.5765 22.183
10.5917 22.529
10.6069 22.748
10.6220 22.412
10.6372 22.491
10.6524 22.654
10.6676 22.605
10.6827 22.375
10.6979 22.416
10.7131 22.137
10.7283 22.552
10.7434 22.418
10.7586 22.088
10.7738 22.474
10.7890 22.220
10.8041 21.906
10.8193 22.403
10.8345 22.509
10.8497 22.445
10.8648 22.349
10.8800 22.109
10.8952 22.265
10.9104 21.987
10.9255 22.162
10.9407 21.954
10.9559 22.053
10.9711 22.181
10.9862 22.000
11.0014 21.988
11.0166 22.233
11.0318 22.521
11.0469 22.104
11.0621 21.798
11.0773 21.779
11.0925 22.095
11.1076 21.755
11.1228 21.547
11.1380 21.758
11.1532 21.803
11.1683 21.782
11.1835 21.943
11.1987 21.741
11.2139 21.546
11.2290 21.567
11.2442 21.559
11.2594 21.580
11.2746 21.818
11.2897 21.805
11.3049 21.853
11.3201 21.895
11.3353 21.510
11.3504 21.403
11.3656 21.264
11.3808 21.353
11.3960 21.378
11.4111 21.259
11.4263 21.322
11.4415 21.260
11.4567 21.328
11.4718 21.183
11.4870 21.319
11.5022 21.330
11.5174 21.376
11.5325 20.815
11.5477 21.179
11.5629 21.344
11.5781 21.231
11.5932 20.757
11.6084 20.979
11.6236 20.908
11.6388 20.543
11.6539 20.233
11.6691 20.649
11.6843 20.588
11.6995 20.491
11.7146 20.493
11.7298 20.207
11.7450 20.373
11.7602 20.172
11.7753 20.272
11.7905 20.122
11.8057 19.858
11.8209 20.020
11.8360 20.047
11.8512 20.006
11.8664 19.815
11.8816 19.878
11.8967 19.594
11.9119 19.597
11.9271 19.639
11.9423 19.616
11.9574 19.471
11.9726 19.300
11.9878 19.506
12.0030 19.648
12.0181 19.373
12.0333 19.340
12.0485 19.289
12.0637 19.496
12.0788 18.921
12.0940 18.744
12.1092 18.799
12.1244 18.667
12.1395 18.534
12.1547 18.506
12.1699 18.361
12.1851 18.228
12.2002 18.127
12.2154 18.034
12.2306 18.036
12.2458 17.904
12.2609 17.746
12.2761 17.927
12.2913 18.030
12.3065 17.876
12.3216 17.614
12.3368 17.705
12.3520 17.830
12.3672 17.603
12.3823 17.414
12.3975 17.348
12.4127 17.294
12.4279 17.117
12.4430 17.063
12.4582 16.990
12.4734 17.027
12.4886 17.028
12.5037 16.706
12.5189 16.746
12.5341 16.614
12.5493 16.210
12.5644 16.080
12.5796 16.140
12.5948 16.119
12.6100 16.199
12.6251 16.159
12.6403 16.144
12.6555 16.276
12.6707 16.162
12.6858 15.830
12.7010 15.783
12.7162 15.612
12.7314 15.459
12.7465 15.518
12.7617 15.666
12.7769 15.346
12.7921 15.161
12.8072 15.070
12.8224 15.176
12.8376 15.360
12.8528 15.014
12.8679 14.709
12.8831 14.736
12.8983 14.763
12.9135 14.722
12.9286 14.634
12.9438 14.528
12.9590 14.389
12.9742 14.614
12.9893 14.602
13.0045 14.491
13.0197 14.345
13.0349 14.160
13.0500 14.329
13.0652 14.261
13.0804 14.075
13.0956 14.061
13.1107 13.908
13.1259 13.858
13.1411 13.766
13.1563 13.550
13.1714 13.439
13.1866 13.523
13.2018 13.663
13.2170 13.486
13.2321 13.493
13.2473 13.438
13.2625 13.287
13.2777 13.296
13.2928 13.166
13.3080 13.100
13.3232 13.150
13.3384 13.173
13.3535 13.146
13.3687 13.123
13.3839 13.058
13.3991 13.036
13.4142 12.932
13.4294 12.830
13.4446 12.731
13.4598 12.739
13.4749 12.941
13.4901 12.747
13.5053 12.511
13.5205 12.710
13.5356 12.621
13.5508 12.545
13.5660 12.735
13.5812 12.684
13.5963 12.391
13.6115 12.468
13.6267 12.326
13.6419 12.014
13.6570 12.193
13.6722 12.112
13.6874 12.002
13.7026 12.097
13.7177 12.153
13.7329 12.094
13.7481 12.075
13.7633 12.021
13.7784 11.996
13.7936 11.982
13.8088 12.125
13.8239 12.398
13.8391 12.432
13.8543 12.412
13.8695 12.512
13.8846 12.096
13.8998 12.039
13.9150 12.291
13.9302 12.360
13.9453 12.073
13.9605 11.800
13.9757 11.793
13.9909 11.633
14.0060 11.601
14.0212 11.672
14.0364 11.403
14.0516 11.150
14.0667 11.563
14.0819 11.591
14.0971 11.657
14.1123 11.400
14.1274 11.415
14.1426 11.435
14.1578 11.306
14.1730 11.412
14.1881 11.441
14.2033 11.384
14.2185 11.352
14.2337 11.315
14.2488 11.275
14.2640 11.246
14.2792 11.272
14.2944 11.466
14.3095 11.362
14.3247 11.522
14.3399 11.480
14.3551 11.600
14.3702 11.939
14.3854 12.471
14.4006 12.501
14.4158 12.471
14.4309 12.737
14.4461 12.294
14.4613 12.472
14.4765 12.479
14.4916 12.234
14.5068 11.938
14.5220 11.935
14.5372 11.391
14.5523 11.528
14.5675 11.435
14.5827 11.072
14.5979 11.080
14.6130 11.218
14.6282 11.269
14.6434 10.968
14.6586 10.972
14.6737 11.395
14.6889 11.341
14.7041 10.927
14.7193 10.971
14.7344 11.114
14.7496 11.054
14.7648 11.058
14.7800 11.147
14.7951 11.152
14.8103 11.152
14.8255 10.962
14.8407 11.216
14.8558 10.925
14.8710 11.033
14.8862 10.634
14.9014 10.518
14.9165 11.206
14.9317 10.949
14.9469 10.978
14.9621 11.173
14.9772 10.546
14.9924 10.275
15.0076 10.745
15.0228 10.412
15.0379 10.554
15.0531 10.548
15.0683 10.522
15.0835 10.507
15.0986 10.409
15.1138 10.224
15.1290 10.367
15.1442 10.572
15.1593 10.301
15.1745 10.126
15.1897 10.365
15.2049 10.328
15.2200 10.419
15.2352 10.210
15.2504 10.057
15.2656 9.929
15.2807 10.398
15.2959 10.392
15.3111 10.232
15.3263 10.333
15.3414 10.135
15.3566 10.352
15.3718 10.068
15.3870 10.280
15.4021 10.504
15.4173 10.576
15.4325 10.201
15.4477 10.273
15.4628 10.450
15.4780 10.529
15.4932 10.226
15.5084 10.183
15.5235 10.377
15.5387 10.508
15.5539 10.471
15.5691 10.321
15.5842 10.475
15.5994 10.430
15.6146 10.491
15.6298 9.927
15.6449 10.075
15.6601 10.203
15.6753 9.922
15.6905 9.979
15.7056 9.999
15.7208 10.108
15.7360 10.026
15.7512 9.725
15.7663 9.950
15.7815 9.705
15.7967 9.661
15.8119 9.945
15.8270 10.171
15.8422 9.810
15.8574 9.744
15.8726 9.659
15.8877 9.547
15.9029 9.356
15.9181 9.543
15.9333 9.691
15.9484 9.886
15.9636 9.749
15.9788 9.934
15.9940 9.919
16.0091 9.730
16.0243 9.681
16.0395 9.788
16.0547 9.756
16.0698 9.719
16.0850 9.857
16.1002 9.522
16.1154 9.482
16.1305 9.681
16.1457 9.890
16.1609 9.780
16.1761 9.669
16.1912 9.704
16.2064 9.821
16.2216 9.799
16.2368 9.994
16.2519 9.981
16.2671 10.108
16.2823 10.224
16.2975 10.017
16.3126 9.823
16.3278 9.884
16.3430 9.946
16.3582 9.907
16.3733 10.212
16.3885 10.206
16.4037 10.255
16.4189 9.874
16.4340 9.890
16.4492 9.975
16.4644 9.906
16.4796 9.489
16.4947 9.932
16.5099 9.892
16.5251 9.922
16.5403 9.766
16.5554 9.812
16.5706 10.056
16.5858 10.039
16.6010 10.048
16.6161 10.007
16.6313 10.067
16.6465 9.839
16.6617 9.912
16.6768 10.046
16.6920 10.073
16.7072 9.979
16.7224 9.806
16.7375 10.018
16.7527 10.099
16.7679 10.051
16.7831 9.899
16.7982 9.990
16.8134 9.853
16.8286 9.756
16.8438 10.014
16.8589 9.939
16.8741 9.766
16.8893 9.981
16.9045 9.961
16.9196 9.896
16.9348 10.164
16.9500 9.953
16.9652 9.714
16.9803 9.823
16.9955 9.902
17.0107 10.079
17.0259 10.280
17.0410 10.171
17.0562 10.226
17.0714 10.314
17.0866 10.371
17.1017 10.642
17.1169 10.817
17.1321 11.058
17.1473 11.549
17.1624 12.059
17.1776 12.812
17.1928 13.339
17.2080 14.212
17.2231 15.472
17.2383 16.506
17.2535 17.849
17.2687 18.719
17.2838 18.687
17.2990 17.996
17.3142 16.919
17.3294 16.222
17.3445 16.183
17.3597 16.232
17.3749 15.760
17.3901 15.040
17.4052 14.304
17.4204 13.233
17.4356 12.238
17.4508 11.870
17.4659 11.678
17.4811 11.436
17.4963 11.194
17.5115 10.962
17.5266 10.757
17.5418 10.550
17.5570 10.307
17.5722 10.408
17.5873 10.399
17.6025 10.116
17.6177 10.180
17.6329 10.149
17.6480 10.080
17.6632 10.079
17.6784 10.204
17.6936 10.211
17.7087 10.119
17.7239 10.100
17.7391 10.285
17.7543 10.358
17.7694 10.391
17.7846 10.407
17.7998 10.221
17.8150 10.507
17.8301 11.029
17.8453 11.004
17.8605 10.738
17.8757 10.943
17.8908 10.901
17.9060 10.729
17.9212 10.943
17.9364 10.805
17.9515 10.454
17.9667 10.758
17.9819 11.031
17.9971 10.986
18.0122 10.609
18.0274 10.527
18.0426 10.523
18.0578 10.217
18.0729 10.135
18.0881 10.223
18.1033 10.232
18.1185 10.222
18.1336 10.251
18.1488 10.009
18.1640 9.910
18.1792 10.079
18.1943 10.189
18.2095 10.112
18.2247 10.120
18.2399 9.953
18.2550 10.082
18.2702 9.851
18.2854 9.829
18.3006 9.967
18.3157 9.982
18.3309 10.122
18.3461 9.893
18.3613 9.803
18.3764 9.783
18.3916 9.688
18.4068 9.760
18.4220 9.767
18.4371 9.755
18.4523 9.809
18.4675 9.788
18.4827 9.817
18.4978 9.814
18.5130 9.630
18.5282 9.856
18.5434 9.805
18.5585 9.589
18.5737 9.639
18.5889 9.832
18.6041 9.765
18.6192 9.650
18.6344 9.715
18.6496 9.765
18.6648 9.883
18.6799 9.937
18.6951 9.744
18.7103 9.665
18.7255 9.695
18.7406 9.797
18.7558 10.001
18.7710 9.968
18.7862 9.956
18.8013 9.831
18.8165 9.520
18.8317 9.787
18.8469 9.825
18.8620 9.753
18.8772 9.843
18.8924 9.981
18.9076 10.078
18.9227 10.052
18.9379 10.004
18.9531 9.937
18.9683 9.992
18.9834 10.222
18.9986 9.985
19.0138 10.080
19.0290 10.153
19.0441 10.165
19.0593 10.081
19.0745 10.242
19.0897 10.505
19.1048 10.302
19.1200 10.250
19.1352 10.373
19.1504 10.429
19.1655 10.570
19.1807 10.880
19.1959 10.744
19.2111 10.588
19.2262 10.615
19.2414 10.663
19.2566 10.950
19.2718 11.073
19.2869 10.707
19.3021 10.589
19.3173 10.739
19.3325 10.948
19.3476 11.088
19.3628 11.265
19.3780 11.326
19.3932 11.135
19.4083 11.052
19.4235 11.079
19.4387 11.211
19.4539 11.278
19.4690 11.284
19.4842 11.357
19.4994 11.365
19.5146 11.389
19.5297 11.476
19.5449 11.511
19.5601 11.647
19.5753 11.877
19.5904 11.768
19.6056 11.538
19.6208 11.654
19.6360 11.640
19.6511 11.585
19.6663 11.625
19.6815 11.434
19.6967 11.497
19.7118 11.808
19.7270 11.821
19.7422 11.774
19.7574 11.923
19.7725 11.880
19.7877 11.697
19.8029 11.983
19.8180 12.100
19.8332 12.120
19.8484 12.471
19.8636 12.705
19.8787 12.971
19.8939 13.097
19.9091 13.129
19.9243 13.426
19.9394 13.749
19.9546 14.196
19.9698 14.563
19.9850 14.722
20.0001 14.679
20.0153 14.485
20.0305 14.096
20.0457 13.849
20.0608 13.760
20.0760 13.798
20.0912 13.899
20.1064 13.657
20.1215 13.548
20.1367 13.359
20.1519 12.986
20.1671 12.601
20.1822 12.358
20.1974 12.709
20.2126 12.683
20.2278 12.420
20.2429 12.169
20.2581 12.094
20.2733 11.830
20.2885 11.489
20.3036 11.629
20.3188 11.700
20.3340 11.581
20.3492 11.631
20.3643 11.593
20.3795 11.223
20.3947 10.878
20.4099 10.799
20.4250 10.924
20.4402 10.664
20.4554 10.725
20.4706 10.662
20.4857 10.672
20.5009 10.909
20.5161 10.636
20.5313 10.502
20.5464 10.709
20.5616 10.723
20.5768 10.445
20.5920 10.422
20.6071 10.831
20.6223 10.733
20.6375 10.398
20.6527 10.291
20.6678 10.234
20.6830 10.220
20.6982 10.136
20.7134 10.135
20.7285 10.138
20.7437 10.083
20.7589 10.321
20.7741 10.820
20.7892 10.539
20.8044 10.409
20.8196 10.510
20.8348 10.389
20.8499 10.445
20.8651 10.528
20.8803 10.347
20.8955 10.579
20.9106 10.536
20.9258 10.037
20.9410 10.271
20.9562 10.235
20.9713 10.394
20.9865 10.328
21.0017 10.327
21.0169 10.181
21.0320 10.049
21.0472 10.208
21.0624 10.124
21.0776 10.427
21.0927 10.128
21.1079 10.208
21.1231 10.441
21.1383 10.205
21.1534 10.196
21.1686 10.068
21.1838 9.934
21.1990 9.755
21.2141 9.713
21.2293 9.746
21.2445 9.588
21.2597 9.775
21.2748 9.208
21.2900 9.568
21.3052 9.724
21.3204 9.774
21.3355 9.232
21.3507 9.768
21.3659 9.631
21.3811 9.454
21.3962 9.488
21.4114 9.477
21.4266 9.340
21.4418 9.356
21.4569 9.405
21.4721 9.463
21.4873 9.167
21.5025 9.711
21.5176 9.494
21.5328 9.364
21.5480 9.421
21.5632 9.096
21.5783 9.339
21.5935 9.291
21.6087 9.028
21.6239 8.751
21.6390 9.080
21.6542 9.135
21.6694 9.177
21.6846 8.935
21.6997 8.943
21.7149 8.973
21.7301 9.101
21.7453 9.199
21.7604 9.065
21.7756 9.172
21.7908 9.077
21.8060 9.043
21.8211 8.948
21.8363 8.870
21.8515 8.899
21.8667 8.976
21.8818 9.077
21.8970 9.017
21.9122 8.780
21.9274 9.084
21.9425 8.935
21.9577 8.761
21.9729 8.966
21.9881 8.914
22.0032 8.890
22.0184 8.946
22.0336 9.008
22.0488 8.882
22.0639 8.654
22.0791 8.598
22.0943 8.641
22.1095 8.698
22.1246 8.739
22.1398 8.627
22.1550 8.452
22.1702 8.712
22.1853 8.727
22.2005 8.576
22.2157 8.624
22.2309 8.702
22.2460 8.691
22.2612 8.514
22.2764 8.391
22.2916 8.497
22.3067 8.478
22.3219 8.847
22.3371 8.454
22.3523 8.405
22.3674 8.431
22.3826 8.520
22.3978 8.505
22.4130 8.587
22.4281 8.638
22.4433 8.344
22.4585 8.516
22.4737 8.517
22.4888 8.363
22.5040 8.469
22.5192 8.610
22.5344 8.512
22.5495 8.708
22.5647 8.484
22.5799 8.460
22.5951 8.330
22.6102 8.291
22.6254 8.457
22.6406 8.486
22.6558 8.661
22.6709 8.479
22.6861 8.486
22.7013 8.294
22.7165 7.957
22.7316 6.659
