'Id: "" Comment: "" Operator: "Lab Manager" Anode: "Mo" Scantype: "Still (Eiger2R_500K (1D mode))" TimePerStep: "300" X: "11.8" Y: "9.4" Z: "11.284" 
7.2532 18.834
7.2684 19.253
7.2836 18.862
7.2987 18.880
7.3139 19.006
7.3291 19.257
7.3443 19.140
7.3594 18.837
7.3746 19.010
7.3898 19.389
7.4050 19.480
7.4201 19.632
7.4353 19.602
7.4505 19.500
7.4657 19.539
7.4808 19.657
7.4960 20.057
7.5112 20.018
7.5264 19.985
7.5415 19.908
7.5567 19.448
7.5719 19.798
7.5871 19.791
7.6022 19.739
7.6174 20.150
7.6326 20.079
7.6478 20.202
7.6629 20.327
7.6781 20.187
7.6933 20.217
7.7085 20.737
7.7236 20.989
7.7388 20.439
7.7540 20.345
7.7692 20.784
7.7843 20.736
7.7995 20.307
7.8147 20.476
7.8299 20.821
7.8450 20.870
7.8602 20.882
7.8754 21.305
7.8905 21.465
7.9057 21.207
7.9209 21.229
7.9361 21.288
7.9512 21.220
7.9664 21.361
7.9816 21.457
7.9968 21.674
8.0119 21.477
8.0271 21.182
8.0423 20.829
8.0575 20.719
8.0726 21.111
8.0878 21.484
8.1030 21.204
8.1182 21.393
8.1333 21.281
8.1485 21.483
8.1637 21.621
8.1789 21.431
8.1940 21.944
8.2092 21.875
8.2244 21.733
8.2396 21.739
8.2547 21.820
8.2699 21.696
8.2851 21.793
8.3003 22.080
8.3154 22.015
8.3306 21.881
8.3458 22.041
8.3610 21.961
8.3761 22.140
8.3913 21.675
8.4065 22.009
8.4217 22.028
8.4368 21.989
8.4520 22.052
8.4672 21.858
8.4824 22.372
8.4975 22.541
8.5127 22.400
8.5279 22.190
8.5431 22.053
8.5582 21.837
8.5734 22.462
8.5886 22.200
8.6038 22.617
8.6189 21.892
8.6341 22.139
8.6493 22.186
8.6645 22.032
8.6796 22.446
8.6948 22.910
8.7100 22.745
8.7252 22.898
8.7403 22.961
8.7555 22.744
8.7707 22.781
8.7859 22.843
8.8010 22.883
8.8162 23.140
8.8314 22.333
8.8466 22.475
8.8617 22.475
8.8769 22.459
8.8921 22.476
8.9073 22.862
8.9224 22.618
8.9376 22.967
8.9528 22.842
8.9680 22.736
8.9831 22.483
8.9983 22.634
9.0135 22.969
9.0287 22.953
9.0438 22.615
9.0590 22.554
9.0742 22.853
9.0894 23.007
9.1045 23.004
9.1197 22.798
9.1349 23.226
9.1501 23.022
9.1652 22.739
9.1804 22.949
9.1956 23.312
9.2108 22.896
9.2259 22.673
9.2411 22.725
9.2563 23.295
9.2715 23.489
9.2866 23.409
9.3018 23.309
9.3170 23.273
9.3322 22.895
9.3473 22.916
9.3625 23.209
9.3777 23.415
9.3929 23.222
9.4080 23.294
9.4232 23.057
9.4384 23.277
9.4536 23.142
9.4687 23.556
9.4839 23.444
9.4991 23.375
9.5143 23.586
9.5294 23.384
9.5446 23.180
9.5598 23.374
9.5750 23.310
9.5901 23.346
9.6053 23.431
9.6205 23.608
9.6357 23.465
9.6508 23.450
9.6660 23.612
9.6812 23.514
9.6964 23.610
9.7115 23.888
9.7267 24.232
9.7419 24.145
9.7571 24.084
9.7722 24.366
9.7874 24.309
9.8026 23.990
9.8178 23.540
9.8329 23.377
9.8481 23.654
9.8633 23.711
9.8785 23.700
9.8936 23.650
9.9088 23.422
9.9240 23.562
9.9392 23.759
9.9543 23.575
9.9695 23.546
9.9847 23.682
9.9999 23.695
10.0150 23.572
10.0302 23.682
10.0454 23.604
10.0606 23.324
10.0757 23.349
10.0909 23.467
10.1061 23.717
10.1213 24.011
10.1364 23.899
10.1516 24.036
10.1668 24.079
10.1820 23.773
10.1971 23.879
10.2123 24.155
10.2275 24.085
10.2427 23.899
10.2578 23.716
10.2730 23.388
10.2882 23.460
10.3034 23.798
10.3185 23.510
10.3337 23.355
10.3489 23.256
10.3641 22.921
10.3792 23.069
10.3944 22.840
10.4096 22.563
10.4248 22.678
10.4399 23.050
10.4551 22.982
10.4703 22.803
10.4855 22.885
10.5006 22.730
10.5158 22.468
10.5310 22.824
10.5462 23.139
10.5613 23.016
10.5765 23.109
10.5917 22.988
10.6069 22.781
10.6220 22.659
10.6372 22.572
10.6524 22.406
10.6676 22.682
10.6827 22.633
10.6979 22.727
10.7131 22.670
10.7283 22.300
10.7434 22.351
10.7586 22.495
10.7738 22.543
10.7890 22.569
10.8041 22.375
10.8193 22.574
10.8345 22.425
10.8497 22.458
10.8648 22.215
10.8800 21.832
10.8952 22.085
10.9104 22.128
10.9255 22.195
10.9407 22.298
10.9559 22.430
10.9711 22.163
10.9862 21.753
11.0014 21.933
11.0166 21.797
11.0318 21.943
11.0469 21.949
11.0621 21.880
11.0773 22.352
11.0925 21.954
11.1076 21.276
11.1228 21.607
11.1380 21.786
11.1532 21.809
11.1683 21.596
11.1835 21.851
11.1987 22.100
11.2139 21.952
11.2290 21.958
11.2442 21.999
11.2594 21.706
11.2746 21.997
11.2897 22.090
11.3049 21.986
11.3201 21.606
11.3353 21.592
11.3504 21.766
11.3656 21.885
11.3808 21.740
11.3960 21.589
11.4111 21.525
11.4263 21.184
11.4415 21.138
11.4567 21.436
11.4718 21.401
11.4870 21.284
11.5022 21.164
11.5174 21.291
11.5325 21.276
11.5477 21.264
11.5629 21.131
11.5781 20.731
11.5932 21.220
11.6084 21.282
11.6236 21.068
11.6388 21.038
11.6539 20.921
11.6691 20.798
11.6843 20.542
11.6995 20.516
11.7146 21.035
11.7298 20.751
11.7450 20.670
11.7602 20.684
11.7753 20.225
11.7905 20.296
11.8057 20.313
11.8209 20.069
11.8360 20.102
11.8512 19.934
11.8664 19.605
11.8816 19.691
11.8967 19.467
11.9119 19.506
11.9271 19.688
11.9423 19.187
11.9574 19.719
11.9726 19.525
11.9878 19.341
12.0030 19.152
12.0181 19.080
12.0333 19.180
12.0485 18.922
12.0637 18.677
12.0788 18.775
12.0940 18.971
12.1092 18.708
12.1244 18.615
12.1395 19.011
12.1547 18.653
12.1699 18.540
12.1851 18.392
12.2002 18.444
12.2154 18.191
12.2306 17.830
12.2458 18.069
12.2609 17.798
12.2761 18.015
12.2913 18.090
12.3065 17.657
12.3216 17.776
12.3368 17.946
12.3520 17.820
12.3672 17.333
12.3823 17.543
12.3975 17.530
12.4127 17.276
12.4279 17.055
12.4430 17.182
12.4582 17.303
12.4734 17.266
12.4886 17.302
12.5037 17.327
12.5189 16.878
12.5341 16.750
12.5493 16.792
12.5644 16.425
12.5796 16.150
12.5948 16.408
12.6100 16.366
12.6251 16.126
12.6403 16.141
12.6555 16.153
12.6707 15.979
12.6858 16.114
12.7010 16.024
12.7162 15.657
12.7314 15.488
12.7465 15.666
12.7617 15.480
12.7769 15.388
12.7921 15.456
12.8072 15.283
12.8224 15.107
12.8376 15.047
12.8528 15.003
12.8679 15.192
12.8831 14.908
12.8983 14.533
12.9135 14.769
12.9286 14.603
12.9438 14.499
12.9590 14.685
12.9742 14.831
12.9893 14.773
13.0045 14.392
13.0197 14.137
13.0349 13.987
13.0500 14.058
13.0652 14.183
13.0804 14.121
13.0956 13.958
13.1107 13.909
13.1259 13.890
13.1411 13.773
13.1563 13.750
13.1714 13.770
13.1866 13.717
13.2018 13.480
13.2170 13.329
13.2321 13.369
13.2473 13.356
13.2625 13.126
13.2777 13.119
13.2928 13.338
13.3080 13.319
13.3232 13.263
13.3384 13.068
13.3535 12.960
13.3687 12.990
13.3839 13.090
13.3991 13.131
13.4142 13.029
13.4294 12.868
13.4446 12.607
13.4598 12.575
13.4749 12.605
13.4901 12.707
13.5053 12.609
13.5205 12.414
13.5356 12.461
13.5508 12.629
13.5660 12.512
13.5812 12.567
13.5963 12.476
13.6115 12.427
13.6267 12.365
13.6419 12.382
13.6570 12.081
13.6722 11.946
13.6874 11.838
13.7026 11.865
13.7177 12.056
13.7329 12.203
13.7481 12.042
13.7633 11.851
13.7784 12.082
13.7936 11.924
13.8088 12.017
13.8239 12.179
13.8391 12.355
13.8543 12.122
13.8695 12.330
13.8846 12.383
13.8998 12.112
13.9150 11.936
13.9302 12.013
13.9453 11.889
13.9605 11.708
13.9757 11.657
13.9909 11.675
14.0060 11.697
14.0212 11.545
14.0364 11.440
14.0516 11.190
14.0667 11.220
14.0819 11.463
14.0971 11.483
14.1123 11.572
14.1274 11.474
14.1426 11.393
14.1578 11.571
14.1730 11.494
14.1881 11.457
14.2033 11.817
14.2185 11.999
14.2337 11.810
14.2488 12.006
14.2640 11.978
14.2792 12.188
14.2944 12.382
14.3095 12.345
14.3247 12.305
14.3399 12.793
14.3551 13.012
14.3702 13.159
14.3854 13.137
14.4006 13.135
14.4158 12.818
14.4309 12.819
14.4461 13.107
14.4613 12.758
14.4765 12.596
14.4916 12.305
14.5068 12.315
14.5220 12.103
14.5372 11.802
14.5523 11.410
14.5675 11.454
14.5827 11.548
14.5979 11.394
14.6130 11.484
14.6282 11.328
14.6434 11.264
14.6586 11.093
14.6737 10.837
14.6889 10.984
14.7041 10.913
14.7193 10.930
14.7344 10.964
14.7496 11.049
14.7648 10.951
14.7800 10.672
14.7951 11.297
14.8103 10.788
14.8255 10.650
14.8407 10.809
14.8558 10.820
14.8710 10.396
14.8862 10.699
14.9014 10.584
14.9165 10.982
14.9317 11.108
14.9469 10.505
14.9621 10.495
14.9772 10.363
14.9924 10.495
15.0076 10.526
15.0228 10.346
15.0379 10.580
15.0531 10.370
15.0683 10.461
15.0835 10.802
15.0986 10.625
15.1138 10.583
15.1290 10.596
15.1442 10.456
15.1593 10.488
15.1745 10.511
15.1897 10.098
15.2049 10.423
15.2200 10.411
15.2352 10.144
15.2504 10.204
15.2656 10.400
15.2807 10.176
15.2959 10.258
15.3111 10.121
15.3263 10.523
15.3414 10.283
15.3566 10.013
15.3718 10.167
15.3870 10.638
15.4021 10.494
15.4173 10.643
15.4325 10.449
15.4477 10.436
15.4628 10.521
15.4780 10.365
15.4932 10.400
15.5084 10.555
15.5235 10.192
15.5387 9.963
15.5539 10.106
15.5691 10.304
15.5842 10.321
15.5994 10.334
15.6146 10.131
15.6298 10.134
15.6449 10.181
15.6601 10.089
15.6753 10.258
15.6905 10.114
15.7056 10.056
15.7208 10.069
15.7360 9.650
15.7512 10.141
15.7663 10.076
15.7815 9.837
15.7967 9.811
15.8119 9.840
15.8270 9.859
15.8422 9.861
15.8574 9.871
15.8726 9.536
15.8877 9.627
15.9029 9.562
15.9181 9.905
15.9333 9.705
15.9484 9.558
15.9636 9.806
15.9788 9.701
15.9940 9.919
16.0091 9.657
16.0243 9.822
16.0395 9.907
16.0547 10.121
16.0698 10.018
16.0850 9.748
16.1002 9.508
16.1154 9.579
16.1305 9.461
16.1457 9.509
16.1609 9.581
16.1761 9.516
16.1912 9.691
16.2064 9.928
16.2216 10.008
16.2368 10.080
16.2519 9.973
16.2671 9.904
16.2823 9.971
16.2975 10.066
16.3126 10.107
16.3278 10.018
16.3430 9.937
16.3582 9.924
16.3733 10.126
16.3885 10.419
16.4037 10.168
16.4189 9.973
16.4340 9.781
16.4492 9.856
16.4644 9.810
16.4796 9.912
16.4947 9.945
16.5099 9.868
16.5251 9.672
16.5403 9.653
16.5554 9.657
16.5706 9.795
16.5858 9.670
16.6010 9.640
16.6161 9.638
16.6313 9.532
16.6465 9.744
16.6617 9.683
16.6768 9.739
16.6920 10.127
16.7072 9.977
16.7224 9.966
16.7375 10.116
16.7527 10.091
16.7679 9.882
16.7831 9.831
16.7982 9.887
16.8134 9.894
16.8286 9.940
16.8438 9.839
16.8589 10.010
16.8741 9.713
16.8893 9.514
16.9045 9.902
16.9196 10.071
16.9348 9.878
16.9500 9.907
16.9652 9.890
16.9803 9.849
16.9955 9.778
17.0107 9.807
17.0259 9.759
17.0410 9.720
17.0562 9.929
17.0714 10.048
17.0866 10.313
17.1017 10.672
17.1169 10.671
17.1321 10.872
17.1473 11.161
17.1624 11.866
17.1776 12.469
17.1928 12.874
17.2080 14.084
17.2231 15.218
17.2383 16.099
17.2535 17.433
17.2687 18.644
17.2838 18.781
17.2990 18.137
17.3142 17.334
17.3294 16.732
17.3445 16.419
17.3597 16.182
17.3749 15.859
17.3901 15.170
17.4052 14.013
17.4204 13.057
17.4356 12.479
17.4508 12.163
17.4659 11.891
17.4811 11.531
17.4963 11.393
17.5115 11.342
17.5266 11.390
17.5418 11.358
17.5570 11.449
17.5722 11.477
17.5873 11.597
17.6025 11.742
17.6177 11.504
17.6329 11.326
17.6480 11.104
17.6632 10.861
17.6784 10.933
17.6936 11.101
17.7087 11.051
17.7239 10.922
17.7391 10.778
17.7543 10.659
17.7694 10.251
17.7846 10.296
17.7998 10.458
17.8150 10.299
17.8301 10.098
17.8453 10.077
17.8605 10.350
17.8757 10.482
17.8908 10.494
17.9060 10.646
17.9212 10.504
17.9364 10.250
17.9515 10.260
17.9667 10.282
17.9819 10.207
17.9971 10.513
18.0122 10.631
18.0274 10.269
18.0426 10.243
18.0578 10.218
18.0729 10.264
18.0881 10.160
18.1033 9.982
18.1185 10.023
18.1336 10.045
18.1488 9.872
18.1640 9.895
18.1792 9.973
18.1943 9.935
18.2095 9.574
18.2247 9.596
18.2399 9.827
18.2550 9.918
18.2702 10.109
18.2854 9.808
18.3006 9.763
18.3157 9.809
18.3309 9.705
18.3461 9.788
18.3613 9.695
18.3764 9.788
18.3916 9.971
18.4068 9.976
18.4220 9.889
18.4371 9.887
18.4523 10.040
18.4675 9.981
18.4827 9.849
18.4978 9.642
18.5130 9.553
18.5282 9.645
18.5434 9.760
18.5585 9.831
18.5737 9.912
18.5889 9.814
18.6041 9.790
18.6192 9.836
18.6344 9.694
18.6496 9.457
18.6648 9.819
18.6799 9.755
18.6951 9.442
18.7103 9.430
18.7255 9.548
18.7406 9.803
18.7558 9.867
18.7710 9.909
18.7862 9.972
18.8013 9.890
18.8165 9.776
18.8317 9.755
18.8469 10.080
18.8620 10.003
18.8772 9.961
18.8924 9.887
18.9076 9.735
18.9227 9.883
18.9379 9.912
18.9531 10.024
18.9683 10.079
18.9834 9.961
18.9986 9.822
19.0138 9.965
19.0290 10.063
19.0441 10.075
19.0593 10.126
19.0745 10.156
19.0897 10.346
19.1048 10.267
19.1200 10.449
19.1352 10.477
19.1504 10.421
19.1655 10.615
19.1807 10.549
19.1959 10.613
19.2111 10.596
19.2262 10.725
19.2414 10.936
19.2566 10.941
19.2718 11.053
19.2869 10.799
19.3021 10.892
19.3173 10.989
19.3325 10.877
19.3476 10.980
19.3628 10.973
19.3780 11.022
19.3932 10.969
19.4083 11.069
19.4235 11.215
19.4387 11.164
19.4539 11.529
19.4690 11.607
19.4842 11.206
19.4994 11.290
19.5146 11.303
19.5297 11.398
19.5449 11.616
19.5601 11.488
19.5753 11.366
19.5904 11.373
19.6056 11.542
19.6208 11.676
19.6360 11.494
19.6511 11.323
19.6663 11.560
19.6815 11.761
19.6967 11.861
19.7118 11.804
19.7270 11.744
19.7422 11.965
19.7574 11.763
19.7725 11.484
19.7877 11.918
19.8029 11.937
19.8180 11.706
19.8332 12.019
19.8484 12.329
19.8636 12.480
19.8787 12.683
19.8939 12.810
19.9091 12.674
19.9243 13.042
19.9394 13.713
19.9546 14.196
19.9698 14.406
19.9850 14.450
20.0001 14.288
20.0153 14.053
20.0305 13.995
20.0457 13.786
20.0608 13.683
20.0760 13.663
20.0912 13.364
20.1064 13.296
20.1215 13.435
20.1367 13.351
20.1519 13.102
20.1671 13.009
20.1822 13.049
20.1974 12.877
20.2126 12.809
20.2278 12.867
20.2429 12.627
20.2581 12.413
20.2733 12.259
20.2885 11.979
20.3036 11.787
20.3188 11.831
20.3340 11.853
20.3492 11.946
20.3643 11.757
20.3795 11.286
20.3947 11.159
20.4099 11.008
20.4250 10.867
20.4402 11.093
20.4554 10.817
20.4706 10.810
20.4857 10.942
20.5009 10.675
20.5161 10.504
20.5313 10.437
20.5464 10.702
20.5616 10.686
20.5768 10.612
20.5920 10.948
20.6071 10.700
20.6223 11.065
20.6375 10.866
20.6527 10.525
20.6678 10.483
20.6830 10.651
20.6982 10.756
20.7134 10.680
20.7285 10.675
20.7437 10.681
20.7589 10.576
20.7741 10.332
20.7892 10.149
20.8044 10.380
20.8196 10.570
20.8348 10.624
20.8499 10.084
20.8651 10.225
20.8803 10.064
20.8955 9.856
20.9106 10.396
20.9258 10.019
20.9410 10.083
20.9562 10.129
20.9713 10.409
20.9865 9.970
21.0017 9.750
21.0169 10.185
21.0320 9.821
21.0472 9.890
21.0624 9.746
21.0776 9.973
21.0927 9.675
21.1079 9.513
21.1231 9.936
21.1383 9.890
21.1534 9.586
21.1686 9.579
21.1838 9.676
21.1990 9.648
21.2141 9.723
21.2293 9.454
21.2445 9.772
21.2597 9.603
21.2748 9.478
21.2900 9.620
21.3052 9.424
21.3204 9.975
21.3355 9.626
21.3507 9.424
21.3659 9.460
21.3811 9.528
21.3962 9.246
21.4114 9.446
21.4266 9.634
21.4418 9.243
21.4569 9.363
21.4721 9.534
21.4873 9.205
21.5025 9.196
21.5176 9.442
21.5328 9.122
21.5480 9.261
21.5632 9.442
21.5783 9.207
21.5935 9.192
21.6087 9.180
21.6239 9.214
21.6390 9.031
21.6542 8.943
21.6694 9.083
21.6846 9.135
21.6997 9.084
21.7149 9.054
21.7301 8.953
21.7453 9.088
21.7604 9.032
21.7756 9.085
21.7908 8.978
21.8060 8.920
21.8211 9.165
21.8363 9.195
21.8515 9.110
21.8667 8.931
21.8818 9.007
21.8970 9.030
21.9122 8.869
21.9274 8.990
21.9425 8.983
21.9577 8.941
21.9729 8.969
21.9881 8.852
22.0032 8.816
22.0184 8.943
22.0336 8.808
22.0488 8.708
22.0639 8.921
22.0791 8.805
22.0943 8.693
22.1095 8.671
22.1246 8.622
22.1398 8.803
22.1550 8.874
22.1702 8.728
22.1853 8.827
22.2005 8.831
22.2157 8.652
22.2309 8.790
22.2460 8.821
22.2612 8.544
22.2764 8.688
22.2916 8.612
22.3067 8.661
22.3219 8.807
22.3371 8.611
22.3523 8.486
22.3674 8.513
22.3826 8.678
22.3978 8.629
22.4130 8.587
22.4281 8.549
22.4433 8.418
22.4585 8.637
22.4737 8.441
22.4888 8.595
22.5040 8.583
22.5192 8.430
22.5344 8.472
22.5495 8.589
22.5647 8.652
22.5799 8.669
22.5951 8.403
22.6102 8.575
22.6254 8.384
22.6406 8.741
22.6558 8.322
22.6709 8.541
22.6861 8.276
22.7013 8.225
22.7165 8.117
22.7316 6.487
