'Id: "" Comment: "" Operator: "Lab Manager" Anode: "Mo" Scantype: "Still (Eiger2R_500K (1D mode))" TimePerStep: "300" X: "11.8" Y: "9.4" Z: "11.284" 
7.2532 18.969
7.2684 18.723
7.2836 19.046
7.2987 19.026
7.3139 19.287
7.3291 19.376
7.3443 18.932
7.3594 19.092
7.3746 19.168
7.3898 19.460
7.4050 19.136
7.4201 19.314
7.4353 19.362
7.4505 19.379
7.4657 19.556
7.4808 19.586
7.4960 19.970
7.5112 19.676
7.5264 19.659
7.5415 19.608
7.5567 19.852
7.5719 20.086
7.5871 20.231
7.6022 19.931
7.6174 20.120
7.6326 20.387
7.6478 20.381
7.6629 20.382
7.6781 20.501
7.6933 20.480
7.7085 20.505
7.7236 20.375
7.7388 20.329
7.7540 20.256
7.7692 20.550
7.7843 20.595
7.7995 20.520
7.8147 20.715
7.8299 20.937
7.8450 20.967
7.8602 20.983
7.8754 21.323
7.8905 21.256
7.9057 21.152
7.9209 20.968
7.9361 21.008
7.9512 21.352
7.9664 21.098
7.9816 20.898
7.9968 21.291
8.0119 21.872
8.0271 21.178
8.0423 21.317
8.0575 21.269
8.0726 21.090
8.0878 21.075
8.1030 21.193
8.1182 21.353
8.1333 21.672
8.1485 21.818
8.1637 21.326
8.1789 21.347
8.1940 21.708
8.2092 21.257
8.2244 21.419
8.2396 21.771
8.2547 21.939
8.2699 21.803
8.2851 21.511
8.3003 21.884
8.3154 21.658
8.3306 22.153
8.3458 21.671
8.3610 22.083
8.3761 21.990
8.3913 22.061
8.4065 21.731
8.4217 21.757
8.4368 21.813
8.4520 22.262
8.4672 22.207
8.4824 21.608
8.4975 21.699
8.5127 22.305
8.5279 22.196
8.5431 22.188
8.5582 21.966
8.5734 22.320
8.5886 21.945
8.6038 22.206
8.6189 22.588
8.6341 22.630
8.6493 22.456
8.6645 23.175
8.6796 22.318
8.6948 22.609
8.7100 22.701
8.7252 22.809
8.7403 23.063
8.7555 22.169
8.7707 22.268
8.7859 23.088
8.8010 22.410
8.8162 22.599
8.8314 22.697
8.8466 22.524
8.8617 22.555
8.8769 22.434
8.8921 22.636
8.9073 22.423
8.9224 22.655
8.9376 22.400
8.9528 22.668
8.9680 22.829
8.9831 22.972
8.9983 22.941
9.0135 22.836
9.0287 23.080
9.0438 22.895
9.0590 22.577
9.0742 22.702
9.0894 22.690
9.1045 22.966
9.1197 22.944
9.1349 23.021
9.1501 22.724
9.1652 22.887
9.1804 22.906
9.1956 22.958
9.2108 23.148
9.2259 23.395
9.2411 23.294
9.2563 23.240
9.2715 23.447
9.2866 23.174
9.3018 23.288
9.3170 23.449
9.3322 23.482
9.3473 23.179
9.3625 23.101
9.3777 23.141
9.3929 23.305
9.4080 23.179
9.4232 23.235
9.4384 23.303
9.4536 23.381
9.4687 23.346
9.4839 23.182
9.4991 22.992
9.5143 23.089
9.5294 23.248
9.5446 23.552
9.5598 23.772
9.5750 23.535
9.5901 23.398
9.6053 23.374
9.6205 23.307
9.6357 23.475
9.6508 23.411
9.6660 23.524
9.6812 23.668
9.6964 24.111
9.7115 24.173
9.7267 24.054
9.7419 24.087
9.7571 24.147
9.7722 24.207
9.7874 23.659
9.8026 23.686
9.8178 23.924
9.8329 23.480
9.8481 23.463
9.8633 23.946
9.8785 23.810
9.8936 23.411
9.9088 23.622
9.9240 23.744
9.9392 23.451
9.9543 23.502
9.9695 23.642
9.9847 23.396
9.9999 23.415
10.0150 23.650
10.0302 23.619
10.0454 23.642
10.0606 23.617
10.0757 23.678
10.0909 23.622
10.1061 23.546
10.1213 23.661
10.1364 23.695
10.1516 24.026
10.1668 23.866
10.1820 23.306
10.1971 23.494
10.2123 23.737
10.2275 24.014
10.2427 24.146
10.2578 23.890
10.2730 23.986
10.2882 23.725
10.3034 23.524
10.3185 23.622
10.3337 23.492
10.3489 23.081
10.3641 22.826
10.3792 22.922
10.3944 22.993
10.4096 22.824
10.4248 22.818
10.4399 23.306
10.4551 23.027
10.4703 22.544
10.4855 22.769
10.5006 22.818
10.5158 22.584
10.5310 22.999
10.5462 22.716
10.5613 22.438
10.5765 22.489
10.5917 22.653
10.6069 22.767
10.6220 23.088
10.6372 22.756
10.6524 22.619
10.6676 22.788
10.6827 22.640
10.6979 22.541
10.7131 22.573
10.7283 22.337
10.7434 22.422
10.7586 22.378
10.7738 22.479
10.7890 22.390
10.8041 22.270
10.8193 22.301
10.8345 22.512
10.8497 22.253
10.8648 22.263
10.8800 22.308
10.8952 22.280
10.9104 21.957
10.9255 22.184
10.9407 22.266
10.9559 22.346
10.9711 22.130
10.9862 22.307
11.0014 22.574
11.0166 22.399
11.0318 22.101
11.0469 22.269
11.0621 22.098
11.0773 21.721
11.0925 21.944
11.1076 22.337
11.1228 21.797
11.1380 21.940
11.1532 21.711
11.1683 21.847
11.1835 22.335
11.1987 21.905
11.2139 22.007
11.2290 22.280
11.2442 22.246
11.2594 22.187
11.2746 22.259
11.2897 21.996
11.3049 22.058
11.3201 21.755
11.3353 21.449
11.3504 21.636
11.3656 21.637
11.3808 21.734
11.3960 21.338
11.4111 21.316
11.4263 21.602
11.4415 21.394
11.4567 21.312
11.4718 21.361
11.4870 21.189
11.5022 21.281
11.5174 21.554
11.5325 21.208
11.5477 20.968
11.5629 20.984
11.5781 20.919
11.5932 21.138
11.6084 21.092
11.6236 20.906
11.6388 20.690
11.6539 20.354
11.6691 20.988
11.6843 20.728
11.6995 21.027
11.7146 20.876
11.7298 20.597
11.7450 20.235
11.7602 20.336
11.7753 20.003
11.7905 19.771
11.8057 20.081
11.8209 20.221
11.8360 20.453
11.8512 20.322
11.8664 19.745
11.8816 20.134
11.8967 19.808
11.9119 19.669
11.9271 19.318
11.9423 19.313
11.9574 19.161
11.9726 19.274
11.9878 19.596
12.0030 19.542
12.0181 19.466
12.0333 19.402
12.0485 19.605
12.0637 19.213
12.0788 19.182
12.0940 19.049
12.1092 18.721
12.1244 18.816
12.1395 18.564
12.1547 18.335
12.1699 18.406
12.1851 18.155
12.2002 18.373
12.2154 18.263
12.2306 17.932
12.2458 17.829
12.2609 18.052
12.2761 17.957
12.2913 17.889
12.3065 17.950
12.3216 17.803
12.3368 17.353
12.3520 17.299
12.3672 17.628
12.3823 17.644
12.3975 17.335
12.4127 17.272
12.4279 17.334
12.4430 17.307
12.4582 17.157
12.4734 17.108
12.4886 17.039
12.5037 17.152
12.5189 16.894
12.5341 16.897
12.5493 16.845
12.5644 16.662
12.5796 16.477
12.5948 16.421
12.6100 16.273
12.6251 16.167
12.6403 16.265
12.6555 15.954
12.6707 15.801
12.6858 15.817
12.7010 15.646
12.7162 15.641
12.7314 15.746
12.7465 15.633
12.7617 15.442
12.7769 15.517
12.7921 15.366
12.8072 15.383
12.8224 15.427
12.8376 15.200
12.8528 15.068
12.8679 15.018
12.8831 15.175
12.8983 14.862
12.9135 14.740
12.9286 14.977
12.9438 14.656
12.9590 14.392
12.9742 14.548
12.9893 14.749
13.0045 14.546
13.0197 14.278
13.0349 14.196
13.0500 14.031
13.0652 14.073
13.0804 14.381
13.0956 14.112
13.1107 13.750
13.1259 13.705
13.1411 13.581
13.1563 13.777
13.1714 13.864
13.1866 13.664
13.2018 13.676
13.2170 13.583
13.2321 13.387
13.2473 13.430
13.2625 13.255
13.2777 13.026
13.2928 13.149
13.3080 13.281
13.3232 13.336
13.3384 13.388
13.3535 13.503
13.3687 13.346
13.3839 12.961
13.3991 12.750
13.4142 12.683
13.4294 12.833
13.4446 13.060
13.4598 13.121
13.4749 12.677
13.4901 12.437
13.5053 12.518
13.5205 12.458
13.5356 12.458
13.5508 12.343
13.5660 12.318
13.5812 12.280
13.5963 12.269
13.6115 12.356
13.6267 12.287
13.6419 12.191
13.6570 12.165
13.6722 12.344
13.6874 12.217
13.7026 12.257
13.7177 12.341
13.7329 11.965
13.7481 12.212
13.7633 12.319
13.7784 12.030
13.7936 11.967
13.8088 11.997
13.8239 12.142
13.8391 12.130
13.8543 12.176
13.8695 12.306
13.8846 12.104
13.8998 12.212
13.9150 11.969
13.9302 12.111
13.9453 12.195
13.9605 11.869
13.9757 11.537
13.9909 11.767
14.0060 11.878
14.0212 11.401
14.0364 11.344
14.0516 11.463
14.0667 11.618
14.0819 11.425
14.0971 11.477
14.1123 11.358
14.1274 11.605
14.1426 11.660
14.1578 11.563
14.1730 11.647
14.1881 11.736
14.2033 11.880
14.2185 11.965
14.2337 12.160
14.2488 11.986
14.2640 11.982
14.2792 11.873
14.2944 11.998
14.3095 12.237
14.3247 12.320
14.3399 12.615
14.3551 12.633
14.3702 12.967
14.3854 13.125
14.4006 12.847
14.4158 12.854
14.4309 12.582
14.4461 12.720
14.4613 12.148
14.4765 12.307
14.4916 12.532
14.5068 12.245
14.5220 11.985
14.5372 11.761
14.5523 11.493
14.5675 11.092
14.5827 10.949
14.5979 10.850
14.6130 10.802
14.6282 11.297
14.6434 11.016
14.6586 10.938
14.6737 10.888
14.6889 10.944
14.7041 11.313
14.7193 10.897
14.7344 10.776
14.7496 11.043
14.7648 10.753
14.7800 11.015
14.7951 10.884
14.8103 10.764
14.8255 10.798
14.8407 10.583
14.8558 10.288
14.8710 10.610
14.8862 11.003
14.9014 10.557
14.9165 11.149
14.9317 10.956
14.9469 10.620
14.9621 10.521
14.9772 10.752
14.9924 10.294
15.0076 10.456
15.0228 10.641
15.0379 10.570
15.0531 10.502
15.0683 10.505
15.0835 10.803
15.0986 10.727
15.1138 10.752
15.1290 11.022
15.1442 10.608
15.1593 10.308
15.1745 10.391
15.1897 10.319
15.2049 10.351
15.2200 10.497
15.2352 10.199
15.2504 10.458
15.2656 10.480
15.2807 10.606
15.2959 10.216
15.3111 10.342
15.3263 10.288
15.3414 10.271
15.3566 10.472
15.3718 10.600
15.3870 10.576
15.4021 10.609
15.4173 10.533
15.4325 10.582
15.4477 10.479
15.4628 10.203
15.4780 10.291
15.4932 10.295
15.5084 10.299
15.5235 10.079
15.5387 10.289
15.5539 10.271
15.5691 10.445
15.5842 10.491
15.5994 10.171
15.6146 10.080
15.6298 10.033
15.6449 9.975
15.6601 10.115
15.6753 10.272
15.6905 9.846
15.7056 10.087
15.7208 10.242
15.7360 9.732
15.7512 9.689
15.7663 9.767
15.7815 10.065
15.7967 9.924
15.8119 9.899
15.8270 10.017
15.8422 9.686
15.8574 9.572
15.8726 9.627
15.8877 9.672
15.9029 9.791
15.9181 9.709
15.9333 9.675
15.9484 9.784
15.9636 9.921
15.9788 10.034
15.9940 9.732
16.0091 9.799
16.0243 9.645
16.0395 9.809
16.0547 9.653
16.0698 9.841
16.0850 9.993
16.1002 9.701
16.1154 9.824
16.1305 9.695
16.1457 9.838
16.1609 9.715
16.1761 9.917
16.1912 9.762
16.2064 9.626
16.2216 9.818
16.2368 10.258
16.2519 9.955
16.2671 9.688
16.2823 9.947
16.2975 9.986
16.3126 9.879
16.3278 9.949
16.3430 9.865
16.3582 10.143
16.3733 10.208
16.3885 10.092
16.4037 9.891
16.4189 9.770
16.4340 9.837
16.4492 9.927
16.4644 9.932
16.4796 9.854
16.4947 9.698
16.5099 9.776
16.5251 9.814
16.5403 10.040
16.5554 9.909
16.5706 9.590
16.5858 9.527
16.6010 9.778
16.6161 9.517
16.6313 9.502
16.6465 9.785
16.6617 9.709
16.6768 9.810
16.6920 9.981
16.7072 9.982
16.7224 10.123
16.7375 10.204
16.7527 10.050
16.7679 9.994
16.7831 9.811
16.7982 9.884
16.8134 9.969
16.8286 9.732
16.8438 9.775
16.8589 9.977
16.8741 9.895
16.8893 9.851
16.9045 9.754
16.9196 9.725
16.9348 9.802
16.9500 9.896
16.9652 9.793
16.9803 9.929
16.9955 10.062
17.0107 10.058
17.0259 9.906
17.0410 9.920
17.0562 10.100
17.0714 10.237
17.0866 10.369
17.1017 10.311
17.1169 10.380
17.1321 10.882
17.1473 11.341
17.1624 11.708
17.1776 12.341
17.1928 13.061
17.2080 14.019
17.2231 14.877
17.2383 16.142
17.2535 17.383
17.2687 18.262
17.2838 18.745
17.2990 18.201
17.3142 17.196
17.3294 16.568
17.3445 16.305
17.3597 15.980
17.3749 15.834
17.3901 15.420
17.4052 14.487
17.4204 13.360
17.4356 12.466
17.4508 11.984
17.4659 11.725
17.4811 11.557
17.4963 11.315
17.5115 11.288
17.5266 11.313
17.5418 11.264
17.5570 11.261
17.5722 11.509
17.5873 11.635
17.6025 11.371
17.6177 11.348
17.6329 11.320
17.6480 11.160
17.6632 11.083
17.6784 10.951
17.6936 10.886
17.7087 10.913
17.7239 10.597
17.7391 10.428
17.7543 10.431
17.7694 10.349
17.7846 10.342
17.7998 10.194
17.8150 10.187
17.8301 10.289
17.8453 10.211
17.8605 10.292
17.8757 10.518
17.8908 10.477
17.9060 10.384
17.9212 10.487
17.9364 10.301
17.9515 10.340
17.9667 10.385
17.9819 10.393
17.9971 10.519
18.0122 10.557
18.0274 10.421
18.0426 10.262
18.0578 9.869
18.0729 9.980
18.0881 10.205
18.1033 10.282
18.1185 10.305
18.1336 10.184
18.1488 9.996
18.1640 9.812
18.1792 9.884
18.1943 10.107
18.2095 9.981
18.2247 9.730
18.2399 9.864
18.2550 9.989
18.2702 9.827
18.2854 9.651
18.3006 9.645
18.3157 9.800
18.3309 9.961
18.3461 10.100
18.3613 9.963
18.3764 9.842
18.3916 9.601
18.4068 9.776
18.4220 9.895
18.4371 9.730
18.4523 9.907
18.4675 10.013
18.4827 9.996
18.4978 9.959
18.5130 9.916
18.5282 9.938
18.5434 9.639
18.5585 9.490
18.5737 9.492
18.5889 9.676
18.6041 9.688
18.6192 9.659
18.6344 9.669
18.6496 9.851
18.6648 9.857
18.6799 9.909
18.6951 9.800
18.7103 9.590
18.7255 9.654
18.7406 9.586
18.7558 9.479
18.7710 9.733
18.7862 9.647
18.8013 9.700
18.8165 9.763
18.8317 9.776
18.8469 9.782
18.8620 10.146
18.8772 10.290
18.8924 10.005
18.9076 9.925
18.9227 9.960
18.9379 9.858
18.9531 10.168
18.9683 10.144
18.9834 9.881
18.9986 9.917
19.0138 10.028
19.0290 10.142
19.0441 10.277
19.0593 10.355
19.0745 10.339
19.0897 10.409
19.1048 10.471
19.1200 10.403
19.1352 10.432
19.1504 10.369
19.1655 10.371
19.1807 10.591
19.1959 10.636
19.2111 10.742
19.2262 10.823
19.2414 10.613
19.2566 10.518
19.2718 10.619
19.2869 10.799
19.3021 10.948
19.3173 11.004
19.3325 10.815
19.3476 10.942
19.3628 11.079
19.3780 11.015
19.3932 11.066
19.4083 11.224
19.4235 11.293
19.4387 11.309
19.4539 11.495
19.4690 11.269
19.4842 11.237
19.4994 11.563
19.5146 11.562
19.5297 11.511
19.5449 11.547
19.5601 11.466
19.5753 11.424
19.5904 11.509
19.6056 11.691
19.6208 11.712
19.6360 11.669
19.6511 11.513
19.6663 11.608
19.6815 11.811
19.6967 11.649
19.7118 11.456
19.7270 11.567
19.7422 11.685
19.7574 11.699
19.7725 11.695
19.7877 11.714
19.8029 12.018
19.8180 12.151
19.8332 11.968
19.8484 11.905
19.8636 12.041
19.8787 12.371
19.8939 12.770
19.9091 13.060
19.9243 13.345
19.9394 13.800
19.9546 14.054
19.9698 14.357
19.9850 14.377
20.0001 14.254
20.0153 14.207
20.0305 13.916
20.0457 13.915
20.0608 13.754
20.0760 13.888
20.0912 14.126
20.1064 13.912
20.1215 13.673
20.1367 13.244
20.1519 12.910
20.1671 12.931
20.1822 12.878
20.1974 12.828
20.2126 12.922
20.2278 12.743
20.2429 12.676
20.2581 12.375
20.2733 12.378
20.2885 12.105
20.3036 11.727
20.3188 11.788
20.3340 11.871
20.3492 11.547
20.3643 11.408
20.3795 11.392
20.3947 11.146
20.4099 10.987
20.4250 10.972
20.4402 10.931
20.4554 10.920
20.4706 10.586
20.4857 10.723
20.5009 10.871
20.5161 10.837
20.5313 10.771
20.5464 10.817
20.5616 10.799
20.5768 10.732
20.5920 10.911
20.6071 11.018
20.6223 11.085
20.6375 10.642
20.6527 10.617
20.6678 10.684
20.6830 10.464
20.6982 10.535
20.7134 10.620
20.7285 10.700
20.7437 10.797
20.7589 10.586
20.7741 10.396
20.7892 10.328
20.8044 10.293
20.8196 10.310
20.8348 10.338
20.8499 10.148
20.8651 10.163
20.8803 10.120
20.8955 10.168
20.9106 10.096
20.9258 10.086
20.9410 10.242
20.9562 10.034
20.9713 10.299
20.9865 10.048
21.0017 10.078
21.0169 9.811
21.0320 9.870
21.0472 9.804
21.0624 9.988
21.0776 10.195
21.0927 9.834
21.1079 9.592
21.1231 9.952
21.1383 10.140
21.1534 10.034
21.1686 10.155
21.1838 9.681
21.1990 9.540
21.2141 9.702
21.2293 9.555
21.2445 9.787
21.2597 9.475
21.2748 10.048
21.2900 9.592
21.3052 9.792
21.3204 9.587
21.3355 9.396
21.3507 9.660
21.3659 9.729
21.3811 9.601
21.3962 9.454
21.4114 9.356
21.4266 9.713
21.4418 9.869
21.4569 9.319
21.4721 9.241
21.4873 9.185
21.5025 9.493
21.5176 9.112
21.5328 9.069
21.5480 9.326
21.5632 9.224
21.5783 9.159
21.5935 9.261
21.6087 9.426
21.6239 8.894
21.6390 8.983
21.6542 9.142
21.6694 9.276
21.6846 9.130
21.6997 9.273
21.7149 9.289
21.7301 9.243
21.7453 9.024
21.7604 9.292
21.7756 9.389
21.7908 9.075
21.8060 8.946
21.8211 8.972
21.8363 9.092
21.8515 9.108
21.8667 9.036
21.8818 9.148
21.8970 9.045
21.9122 9.033
21.9274 9.087
21.9425 9.156
21.9577 9.184
21.9729 8.892
21.9881 8.877
22.0032 8.990
22.0184 9.146
22.0336 8.873
22.0488 8.656
22.0639 8.796
22.0791 8.950
22.0943 8.974
22.1095 8.900
22.1246 8.824
22.1398 8.808
22.1550 8.713
22.1702 8.786
22.1853 8.705
22.2005 8.629
22.2157 8.770
22.2309 9.015
22.2460 8.800
22.2612 8.855
22.2764 8.739
22.2916 8.696
22.3067 8.842
22.3219 8.771
22.3371 8.935
22.3523 8.804
22.3674 8.639
22.3826 8.401
22.3978 8.462
22.4130 8.465
22.4281 8.567
22.4433 8.697
22.4585 8.537
22.4737 8.693
22.4888 8.472
22.5040 8.340
22.5192 8.663
22.5344 8.191
22.5495 8.478
22.5647 8.549
22.5799 8.655
22.5951 8.643
22.6102 8.504
22.6254 8.144
22.6406 8.723
22.6558 8.606
22.6709 8.643
22.6861 8.372
22.7013 8.321
22.7165 8.129
22.7316 6.534
