'Id: "" Comment: "" Operator: "Lab Manager" Anode: "Mo" Scantype: "Still (Eiger2R_500K (1D mode))" TimePerStep: "300" X: "11.8" Y: "9.4" Z: "11.284" 
7.2532 19.260
7.2684 18.808
7.2836 18.592
7.2987 18.726
7.3139 18.588
7.3291 18.756
7.3443 18.526
7.3594 19.362
7.3746 19.288
7.3898 19.415
7.4050 19.655
7.4201 19.600
7.4353 19.255
7.4505 19.274
7.4657 19.151
7.4808 19.466
7.4960 19.689
7.5112 19.370
7.5264 19.652
7.5415 19.632
7.5567 19.758
7.5719 19.725
7.5871 19.772
7.6022 19.797
7.6174 19.903
7.6326 19.935
7.6478 20.058
7.6629 20.028
7.6781 20.183
7.6933 20.091
7.7085 20.025
7.7236 20.065
7.7388 20.084
7.7540 19.927
7.7692 20.405
7.7843 20.524
7.7995 20.346
7.8147 20.400
7.8299 20.626
7.8450 20.629
7.8602 20.731
7.8754 20.914
7.8905 20.694
7.9057 20.439
7.9209 20.635
7.9361 20.851
7.9512 21.084
7.9664 20.842
7.9816 20.836
7.9968 20.862
8.0119 20.686
8.0271 20.722
8.0423 20.782
8.0575 20.702
8.0726 20.991
8.0878 21.320
8.1030 21.248
8.1182 21.237
8.1333 21.304
8.1485 21.270
8.1637 21.244
8.1789 21.688
8.1940 21.613
8.2092 21.365
8.2244 21.401
8.2396 21.200
8.2547 21.505
8.2699 21.614
8.2851 21.338
8.3003 21.420
8.3154 21.599
8.3306 21.474
8.3458 21.541
8.3610 21.779
8.3761 22.021
8.3913 21.870
8.4065 21.954
8.4217 21.412
8.4368 22.000
8.4520 22.469
8.4672 22.054
8.4824 21.807
8.4975 21.663
8.5127 22.191
8.5279 22.288
8.5431 21.775
8.5582 22.760
8.5734 21.388
8.5886 22.141
8.6038 22.213
8.6189 21.762
8.6341 22.449
8.6493 22.327
8.6645 22.244
8.6796 22.178
8.6948 22.305
8.7100 22.364
8.7252 21.937
8.7403 22.087
8.7555 22.146
8.7707 21.931
8.7859 22.358
8.8010 22.537
8.8162 21.942
8.8314 22.402
8.8466 21.935
8.8617 21.709
8.8769 22.195
8.8921 21.941
8.9073 22.479
8.9224 22.445
8.9376 22.635
8.9528 22.950
8.9680 22.789
8.9831 22.677
8.9983 22.480
9.0135 22.430
9.0287 22.533
9.0438 22.421
9.0590 22.527
9.0742 22.729
9.0894 22.598
9.1045 22.117
9.1197 22.464
9.1349 22.575
9.1501 22.656
9.1652 22.544
9.1804 22.312
9.1956 22.586
9.2108 22.967
9.2259 22.462
9.2411 22.962
9.2563 22.644
9.2715 22.517
9.2866 22.562
9.3018 22.529
9.3170 22.725
9.3322 22.768
9.3473 22.884
9.3625 22.701
9.3777 22.874
9.3929 22.810
9.4080 22.898
9.4232 22.884
9.4384 23.067
9.4536 22.868
9.4687 22.958
9.4839 23.082
9.4991 22.934
9.5143 22.833
9.5294 22.832
9.5446 22.769
9.5598 23.271
9.5750 23.147
9.5901 22.622
9.6053 22.788
9.6205 22.982
9.6357 22.970
9.6508 23.112
9.6660 23.436
9.6812 23.554
9.6964 23.749
9.7115 23.812
9.7267 24.013
9.7419 24.063
9.7571 23.882
9.7722 23.649
9.7874 23.226
9.8026 23.377
9.8178 23.520
9.8329 23.270
9.8481 23.268
9.8633 23.041
9.8785 22.902
9.8936 23.294
9.9088 23.358
9.9240 23.287
9.9392 23.551
9.9543 23.511
9.9695 23.404
9.9847 23.147
9.9999 23.133
10.0150 23.466
10.0302 23.086
10.0454 23.201
10.0606 23.247
10.0757 23.236
10.0909 23.220
10.1061 22.997
10.1213 22.794
10.1364 23.001
10.1516 23.068
10.1668 23.078
10.1820 23.331
10.1971 23.249
10.2123 23.082
10.2275 22.973
10.2427 22.975
10.2578 22.828
10.2730 22.831
10.2882 23.048
10.3034 22.885
10.3185 22.628
10.3337 22.401
10.3489 22.608
10.3641 22.744
10.3792 22.648
10.3944 22.498
10.4096 22.558
10.4248 22.761
10.4399 22.580
10.4551 22.623
10.4703 22.403
10.4855 22.484
10.5006 22.422
10.5158 22.253
10.5310 22.517
10.5462 22.259
10.5613 22.281
10.5765 22.322
10.5917 22.369
10.6069 22.626
10.6220 22.477
10.6372 22.392
10.6524 22.386
10.6676 22.687
10.6827 22.651
10.6979 22.141
10.7131 22.111
10.7283 22.740
10.7434 22.643
10.7586 22.428
10.7738 22.376
10.7890 21.843
10.8041 21.921
10.8193 21.991
10.8345 21.975
10.8497 22.000
10.8648 22.176
10.8800 22.210
10.8952 22.202
10.9104 22.279
10.9255 22.397
10.9407 22.118
10.9559 21.756
10.9711 21.709
10.9862 21.937
11.0014 22.129
11.0166 22.129
11.0318 22.096
11.0469 21.990
11.0621 21.814
11.0773 21.925
11.0925 21.845
11.1076 22.010
11.1228 22.165
11.1380 21.583
11.1532 21.466
11.1683 21.477
11.1835 21.434
11.1987 21.621
11.2139 21.657
11.2290 21.650
11.2442 21.490
11.2594 21.613
11.2746 21.628
11.2897 21.397
11.3049 21.219
11.3201 21.352
11.3353 21.451
11.3504 21.521
11.3656 21.295
11.3808 21.451
11.3960 21.118
11.4111 21.354
11.4263 21.188
11.4415 21.297
11.4567 21.311
11.4718 21.034
11.4870 21.004
11.5022 20.817
11.5174 21.044
11.5325 21.037
11.5477 20.758
11.5629 20.911
11.5781 20.966
11.5932 21.065
11.6084 20.735
11.6236 20.743
11.6388 20.588
11.6539 20.395
11.6691 20.345
11.6843 20.623
11.6995 20.197
11.7146 20.215
11.7298 20.262
11.7450 20.394
11.7602 20.075
11.7753 20.016
11.7905 20.179
11.8057 20.237
11.8209 19.818
11.8360 20.040
11.8512 20.000
11.8664 19.807
11.8816 19.730
11.8967 19.588
11.9119 19.176
11.9271 19.382
11.9423 19.474
11.9574 19.372
11.9726 19.287
11.9878 19.255
12.0030 19.037
12.0181 19.046
12.0333 19.059
12.0485 18.821
12.0637 18.790
12.0788 18.891
12.0940 19.005
12.1092 18.600
12.1244 18.473
12.1395 18.851
12.1547 18.709
12.1699 18.473
12.1851 18.403
12.2002 18.283
12.2154 18.016
12.2306 17.966
12.2458 17.659
12.2609 17.905
12.2761 17.749
12.2913 17.497
12.3065 17.690
12.3216 17.605
12.3368 17.404
12.3520 17.583
12.3672 17.597
12.3823 17.254
12.3975 17.105
12.4127 17.133
12.4279 17.016
12.4430 17.034
12.4582 16.878
12.4734 16.544
12.4886 16.610
12.5037 16.735
12.5189 16.442
12.5341 16.322
12.5493 16.262
12.5644 16.208
12.5796 16.334
12.5948 16.040
12.6100 15.944
12.6251 16.050
12.6403 15.923
12.6555 15.996
12.6707 16.055
12.6858 16.017
12.7010 15.712
12.7162 15.393
12.7314 15.440
12.7465 15.800
12.7617 15.668
12.7769 15.341
12.7921 15.219
12.8072 15.088
12.8224 14.867
12.8376 15.013
12.8528 15.039
12.8679 14.946
12.8831 14.873
12.8983 14.839
12.9135 14.809
12.9286 14.648
12.9438 14.365
12.9590 14.510
12.9742 14.516
12.9893 14.207
13.0045 14.200
13.0197 14.209
13.0349 14.328
13.0500 14.336
13.0652 14.094
13.0804 13.947
13.0956 13.869
13.1107 13.901
13.1259 13.865
13.1411 13.648
13.1563 13.569
13.1714 13.651
13.1866 13.580
13.2018 13.446
13.2170 13.403
13.2321 13.436
13.2473 13.351
13.2625 13.259
13.2777 13.553
13.2928 13.519
13.3080 13.070
13.3232 13.075
13.3384 13.110
13.3535 12.916
13.3687 12.876
13.3839 13.019
13.3991 13.003
13.4142 12.884
13.4294 12.949
13.4446 12.728
13.4598 12.862
13.4749 12.740
13.4901 12.322
13.5053 12.396
13.5205 12.530
13.5356 12.455
13.5508 12.518
13.5660 12.348
13.5812 12.303
13.5963 12.124
13.6115 12.020
13.6267 12.187
13.6419 12.147
13.6570 12.105
13.6722 12.232
13.6874 12.126
13.7026 11.950
13.7177 12.058
13.7329 12.116
13.7481 12.111
13.7633 12.052
13.7784 12.274
13.7936 12.436
13.8088 12.182
13.8239 12.099
13.8391 12.164
13.8543 12.308
13.8695 12.275
13.8846 12.189
13.8998 12.161
13.9150 12.445
13.9302 12.358
13.9453 12.347
13.9605 12.035
13.9757 11.800
13.9909 11.471
14.0060 11.764
14.0212 11.835
14.0364 11.694
14.0516 11.495
14.0667 11.736
14.0819 11.748
14.0971 11.746
14.1123 11.813
14.1274 11.675
14.1426 11.595
14.1578 11.633
14.1730 11.808
14.1881 11.881
14.2033 11.734
14.2185 11.596
14.2337 11.610
14.2488 11.529
14.2640 11.563
14.2792 11.630
14.2944 11.951
14.3095 12.004
14.3247 12.090
14.3399 12.365
14.3551 12.571
14.3702 12.518
14.3854 12.719
14.4006 12.963
14.4158 12.950
14.4309 12.715
14.4461 12.562
14.4613 12.398
14.4765 12.557
14.4916 12.294
14.5068 11.704
14.5220 11.747
14.5372 11.656
14.5523 11.191
14.5675 10.970
14.5827 10.951
14.5979 10.759
14.6130 10.909
14.6282 10.692
14.6434 10.688
14.6586 11.075
14.6737 10.675
14.6889 10.948
14.7041 10.755
14.7193 10.951
14.7344 10.809
14.7496 10.763
14.7648 10.781
14.7800 10.842
14.7951 10.524
14.8103 10.243
14.8255 10.535
14.8407 10.441
14.8558 10.511
14.8710 10.670
14.8862 10.710
14.9014 10.337
14.9165 10.657
14.9317 10.790
14.9469 10.642
14.9621 10.308
14.9772 10.434
14.9924 10.240
15.0076 10.283
15.0228 10.096
15.0379 10.503
15.0531 10.349
15.0683 10.032
15.0835 9.942
15.0986 10.275
15.1138 10.231
15.1290 10.447
15.1442 9.856
15.1593 10.442
15.1745 10.399
15.1897 9.900
15.2049 9.837
15.2200 10.084
15.2352 9.856
15.2504 9.794
15.2656 10.132
15.2807 10.353
15.2959 10.175
15.3111 10.181
15.3263 9.963
15.3414 9.946
15.3566 10.134
15.3718 10.195
15.3870 10.147
15.4021 10.184
15.4173 9.989
15.4325 10.041
15.4477 10.176
15.4628 9.937
15.4780 9.823
15.4932 10.051
15.5084 10.248
15.5235 10.121
15.5387 9.990
15.5539 9.783
15.5691 10.005
15.5842 9.854
15.5994 9.639
15.6146 9.594
15.6298 9.913
15.6449 9.779
15.6601 9.778
15.6753 9.677
15.6905 9.882
15.7056 9.438
15.7208 9.597
15.7360 9.725
15.7512 9.773
15.7663 9.862
15.7815 9.759
15.7967 9.726
15.8119 9.780
15.8270 9.460
15.8422 9.705
15.8574 9.631
15.8726 9.547
15.8877 9.652
15.9029 9.669
15.9181 9.617
15.9333 9.364
15.9484 9.577
15.9636 9.584
15.9788 9.691
15.9940 9.724
16.0091 9.316
16.0243 9.308
16.0395 9.709
16.0547 9.707
16.0698 9.521
16.0850 9.510
16.1002 9.586
16.1154 9.665
16.1305 9.653
16.1457 9.627
16.1609 9.780
16.1761 9.690
16.1912 9.447
16.2064 9.673
16.2216 9.602
16.2368 9.918
16.2519 9.882
16.2671 9.555
16.2823 9.597
16.2975 9.629
16.3126 9.649
16.3278 9.737
16.3430 9.993
16.3582 9.997
16.3733 9.872
16.3885 9.875
16.4037 9.684
16.4189 9.799
16.4340 9.916
16.4492 9.814
16.4644 9.463
16.4796 9.477
16.4947 9.546
16.5099 9.516
16.5251 9.518
16.5403 9.709
16.5554 9.631
16.5706 9.582
16.5858 9.816
16.6010 9.641
16.6161 9.720
16.6313 9.724
16.6465 9.665
16.6617 9.652
16.6768 9.629
16.6920 9.755
16.7072 9.815
16.7224 9.996
16.7375 10.137
16.7527 9.974
16.7679 9.953
16.7831 10.025
16.7982 9.713
16.8134 9.668
16.8286 9.834
16.8438 9.845
16.8589 9.728
16.8741 9.614
16.8893 9.649
16.9045 9.437
16.9196 9.518
16.9348 9.541
16.9500 9.802
16.9652 9.892
16.9803 9.860
16.9955 9.749
17.0107 9.735
17.0259 9.848
17.0410 9.968
17.0562 10.025
17.0714 10.048
17.0866 10.247
17.1017 10.310
17.1169 10.545
17.1321 10.985
17.1473 11.166
17.1624 11.337
17.1776 12.042
17.1928 13.100
17.2080 14.064
17.2231 14.980
17.2383 16.391
17.2535 17.940
17.2687 18.782
17.2838 18.806
17.2990 17.808
17.3142 16.712
17.3294 16.318
17.3445 16.242
17.3597 16.341
17.3749 16.079
17.3901 15.494
17.4052 14.585
17.4204 13.401
17.4356 12.702
17.4508 12.145
17.4659 11.714
17.4811 11.789
17.4963 11.596
17.5115 11.166
17.5266 11.076
17.5418 11.018
17.5570 11.065
17.5722 11.145
17.5873 11.121
17.6025 11.069
17.6177 11.164
17.6329 11.328
17.6480 11.327
17.6632 11.579
17.6784 11.694
17.6936 11.546
17.7087 11.415
17.7239 11.230
17.7391 11.223
17.7543 11.206
17.7694 11.065
17.7846 10.975
17.7998 10.782
17.8150 10.828
17.8301 10.781
17.8453 10.534
17.8605 10.276
17.8757 10.087
17.8908 10.085
17.9060 10.325
17.9212 10.289
17.9364 10.051
17.9515 10.109
17.9667 10.353
17.9819 10.424
17.9971 10.291
18.0122 10.121
18.0274 10.099
18.0426 9.931
18.0578 9.745
18.0729 10.029
18.0881 10.084
18.1033 9.938
18.1185 9.917
18.1336 10.104
18.1488 10.031
18.1640 10.086
18.1792 10.006
18.1943 9.886
18.2095 9.944
18.2247 9.697
18.2399 9.765
18.2550 9.767
18.2702 9.804
18.2854 9.961
18.3006 10.059
18.3157 9.971
18.3309 9.865
18.3461 9.931
18.3613 9.934
18.3764 9.786
18.3916 9.667
18.4068 9.825
18.4220 9.844
18.4371 9.797
18.4523 9.796
18.4675 9.785
18.4827 9.779
18.4978 9.620
18.5130 9.614
18.5282 9.830
18.5434 9.851
18.5585 9.784
18.5737 9.780
18.5889 9.823
18.6041 9.747
18.6192 10.051
18.6344 9.931
18.6496 9.828
18.6648 9.810
18.6799 9.521
18.6951 9.681
18.7103 9.734
18.7255 9.722
18.7406 9.896
18.7558 10.047
18.7710 9.755
18.7862 9.676
18.8013 9.619
18.8165 9.689
18.8317 9.799
18.8469 9.789
18.8620 9.937
18.8772 9.892
18.8924 9.865
18.9076 9.793
18.9227 9.742
18.9379 9.886
18.9531 10.014
18.9683 9.833
18.9834 9.780
18.9986 9.967
19.0138 9.927
19.0290 10.062
19.0441 10.277
19.0593 10.404
19.0745 10.296
19.0897 10.389
19.1048 10.341
19.1200 10.199
19.1352 10.294
19.1504 10.376
19.1655 10.404
19.1807 10.333
19.1959 10.421
19.2111 10.697
19.2262 10.858
19.2414 10.786
19.2566 10.855
19.2718 10.889
19.2869 10.892
19.3021 10.857
19.3173 10.832
19.3325 11.117
19.3476 11.076
19.3628 10.969
19.3780 11.006
19.3932 11.153
19.4083 11.219
19.4235 11.278
19.4387 11.528
19.4539 11.421
19.4690 11.342
19.4842 11.419
19.4994 11.323
19.5146 11.499
19.5297 11.761
19.5449 11.655
19.5601 11.497
19.5753 11.596
19.5904 11.749
19.6056 11.835
19.6208 11.617
19.6360 11.559
19.6511 11.798
19.6663 11.791
19.6815 11.808
19.6967 11.840
19.7118 11.896
19.7270 11.795
19.7422 11.815
19.7574 11.754
19.7725 11.551
19.7877 11.547
19.8029 11.677
19.8180 11.768
19.8332 12.075
19.8484 12.375
19.8636 12.520
19.8787 12.873
19.8939 12.952
19.9091 13.106
19.9243 13.531
19.9394 13.493
19.9546 13.765
19.9698 14.206
19.9850 14.500
20.0001 14.566
20.0153 14.324
20.0305 14.256
20.0457 13.959
20.0608 13.686
20.0760 13.693
20.0912 13.687
20.1064 13.682
20.1215 13.582
20.1367 13.187
20.1519 13.157
20.1671 13.083
20.1822 12.798
20.1974 12.846
20.2126 12.830
20.2278 12.855
20.2429 12.778
20.2581 12.612
20.2733 12.387
20.2885 11.772
20.3036 11.509
20.3188 11.799
20.3340 12.020
20.3492 12.241
20.3643 12.001
20.3795 11.739
20.3947 11.864
20.4099 12.000
20.4250 11.996
20.4402 11.971
20.4554 11.796
20.4706 11.834
20.4857 11.573
20.5009 11.438
20.5161 11.507
20.5313 11.487
20.5464 11.428
20.5616 11.507
20.5768 11.353
20.5920 11.209
20.6071 11.017
20.6223 10.876
20.6375 10.662
20.6527 10.606
20.6678 10.755
20.6830 10.382
20.6982 10.452
20.7134 10.637
20.7285 10.546
20.7437 10.386
20.7589 10.583
20.7741 10.470
20.7892 10.472
20.8044 10.241
20.8196 10.287
20.8348 10.317
20.8499 10.478
20.8651 10.153
20.8803 10.349
20.8955 10.425
20.9106 10.241
20.9258 10.295
20.9410 10.349
20.9562 10.185
20.9713 10.037
20.9865 10.054
21.0017 10.170
21.0169 9.929
21.0320 10.172
21.0472 9.765
21.0624 9.841
21.0776 9.625
21.0927 9.831
21.1079 9.881
21.1231 10.036
21.1383 9.889
21.1534 9.637
21.1686 9.583
21.1838 9.691
21.1990 9.792
21.2141 9.978
21.2293 9.553
21.2445 9.517
21.2597 9.857
21.2748 9.659
21.2900 9.652
21.3052 9.696
21.3204 9.667
21.3355 9.497
21.3507 9.583
21.3659 9.393
21.3811 9.504
21.3962 9.492
21.4114 9.385
21.4266 9.511
21.4418 9.506
21.4569 9.567
21.4721 9.254
21.4873 9.221
21.5025 9.389
21.5176 9.105
21.5328 9.354
21.5480 9.386
21.5632 9.270
21.5783 9.236
21.5935 9.295
21.6087 9.170
21.6239 9.337
21.6390 9.320
21.6542 9.255
21.6694 9.156
21.6846 9.100
21.6997 9.038
21.7149 9.022
21.7301 9.118
21.7453 8.978
21.7604 8.924
21.7756 9.101
21.7908 9.123
21.8060 9.224
21.8211 9.041
21.8363 9.027
21.8515 9.008
21.8667 8.853
21.8818 8.873
21.8970 8.960
21.9122 9.193
21.9274 9.113
21.9425 8.837
21.9577 8.904
21.9729 9.181
21.9881 9.070
22.0032 8.919
22.0184 8.892
22.0336 8.836
22.0488 8.828
22.0639 8.830
22.0791 8.868
22.0943 8.725
22.1095 8.528
22.1246 8.564
22.1398 8.590
22.1550 8.674
22.1702 8.648
22.1853 8.746
22.2005 8.754
22.2157 8.525
22.2309 8.429
22.2460 8.424
22.2612 8.753
22.2764 8.582
22.2916 8.346
22.3067 8.417
22.3219 8.514
22.3371 8.498
22.3523 8.597
22.3674 8.214
22.3826 8.433
22.3978 8.412
22.4130 8.701
22.4281 8.289
22.4433 8.540
22.4585 8.487
22.4737 8.559
22.4888 8.559
22.5040 8.529
22.5192 8.719
22.5344 8.466
22.5495 8.474
22.5647 8.243
22.5799 8.256
22.5951 8.445
22.6102 8.475
22.6254 8.640
22.6406 8.355
22.6558 8.044
22.6709 8.237
22.6861 8.181
22.7013 8.263
22.7165 7.822
22.7316 6.470
