'Id: "" Comment: "" Operator: "Lab Manager" Anode: "Mo" Scantype: "Still (Eiger2R_500K (1D mode))" TimePerStep: "300" X: "11.8" Y: "9.4" Z: "11.284" 
7.2532 18.956
7.2684 19.021
7.2836 19.284
7.2987 18.650
7.3139 18.777
7.3291 19.101
7.3443 18.866
7.3594 19.279
7.3746 18.918
7.3898 18.872
7.4050 19.586
7.4201 19.380
7.4353 19.390
7.4505 19.812
7.4657 19.662
7.4808 19.880
7.4960 19.597
7.5112 19.601
7.5264 19.878
7.5415 19.618
7.5567 19.452
7.5719 19.662
7.5871 19.836
7.6022 19.503
7.6174 19.561
7.6326 19.860
7.6478 19.915
7.6629 20.325
7.6781 20.385
7.6933 20.460
7.7085 20.340
7.7236 19.959
7.7388 20.214
7.7540 20.602
7.7692 20.451
7.7843 20.338
7.7995 20.560
7.8147 20.644
7.8299 20.674
7.8450 20.996
7.8602 21.001
7.8754 20.857
7.8905 20.669
7.9057 20.732
7.9209 21.122
7.9361 20.937
7.9512 20.933
7.9664 20.700
7.9816 20.670
7.9968 20.759
8.0119 20.846
8.0271 21.043
8.0423 21.204
8.0575 21.271
8.0726 21.182
8.0878 21.555
8.1030 21.410
8.1182 21.119
8.1333 21.142
8.1485 21.047
8.1637 21.151
8.1789 21.466
8.1940 21.603
8.2092 21.029
8.2244 21.405
8.2396 21.203
8.2547 21.390
8.2699 21.359
8.2851 21.618
8.3003 21.325
8.3154 21.628
8.3306 21.743
8.3458 21.622
8.3610 21.769
8.3761 21.773
8.3913 21.406
8.4065 22.418
8.4217 21.916
8.4368 21.932
8.4520 22.094
8.4672 22.097
8.4824 22.126
8.4975 22.647
8.5127 21.999
8.5279 22.166
8.5431 22.350
8.5582 22.238
8.5734 21.734
8.5886 22.050
8.6038 21.849
8.6189 22.198
8.6341 22.061
8.6493 22.771
8.6645 22.433
8.6796 21.853
8.6948 21.834
8.7100 22.568
8.7252 21.975
8.7403 22.535
8.7555 22.191
8.7707 22.400
8.7859 22.713
8.8010 22.284
8.8162 22.601
8.8314 22.537
8.8466 22.287
8.8617 22.752
8.8769 22.471
8.8921 22.640
8.9073 21.965
8.9224 22.199
8.9376 22.554
8.9528 23.240
8.9680 22.672
8.9831 22.324
8.9983 22.442
9.0135 22.213
9.0287 22.469
9.0438 22.721
9.0590 22.579
9.0742 22.663
9.0894 22.871
9.1045 23.005
9.1197 22.781
9.1349 22.747
9.1501 22.827
9.1652 23.264
9.1804 22.832
9.1956 22.799
9.2108 22.876
9.2259 23.173
9.2411 23.120
9.2563 22.646
9.2715 22.804
9.2866 22.631
9.3018 22.713
9.3170 22.913
9.3322 22.894
9.3473 22.866
9.3625 23.061
9.3777 22.908
9.3929 22.713
9.4080 23.336
9.4232 23.194
9.4384 23.116
9.4536 22.892
9.4687 22.876
9.4839 23.152
9.4991 23.237
9.5143 22.861
9.5294 23.020
9.5446 23.248
9.5598 23.351
9.5750 23.151
9.5901 23.228
9.6053 23.373
9.6205 23.372
9.6357 23.304
9.6508 23.592
9.6660 23.690
9.6812 23.330
9.6964 23.473
9.7115 23.939
9.7267 23.914
9.7419 23.855
9.7571 23.971
9.7722 23.577
9.7874 23.543
9.8026 23.778
9.8178 23.850
9.8329 23.797
9.8481 23.645
9.8633 23.316
9.8785 23.128
9.8936 23.289
9.9088 22.977
9.9240 22.743
9.9392 22.808
9.9543 22.995
9.9695 23.379
9.9847 23.333
9.9999 23.278
10.0150 23.403
10.0302 23.436
10.0454 23.163
10.0606 23.248
10.0757 23.495
10.0909 23.212
10.1061 23.273
10.1213 23.704
10.1364 23.951
10.1516 23.822
10.1668 23.346
10.1820 23.349
10.1971 23.524
10.2123 23.158
10.2275 23.274
10.2427 23.429
10.2578 23.686
10.2730 23.322
10.2882 22.901
10.3034 22.703
10.3185 22.556
10.3337 22.702
10.3489 22.972
10.3641 22.732
10.3792 22.765
10.3944 22.767
10.4096 22.577
10.4248 22.855
10.4399 22.769
10.4551 22.459
10.4703 22.324
10.4855 22.150
10.5006 22.389
10.5158 22.502
10.5310 22.372
10.5462 22.682
10.5613 22.923
10.5765 22.639
10.5917 22.826
10.6069 22.951
10.6220 23.009
10.6372 22.832
10.6524 22.885
10.6676 22.936
10.6827 22.736
10.6979 22.641
10.7131 22.382
10.7283 22.393
10.7434 22.225
10.7586 22.055
10.7738 22.251
10.7890 22.165
10.8041 22.040
10.8193 22.176
10.8345 22.399
10.8497 21.813
10.8648 21.844
10.8800 22.288
10.8952 21.997
10.9104 22.027
10.9255 22.452
10.9407 22.331
10.9559 21.632
10.9711 21.711
10.9862 21.946
11.0014 21.900
11.0166 21.822
11.0318 21.879
11.0469 21.884
11.0621 21.710
11.0773 21.904
11.0925 21.832
11.1076 21.770
11.1228 22.080
11.1380 21.879
11.1532 21.897
11.1683 22.108
11.1835 21.951
11.1987 21.702
11.2139 21.628
11.2290 21.764
11.2442 21.746
11.2594 21.688
11.2746 21.541
11.2897 21.346
11.3049 21.556
11.3201 21.685
11.3353 21.631
11.3504 21.803
11.3656 21.892
11.3808 21.536
11.3960 21.015
11.4111 21.302
11.4263 21.339
11.4415 21.356
11.4567 21.312
11.4718 21.388
11.4870 20.869
11.5022 21.185
11.5174 21.350
11.5325 21.240
11.5477 21.199
11.5629 21.170
11.5781 21.051
11.5932 21.086
11.6084 20.985
11.6236 20.779
11.6388 20.514
11.6539 20.444
11.6691 20.479
11.6843 20.922
11.6995 20.816
11.7146 20.765
11.7298 20.456
11.7450 20.710
11.7602 20.754
11.7753 20.454
11.7905 20.264
11.8057 20.243
11.8209 20.267
11.8360 19.972
11.8512 19.983
11.8664 19.827
11.8816 19.620
11.8967 19.428
11.9119 19.324
11.9271 19.715
11.9423 19.362
11.9574 19.437
11.9726 19.387
11.9878 19.287
12.0030 19.082
12.0181 19.174
12.0333 18.897
12.0485 19.164
12.0637 19.053
12.0788 18.913
12.0940 18.867
12.1092 18.801
12.1244 18.280
12.1395 18.579
12.1547 18.772
12.1699 18.598
12.1851 18.331
12.2002 18.184
12.2154 18.269
12.2306 18.205
12.2458 18.135
12.2609 18.317
12.2761 18.108
12.2913 17.910
12.3065 17.723
12.3216 17.528
12.3368 17.233
12.3520 17.511
12.3672 17.358
12.3823 17.050
12.3975 17.096
12.4127 17.140
12.4279 17.151
12.4430 17.250
12.4582 17.013
12.4734 16.748
12.4886 16.606
12.5037 16.603
12.5189 16.718
12.5341 16.520
12.5493 16.568
12.5644 16.538
12.5796 16.494
12.5948 16.285
12.6100 15.966
12.6251 16.071
12.6403 16.132
12.6555 15.928
12.6707 15.750
12.6858 15.735
12.7010 15.680
12.7162 15.840
12.7314 15.611
12.7465 15.439
12.7617 15.443
12.7769 15.314
12.7921 15.250
12.8072 15.244
12.8224 15.138
12.8376 15.095
12.8528 14.968
12.8679 14.925
12.8831 14.886
12.8983 15.016
12.9135 14.907
12.9286 14.573
12.9438 14.429
12.9590 14.412
12.9742 14.550
12.9893 14.367
13.0045 14.318
13.0197 14.391
13.0349 14.234
13.0500 14.074
13.0652 14.047
13.0804 14.006
13.0956 13.877
13.1107 13.766
13.1259 13.512
13.1411 13.492
13.1563 13.792
13.1714 13.885
13.1866 13.707
13.2018 13.647
13.2170 13.433
13.2321 13.129
13.2473 13.174
13.2625 13.386
13.2777 13.494
13.2928 13.368
13.3080 13.184
13.3232 13.201
13.3384 13.363
13.3535 13.304
13.3687 13.107
13.3839 13.080
13.3991 13.144
13.4142 12.947
13.4294 12.980
13.4446 13.033
13.4598 12.910
13.4749 12.743
13.4901 12.638
13.5053 12.543
13.5205 12.436
13.5356 12.488
13.5508 12.541
13.5660 12.525
13.5812 12.498
13.5963 12.344
13.6115 12.308
13.6267 12.300
13.6419 12.199
13.6570 12.166
13.6722 12.111
13.6874 11.914
13.7026 11.957
13.7177 12.024
13.7329 11.995
13.7481 11.864
13.7633 12.058
13.7784 12.215
13.7936 12.107
13.8088 12.199
13.8239 12.284
13.8391 12.415
13.8543 12.130
13.8695 12.185
13.8846 12.296
13.8998 12.343
13.9150 12.322
13.9302 11.942
13.9453 12.262
13.9605 12.183
13.9757 11.561
13.9909 11.473
14.0060 11.651
14.0212 11.611
14.0364 11.549
14.0516 11.695
14.0667 11.551
14.0819 11.643
14.0971 11.541
14.1123 11.532
14.1274 11.380
14.1426 11.562
14.1578 11.708
14.1730 11.597
14.1881 11.700
14.2033 11.758
14.2185 11.534
14.2337 11.925
14.2488 11.927
14.2640 12.058
14.2792 12.051
14.2944 12.079
14.3095 11.959
14.3247 12.062
14.3399 12.616
14.3551 12.499
14.3702 12.796
14.3854 13.291
14.4006 13.077
14.4158 13.197
14.4309 13.157
14.4461 12.980
14.4613 12.627
14.4765 12.526
14.4916 12.155
14.5068 12.228
14.5220 11.865
14.5372 11.737
14.5523 11.400
14.5675 11.216
14.5827 11.209
14.5979 11.114
14.6130 10.871
14.6282 11.134
14.6434 10.885
14.6586 10.755
14.6737 10.969
14.6889 10.862
14.7041 10.982
14.7193 10.856
14.7344 10.710
14.7496 10.768
14.7648 10.687
14.7800 10.607
14.7951 10.578
14.8103 10.825
14.8255 10.561
14.8407 10.387
14.8558 10.621
14.8710 10.429
14.8862 10.531
14.9014 10.765
14.9165 11.046
14.9317 10.745
14.9469 10.540
14.9621 10.450
14.9772 10.185
14.9924 10.655
15.0076 10.491
15.0228 10.380
15.0379 10.216
15.0531 10.636
15.0683 10.253
15.0835 10.143
15.0986 10.450
15.1138 10.690
15.1290 10.514
15.1442 10.522
15.1593 10.115
15.1745 10.344
15.1897 10.598
15.2049 10.119
15.2200 10.344
15.2352 10.332
15.2504 9.974
15.2656 10.307
15.2807 10.430
15.2959 10.556
15.3111 9.965
15.3263 10.012
15.3414 10.153
15.3566 10.531
15.3718 10.306
15.3870 10.255
15.4021 10.349
15.4173 10.453
15.4325 10.042
15.4477 9.917
15.4628 9.844
15.4780 10.047
15.4932 10.278
15.5084 9.944
15.5235 10.594
15.5387 10.156
15.5539 10.075
15.5691 10.088
15.5842 9.881
15.5994 9.927
15.6146 10.086
15.6298 9.881
15.6449 10.036
15.6601 9.770
15.6753 9.660
15.6905 9.785
15.7056 9.950
15.7208 9.906
15.7360 9.828
15.7512 9.428
15.7663 9.732
15.7815 9.851
15.7967 9.763
15.8119 9.689
15.8270 9.990
15.8422 9.711
15.8574 9.814
15.8726 9.532
15.8877 9.533
15.9029 9.454
15.9181 9.494
15.9333 9.792
15.9484 9.503
15.9636 9.431
15.9788 9.780
15.9940 9.483
16.0091 9.603
16.0243 9.539
16.0395 9.894
16.0547 9.841
16.0698 9.660
16.0850 9.754
16.1002 9.715
16.1154 9.521
16.1305 9.507
16.1457 9.737
16.1609 9.596
16.1761 9.533
16.1912 9.701
16.2064 9.822
16.2216 9.665
16.2368 10.048
16.2519 10.244
16.2671 9.935
16.2823 9.722
16.2975 9.718
16.3126 9.932
16.3278 10.081
16.3430 10.129
16.3582 9.942
16.3733 10.082
16.3885 9.918
16.4037 9.888
16.4189 9.928
16.4340 10.030
16.4492 9.977
16.4644 9.575
16.4796 9.756
16.4947 9.768
16.5099 9.577
16.5251 9.620
16.5403 9.498
16.5554 9.796
16.5706 9.795
16.5858 9.652
16.6010 9.558
16.6161 9.707
16.6313 9.979
16.6465 9.812
16.6617 9.570
16.6768 9.699
16.6920 9.751
16.7072 10.051
16.7224 10.292
16.7375 10.005
16.7527 9.767
16.7679 9.786
16.7831 9.938
16.7982 9.935
16.8134 10.060
16.8286 9.901
16.8438 9.836
16.8589 10.027
16.8741 9.944
16.8893 10.087
16.9045 10.098
16.9196 9.838
16.9348 9.727
16.9500 9.784
16.9652 9.901
16.9803 9.807
16.9955 9.944
17.0107 9.937
17.0259 9.788
17.0410 9.946
17.0562 10.003
17.0714 10.035
17.0866 10.334
17.1017 10.443
17.1169 10.708
17.1321 10.988
17.1473 11.197
17.1624 11.817
17.1776 12.292
17.1928 12.932
17.2080 13.876
17.2231 14.846
17.2383 16.073
17.2535 17.328
17.2687 18.499
17.2838 19.055
17.2990 18.381
17.3142 17.011
17.3294 16.599
17.3445 16.603
17.3597 16.190
17.3749 15.847
17.3901 15.325
17.4052 14.323
17.4204 13.340
17.4356 12.667
17.4508 12.153
17.4659 11.928
17.4811 11.772
17.4963 11.629
17.5115 11.613
17.5266 11.501
17.5418 11.061
17.5570 10.999
17.5722 11.301
17.5873 11.224
17.6025 11.189
17.6177 11.353
17.6329 11.167
17.6480 11.156
17.6632 11.472
17.6784 11.752
17.6936 11.812
17.7087 11.560
17.7239 11.348
17.7391 11.133
17.7543 10.913
17.7694 11.012
17.7846 11.040
17.7998 10.911
17.8150 10.572
17.8301 10.485
17.8453 10.514
17.8605 10.273
17.8757 10.249
17.8908 10.267
17.9060 10.307
17.9212 10.370
17.9364 10.252
17.9515 10.087
17.9667 10.010
17.9819 10.235
17.9971 10.397
18.0122 10.395
18.0274 10.310
18.0426 10.170
18.0578 10.023
18.0729 10.055
18.0881 10.049
18.1033 10.068
18.1185 10.269
18.1336 10.295
18.1488 10.027
18.1640 9.944
18.1792 9.843
18.1943 9.956
18.2095 9.970
18.2247 10.039
18.2399 9.900
18.2550 9.827
18.2702 9.915
18.2854 9.953
18.3006 9.820
18.3157 9.807
18.3309 9.867
18.3461 10.011
18.3613 10.003
18.3764 9.858
18.3916 9.680
18.4068 9.504
18.4220 10.004
18.4371 10.033
18.4523 9.856
18.4675 10.060
18.4827 10.038
18.4978 10.065
18.5130 10.005
18.5282 9.798
18.5434 9.914
18.5585 10.033
18.5737 9.647
18.5889 9.620
18.6041 9.767
18.6192 9.927
18.6344 9.719
18.6496 9.676
18.6648 9.788
18.6799 9.933
18.6951 9.750
18.7103 9.599
18.7255 9.672
18.7406 9.849
18.7558 9.906
18.7710 9.706
18.7862 9.712
18.8013 9.646
18.8165 9.476
18.8317 9.540
18.8469 9.832
18.8620 10.004
18.8772 9.938
18.8924 9.841
18.9076 10.038
18.9227 10.006
18.9379 9.783
18.9531 9.746
18.9683 9.832
18.9834 10.018
18.9986 10.023
19.0138 9.978
19.0290 9.952
19.0441 10.100
19.0593 10.202
19.0745 10.076
19.0897 10.129
19.1048 10.172
19.1200 10.387
19.1352 10.438
19.1504 10.580
19.1655 10.555
19.1807 10.379
19.1959 10.545
19.2111 10.624
19.2262 10.697
19.2414 10.758
19.2566 10.675
19.2718 10.799
19.2869 10.789
19.3021 10.620
19.3173 10.929
19.3325 11.093
19.3476 11.047
19.3628 11.135
19.3780 11.130
19.3932 11.151
19.4083 11.148
19.4235 11.115
19.4387 11.254
19.4539 11.397
19.4690 11.236
19.4842 11.414
19.4994 11.533
19.5146 11.359
19.5297 11.350
19.5449 11.786
19.5601 11.891
19.5753 11.607
19.5904 11.449
19.6056 11.309
19.6208 11.442
19.6360 11.636
19.6511 11.556
19.6663 11.675
19.6815 11.829
19.6967 11.834
19.7118 11.707
19.7270 11.647
19.7422 11.568
19.7574 11.666
19.7725 12.011
19.7877 12.015
19.8029 12.028
19.8180 12.143
19.8332 12.159
19.8484 12.198
19.8636 12.433
19.8787 12.700
19.8939 12.888
19.9091 13.096
19.9243 13.245
19.9394 13.743
19.9546 14.199
19.9698 14.503
19.9850 14.571
20.0001 14.548
20.0153 14.095
20.0305 13.720
20.0457 13.860
20.0608 13.897
20.0760 13.742
20.0912 13.631
20.1064 13.603
20.1215 13.342
20.1367 13.158
20.1519 13.076
20.1671 13.124
20.1822 12.708
20.1974 12.649
20.2126 12.799
20.2278 13.082
20.2429 12.986
20.2581 12.633
20.2733 12.585
20.2885 12.278
20.3036 12.048
20.3188 11.924
20.3340 11.716
20.3492 11.997
20.3643 12.067
20.3795 11.898
20.3947 12.009
20.4099 12.058
20.4250 12.264
20.4402 12.135
20.4554 12.041
20.4706 11.916
20.4857 11.947
20.5009 11.793
20.5161 11.599
20.5313 11.486
20.5464 11.560
20.5616 11.387
20.5768 11.050
20.5920 11.319
20.6071 10.965
20.6223 10.832
20.6375 10.806
20.6527 10.677
20.6678 10.658
20.6830 10.295
20.6982 10.270
20.7134 10.621
20.7285 10.355
20.7437 10.544
20.7589 10.463
20.7741 10.328
20.7892 10.029
20.8044 10.323
20.8196 10.524
20.8348 10.379
20.8499 10.279
20.8651 10.469
20.8803 10.211
20.8955 10.199
20.9106 10.273
20.9258 10.222
20.9410 10.258
20.9562 10.142
20.9713 9.976
20.9865 10.202
21.0017 9.820
21.0169 9.786
21.0320 9.847
21.0472 9.981
21.0624 10.295
21.0776 9.908
21.0927 9.890
21.1079 9.976
21.1231 9.588
21.1383 9.662
21.1534 9.791
21.1686 9.911
21.1838 9.810
21.1990 9.691
21.2141 9.611
21.2293 9.349
21.2445 9.801
21.2597 9.663
21.2748 9.390
21.2900 9.705
21.3052 9.631
21.3204 9.917
21.3355 9.620
21.3507 9.313
21.3659 9.525
21.3811 9.336
21.3962 9.299
21.4114 9.278
21.4266 9.379
21.4418 9.333
21.4569 9.746
21.4721 9.166
21.4873 9.511
21.5025 9.330
21.5176 9.507
21.5328 9.047
21.5480 9.247
21.5632 9.387
21.5783 9.341
21.5935 9.093
21.6087 9.432
21.6239 9.118
21.6390 9.050
21.6542 9.110
21.6694 9.067
21.6846 9.231
21.6997 9.041
21.7149 8.934
21.7301 9.312
21.7453 9.100
21.7604 9.089
21.7756 9.168
21.7908 9.147
21.8060 9.077
21.8211 9.011
21.8363 9.049
21.8515 9.083
21.8667 9.116
21.8818 9.032
21.8970 8.973
21.9122 9.056
21.9274 9.008
21.9425 8.942
21.9577 8.972
21.9729 8.792
21.9881 8.938
22.0032 9.074
22.0184 8.932
22.0336 9.013
22.0488 8.962
22.0639 8.820
22.0791 8.853
22.0943 8.949
22.1095 8.862
22.1246 8.674
22.1398 8.649
22.1550 8.703
22.1702 8.666
22.1853 8.748
22.2005 8.723
22.2157 8.595
22.2309 8.583
22.2460 8.484
22.2612 8.512
22.2764 8.584
22.2916 8.726
22.3067 8.649
22.3219 8.471
22.3371 8.501
22.3523 8.477
22.3674 8.517
22.3826 8.338
22.3978 8.456
22.4130 8.209
22.4281 8.344
22.4433 8.396
22.4585 8.564
22.4737 8.484
22.4888 8.410
22.5040 8.512
22.5192 8.682
22.5344 8.455
22.5495 8.193
22.5647 8.425
22.5799 8.521
22.5951 8.775
22.6102 8.324
22.6254 8.326
22.6406 8.486
22.6558 8.484
22.6709 8.396
22.6861 8.517
22.7013 8.174
22.7165 7.997
22.7316 6.590
