'Id: "" Comment: "" Operator: "Lab Manager" Anode: "Mo" Scantype: "Still (Eiger2R_500K (1D mode))" TimePerStep: "300" X: "11.8" Y: "9.4" Z: "11.284" 
7.2532 18.690
7.2684 19.169
7.2836 18.959
7.2987 18.859
7.3139 18.531
7.3291 18.908
7.3443 19.381
7.3594 19.337
7.3746 19.500
7.3898 19.838
7.4050 19.825
7.4201 19.490
7.4353 19.307
7.4505 19.311
7.4657 19.273
7.4808 19.379
7.4960 19.279
7.5112 19.669
7.5264 19.911
7.5415 19.835
7.5567 19.371
7.5719 20.114
7.5871 20.269
7.6022 20.477
7.6174 20.220
7.6326 19.959
7.6478 19.917
7.6629 20.132
7.6781 20.172
7.6933 20.060
7.7085 20.072
7.7236 20.303
7.7388 20.366
7.7540 20.444
7.7692 20.704
7.7843 20.520
7.7995 20.559
7.8147 20.842
7.8299 20.857
7.8450 20.615
7.8602 20.512
7.8754 20.694
7.8905 21.151
7.9057 21.138
7.9209 20.898
7.9361 21.233
7.9512 21.227
7.9664 20.823
7.9816 20.765
7.9968 21.315
8.0119 21.542
8.0271 21.464
8.0423 20.926
8.0575 21.135
8.0726 20.945
8.0878 21.263
8.1030 21.006
8.1182 20.989
8.1333 21.144
8.1485 21.249
8.1637 21.543
8.1789 21.747
8.1940 21.318
8.2092 21.350
8.2244 21.577
8.2396 21.464
8.2547 21.160
8.2699 21.982
8.2851 22.025
8.3003 21.898
8.3154 21.849
8.3306 21.507
8.3458 21.676
8.3610 21.818
8.3761 21.916
8.3913 22.110
8.4065 21.839
8.4217 21.587
8.4368 22.126
8.4520 22.434
8.4672 21.583
8.4824 22.100
8.4975 22.163
8.5127 22.282
8.5279 22.018
8.5431 22.388
8.5582 22.452
8.5734 21.718
8.5886 22.364
8.6038 22.298
8.6189 22.081
8.6341 22.292
8.6493 22.258
8.6645 22.035
8.6796 22.370
8.6948 22.422
8.7100 22.759
8.7252 23.011
8.7403 22.469
8.7555 22.573
8.7707 22.685
8.7859 22.976
8.8010 22.321
8.8162 22.572
8.8314 22.519
8.8466 22.352
8.8617 22.530
8.8769 22.829
8.8921 22.182
8.9073 22.699
8.9224 22.619
8.9376 22.646
8.9528 22.850
8.9680 22.631
8.9831 22.437
8.9983 22.466
9.0135 22.626
9.0287 22.754
9.0438 22.653
9.0590 22.803
9.0742 22.359
9.0894 22.470
9.1045 23.018
9.1197 22.768
9.1349 22.779
9.1501 22.710
9.1652 22.897
9.1804 23.251
9.1956 22.832
9.2108 23.372
9.2259 22.872
9.2411 22.902
9.2563 22.854
9.2715 23.262
9.2866 23.222
9.3018 23.123
9.3170 23.298
9.3322 23.290
9.3473 23.298
9.3625 23.186
9.3777 23.224
9.3929 23.199
9.4080 23.185
9.4232 23.230
9.4384 23.210
9.4536 23.519
9.4687 23.316
9.4839 23.308
9.4991 23.145
9.5143 23.258
9.5294 23.242
9.5446 22.939
9.5598 23.039
9.5750 23.282
9.5901 23.787
9.6053 23.731
9.6205 23.256
9.6357 23.112
9.6508 23.889
9.6660 24.102
9.6812 23.567
9.6964 23.754
9.7115 24.179
9.7267 24.332
9.7419 24.453
9.7571 24.226
9.7722 23.871
9.7874 23.760
9.8026 23.720
9.8178 23.738
9.8329 23.662
9.8481 23.709
9.8633 23.614
9.8785 23.642
9.8936 23.644
9.9088 23.578
9.9240 23.595
9.9392 23.559
9.9543 23.581
9.9695 23.327
9.9847 23.223
9.9999 23.392
10.0150 23.479
10.0302 23.336
10.0454 23.367
10.0606 23.252
10.0757 23.218
10.0909 23.334
10.1061 23.366
10.1213 23.335
10.1364 23.134
10.1516 23.153
10.1668 23.287
10.1820 23.485
10.1971 23.164
10.2123 22.990
10.2275 23.172
10.2427 23.146
10.2578 23.096
10.2730 23.135
10.2882 23.051
10.3034 22.703
10.3185 22.931
10.3337 23.071
10.3489 22.994
10.3641 23.295
10.3792 23.246
10.3944 23.089
10.4096 23.129
10.4248 22.995
10.4399 22.704
10.4551 22.972
10.4703 22.806
10.4855 22.682
10.5006 22.841
10.5158 22.994
10.5310 22.852
10.5462 22.611
10.5613 22.775
10.5765 22.933
10.5917 22.516
10.6069 22.550
10.6220 22.945
10.6372 22.898
10.6524 22.658
10.6676 22.544
10.6827 22.815
10.6979 23.070
10.7131 22.546
10.7283 22.559
10.7434 22.549
10.7586 22.243
10.7738 22.291
10.7890 22.632
10.8041 22.421
10.8193 22.547
10.8345 22.424
10.8497 22.246
10.8648 22.113
10.8800 22.343
10.8952 22.685
10.9104 22.042
10.9255 22.124
10.9407 22.236
10.9559 22.146
10.9711 22.154
10.9862 22.458
11.0014 22.185
11.0166 22.117
11.0318 22.120
11.0469 22.031
11.0621 21.642
11.0773 22.042
11.0925 21.922
11.1076 21.798
11.1228 21.779
11.1380 21.907
11.1532 22.150
11.1683 21.846
11.1835 21.781
11.1987 21.617
11.2139 21.843
11.2290 21.909
11.2442 21.851
11.2594 21.887
11.2746 21.725
11.2897 21.693
11.3049 21.977
11.3201 21.848
11.3353 21.657
11.3504 21.606
11.3656 21.601
11.3808 21.520
11.3960 21.509
11.4111 21.314
11.4263 21.299
11.4415 21.484
11.4567 21.545
11.4718 21.452
11.4870 21.353
11.5022 21.545
11.5174 21.337
11.5325 21.150
11.5477 20.843
11.5629 20.808
11.5781 20.893
11.5932 20.789
11.6084 20.615
11.6236 21.023
11.6388 21.027
11.6539 20.876
11.6691 20.644
11.6843 20.979
11.6995 20.836
11.7146 20.709
11.7298 20.855
11.7450 20.830
11.7602 20.345
11.7753 20.229
11.7905 20.422
11.8057 19.925
11.8209 19.644
11.8360 19.653
11.8512 19.872
11.8664 20.105
11.8816 20.000
11.8967 20.006
11.9119 20.317
11.9271 19.787
11.9423 19.593
11.9574 19.656
11.9726 19.517
11.9878 19.694
12.0030 19.461
12.0181 19.179
12.0333 19.323
12.0485 19.225
12.0637 19.024
12.0788 18.846
12.0940 19.174
12.1092 18.791
12.1244 18.461
12.1395 18.706
12.1547 18.712
12.1699 18.592
12.1851 18.287
12.2002 18.387
12.2154 18.282
12.2306 18.331
12.2458 18.099
12.2609 17.726
12.2761 17.691
12.2913 17.889
12.3065 17.774
12.3216 17.482
12.3368 17.726
12.3520 17.583
12.3672 17.792
12.3823 17.791
12.3975 17.351
12.4127 17.183
12.4279 17.160
12.4430 17.080
12.4582 17.184
12.4734 17.188
12.4886 16.752
12.5037 16.699
12.5189 16.825
12.5341 16.695
12.5493 16.569
12.5644 16.743
12.5796 16.489
12.5948 16.219
12.6100 16.192
12.6251 16.367
12.6403 16.133
12.6555 15.971
12.6707 15.922
12.6858 15.936
12.7010 15.819
12.7162 15.566
12.7314 15.400
12.7465 15.596
12.7617 15.533
12.7769 15.332
12.7921 15.425
12.8072 15.214
12.8224 15.001
12.8376 14.936
12.8528 15.219
12.8679 15.049
12.8831 14.565
12.8983 14.733
12.9135 14.886
12.9286 14.702
12.9438 14.532
12.9590 14.440
12.9742 14.662
12.9893 14.575
13.0045 14.370
13.0197 14.422
13.0349 14.473
13.0500 14.414
13.0652 14.249
13.0804 13.959
13.0956 13.695
13.1107 13.798
13.1259 13.940
13.1411 14.000
13.1563 13.849
13.1714 13.479
13.1866 13.492
13.2018 13.736
13.2170 13.785
13.2321 13.659
13.2473 13.517
13.2625 13.579
13.2777 13.868
13.2928 13.810
13.3080 13.379
13.3232 13.338
13.3384 13.402
13.3535 13.051
13.3687 12.798
13.3839 13.030
13.3991 13.056
13.4142 13.143
13.4294 13.030
13.4446 12.642
13.4598 12.898
13.4749 12.969
13.4901 12.904
13.5053 12.724
13.5205 12.666
13.5356 12.596
13.5508 12.426
13.5660 12.383
13.5812 12.468
13.5963 12.525
13.6115 12.319
13.6267 12.370
13.6419 12.435
13.6570 12.509
13.6722 12.505
13.6874 12.357
13.7026 12.330
13.7177 12.288
13.7329 12.052
13.7481 11.827
13.7633 12.088
13.7784 12.179
13.7936 12.158
13.8088 12.196
13.8239 12.540
13.8391 12.640
13.8543 12.504
13.8695 12.110
13.8846 12.204
13.8998 12.542
13.9150 12.118
13.9302 12.108
13.9453 11.965
13.9605 11.873
13.9757 11.902
13.9909 11.734
14.0060 11.766
14.0212 11.837
14.0364 11.526
14.0516 11.703
14.0667 11.446
14.0819 11.524
14.0971 11.559
14.1123 11.663
14.1274 11.257
14.1426 11.487
14.1578 11.589
14.1730 11.800
14.1881 11.671
14.2033 11.822
14.2185 11.407
14.2337 11.485
14.2488 11.718
14.2640 11.820
14.2792 11.745
14.2944 11.761
14.3095 11.720
14.3247 11.633
14.3399 11.835
14.3551 11.864
14.3702 12.257
14.3854 12.353
14.4006 12.515
14.4158 12.536
14.4309 12.591
14.4461 12.294
14.4613 12.399
14.4765 12.380
14.4916 12.170
14.5068 11.732
14.5220 11.782
14.5372 11.388
14.5523 11.445
14.5675 11.402
14.5827 11.064
14.5979 10.961
14.6130 11.226
14.6282 11.229
14.6434 10.963
14.6586 11.216
14.6737 11.078
14.6889 10.746
14.7041 11.145
14.7193 10.955
14.7344 10.778
14.7496 11.124
14.7648 11.024
14.7800 10.969
14.7951 10.914
14.8103 11.110
14.8255 11.189
14.8407 11.208
14.8558 10.659
14.8710 10.879
14.8862 10.931
14.9014 10.951
14.9165 10.953
14.9317 10.930
14.9469 10.674
14.9621 10.704
14.9772 10.421
14.9924 10.338
15.0076 10.765
15.0228 10.545
15.0379 10.582
15.0531 10.409
15.0683 10.516
15.0835 10.388
15.0986 10.300
15.1138 10.656
15.1290 10.702
15.1442 10.618
15.1593 10.576
15.1745 10.558
15.1897 10.330
15.2049 10.460
15.2200 10.528
15.2352 10.656
15.2504 10.379
15.2656 10.175
15.2807 10.120
15.2959 10.277
15.3111 10.117
15.3263 10.322
15.3414 9.980
15.3566 10.433
15.3718 9.987
15.3870 10.197
15.4021 10.222
15.4173 10.525
15.4325 10.521
15.4477 10.571
15.4628 10.309
15.4780 10.240
15.4932 10.125
15.5084 10.204
15.5235 10.020
15.5387 10.311
15.5539 10.334
15.5691 10.468
15.5842 10.082
15.5994 10.219
15.6146 10.371
15.6298 10.304
15.6449 10.211
15.6601 9.985
15.6753 9.931
15.6905 10.234
15.7056 9.863
15.7208 9.891
15.7360 10.181
15.7512 9.887
15.7663 9.791
15.7815 10.128
15.7967 9.875
15.8119 9.760
15.8270 9.982
15.8422 9.924
15.8574 10.047
15.8726 9.974
15.8877 9.766
15.9029 9.682
15.9181 9.980
15.9333 9.997
15.9484 10.141
15.9636 9.956
15.9788 9.896
15.9940 9.793
16.0091 9.715
16.0243 9.458
16.0395 9.585
16.0547 9.977
16.0698 9.693
16.0850 9.605
16.1002 9.913
16.1154 9.878
16.1305 10.033
16.1457 9.778
16.1609 9.679
16.1761 9.782
16.1912 9.701
16.2064 9.757
16.2216 9.717
16.2368 10.048
16.2519 9.925
16.2671 9.845
16.2823 10.180
16.2975 10.291
16.3126 10.132
16.3278 9.925
16.3430 9.925
16.3582 10.049
16.3733 10.351
16.3885 10.510
16.4037 10.388
16.4189 10.167
16.4340 9.856
16.4492 9.887
16.4644 9.984
16.4796 10.136
16.4947 10.061
16.5099 9.951
16.5251 9.841
16.5403 9.838
16.5554 9.877
16.5706 9.861
16.5858 9.696
16.6010 9.715
16.6161 9.823
16.6313 9.854
16.6465 9.827
16.6617 9.761
16.6768 9.981
16.6920 10.213
16.7072 10.281
16.7224 10.101
16.7375 10.008
16.7527 10.031
16.7679 10.084
16.7831 9.972
16.7982 9.930
16.8134 9.913
16.8286 10.113
16.8438 10.104
16.8589 9.745
16.8741 9.718
16.8893 9.724
16.9045 9.591
16.9196 9.687
16.9348 9.864
16.9500 9.947
16.9652 9.896
16.9803 9.693
16.9955 9.957
17.0107 10.174
17.0259 10.145
17.0410 10.037
17.0562 10.048
17.0714 10.361
17.0866 10.657
17.1017 10.815
17.1169 10.867
17.1321 11.152
17.1473 11.600
17.1624 12.024
17.1776 12.519
17.1928 13.383
17.2080 14.216
17.2231 15.356
17.2383 16.713
17.2535 17.799
17.2687 18.761
17.2838 18.923
17.2990 18.091
17.3142 17.201
17.3294 16.773
17.3445 16.490
17.3597 16.326
17.3749 16.162
17.3901 15.462
17.4052 14.160
17.4204 13.059
17.4356 12.335
17.4508 11.735
17.4659 11.449
17.4811 11.200
17.4963 11.132
17.5115 11.166
17.5266 11.001
17.5418 10.892
17.5570 10.780
17.5722 10.592
17.5873 10.431
17.6025 10.551
17.6177 10.555
17.6329 10.303
17.6480 10.395
17.6632 10.530
17.6784 10.310
17.6936 10.268
17.7087 10.419
17.7239 10.413
17.7391 10.532
17.7543 10.496
17.7694 10.349
17.7846 10.498
17.7998 10.502
17.8150 10.433
17.8301 10.508
17.8453 10.526
17.8605 10.572
17.8757 10.497
17.8908 10.521
17.9060 10.429
17.9212 10.623
17.9364 10.507
17.9515 10.338
17.9667 10.348
17.9819 10.294
17.9971 10.470
18.0122 10.619
18.0274 10.387
18.0426 10.146
18.0578 10.174
18.0729 10.384
18.0881 10.300
18.1033 10.123
18.1185 10.049
18.1336 10.009
18.1488 10.043
18.1640 10.230
18.1792 9.981
18.1943 9.724
18.2095 9.994
18.2247 10.094
18.2399 9.802
18.2550 9.760
18.2702 9.871
18.2854 9.771
18.3006 9.753
18.3157 9.817
18.3309 9.853
18.3461 9.896
18.3613 9.871
18.3764 9.845
18.3916 9.983
18.4068 9.773
18.4220 9.913
18.4371 10.088
18.4523 9.865
18.4675 9.715
18.4827 9.945
18.4978 10.209
18.5130 10.202
18.5282 9.803
18.5434 9.584
18.5585 9.742
18.5737 9.942
18.5889 9.858
18.6041 9.808
18.6192 9.970
18.6344 9.758
18.6496 9.671
18.6648 9.645
18.6799 9.546
18.6951 9.643
18.7103 9.656
18.7255 9.571
18.7406 9.542
18.7558 9.713
18.7710 9.731
18.7862 9.860
18.8013 9.788
18.8165 9.419
18.8317 9.679
18.8469 10.131
18.8620 9.956
18.8772 10.037
18.8924 10.025
18.9076 9.993
18.9227 10.028
18.9379 9.973
18.9531 9.985
18.9683 9.701
18.9834 9.771
18.9986 9.960
19.0138 10.033
19.0290 10.030
19.0441 10.133
19.0593 10.283
19.0745 10.389
19.0897 10.341
19.1048 10.302
19.1200 10.526
19.1352 10.456
19.1504 10.421
19.1655 10.565
19.1807 10.762
19.1959 10.708
19.2111 10.774
19.2262 10.868
19.2414 10.734
19.2566 10.695
19.2718 10.739
19.2869 10.928
19.3021 10.977
19.3173 10.977
19.3325 10.859
19.3476 10.918
19.3628 11.138
19.3780 11.105
19.3932 11.091
19.4083 11.316
19.4235 11.548
19.4387 11.411
19.4539 11.340
19.4690 11.431
19.4842 11.301
19.4994 11.494
19.5146 11.757
19.5297 11.635
19.5449 11.434
19.5601 11.506
19.5753 11.538
19.5904 11.635
19.6056 11.635
19.6208 11.692
19.6360 11.593
19.6511 11.460
19.6663 11.818
19.6815 11.791
19.6967 11.750
19.7118 11.711
19.7270 11.449
19.7422 11.476
19.7574 11.630
19.7725 11.749
19.7877 11.856
19.8029 11.950
19.8180 11.878
19.8332 11.983
19.8484 12.058
19.8636 12.231
19.8787 12.810
19.8939 13.093
19.9091 13.351
19.9243 13.344
19.9394 13.400
19.9546 13.942
19.9698 14.431
19.9850 14.583
20.0001 14.321
20.0153 14.003
20.0305 13.977
20.0457 14.051
20.0608 14.038
20.0760 13.722
20.0912 13.571
20.1064 13.557
20.1215 13.360
20.1367 13.332
20.1519 13.042
20.1671 12.856
20.1822 12.818
20.1974 12.675
20.2126 12.579
20.2278 12.829
20.2429 12.625
20.2581 12.276
20.2733 12.403
20.2885 12.091
20.3036 11.634
20.3188 11.510
20.3340 11.662
20.3492 11.794
20.3643 11.506
20.3795 11.205
20.3947 11.159
20.4099 11.122
20.4250 10.956
20.4402 10.946
20.4554 10.973
20.4706 10.959
20.4857 10.779
20.5009 10.574
20.5161 10.333
20.5313 10.554
20.5464 10.650
20.5616 10.388
20.5768 10.534
20.5920 10.762
20.6071 10.595
20.6223 10.378
20.6375 10.548
20.6527 10.427
20.6678 10.397
20.6830 10.398
20.6982 10.204
20.7134 10.512
20.7285 10.533
20.7437 10.554
20.7589 10.518
20.7741 10.416
20.7892 10.707
20.8044 10.513
20.8196 10.528
20.8348 10.741
20.8499 10.395
20.8651 10.353
20.8803 10.384
20.8955 10.332
20.9106 10.140
20.9258 10.375
20.9410 10.381
20.9562 10.182
20.9713 10.140
20.9865 9.941
21.0017 9.649
21.0169 10.073
21.0320 10.266
21.0472 10.191
21.0624 10.134
21.0776 10.119
21.0927 9.765
21.1079 10.116
21.1231 9.935
21.1383 9.813
21.1534 9.934
21.1686 9.665
21.1838 9.771
21.1990 9.559
21.2141 9.670
21.2293 9.536
21.2445 9.426
21.2597 9.532
21.2748 9.735
21.2900 9.550
21.3052 9.694
21.3204 9.914
21.3355 9.649
21.3507 9.307
21.3659 9.323
21.3811 9.662
21.3962 9.637
21.4114 9.464
21.4266 9.339
21.4418 9.471
21.4569 9.224
21.4721 9.308
21.4873 9.399
21.5025 9.257
21.5176 9.671
21.5328 9.361
21.5480 9.273
21.5632 9.472
21.5783 9.470
21.5935 9.129
21.6087 9.284
21.6239 9.293
21.6390 9.228
21.6542 9.110
21.6694 9.277
21.6846 9.096
21.6997 9.399
21.7149 9.377
21.7301 9.173
21.7453 9.088
21.7604 9.169
21.7756 8.967
21.7908 8.784
21.8060 8.807
21.8211 8.761
21.8363 8.716
21.8515 9.020
21.8667 9.165
21.8818 9.005
21.8970 9.169
21.9122 8.965
21.9274 8.938
21.9425 8.887
21.9577 9.001
21.9729 9.115
21.9881 9.030
22.0032 9.015
22.0184 8.994
22.0336 9.021
22.0488 9.002
22.0639 8.850
22.0791 8.897
22.0943 8.884
22.1095 8.902
22.1246 8.807
22.1398 8.847
22.1550 8.789
22.1702 8.718
22.1853 8.806
22.2005 8.653
22.2157 8.415
22.2309 8.591
22.2460 8.718
22.2612 8.652
22.2764 8.576
22.2916 8.645
22.3067 8.515
22.3219 8.732
22.3371 8.795
22.3523 8.630
22.3674 8.352
22.3826 8.564
22.3978 8.579
22.4130 8.573
22.4281 8.423
22.4433 8.645
22.4585 8.620
22.4737 8.494
22.4888 8.730
22.5040 8.620
22.5192 8.515
22.5344 8.365
22.5495 8.526
22.5647 8.763
22.5799 8.759
22.5951 8.534
22.6102 8.409
22.6254 8.395
22.6406 8.530
22.6558 8.523
22.6709 8.613
22.6861 8.270
22.7013 8.258
22.7165 8.003
22.7316 6.507
