'Id: "" Comment: "" Operator: "Lab Manager" Anode: "Mo" Scantype: "Still (Eiger2R_500K (1D mode))" TimePerStep: "300" X: "11.8" Y: "9.4" Z: "11.284" 
7.2532 18.455
7.2684 18.448
7.2836 18.853
7.2987 18.652
7.3139 19.068
7.3291 18.972
7.3443 18.923
7.3594 19.106
7.3746 19.045
7.3898 19.237
7.4050 19.527
7.4201 19.341
7.4353 18.750
7.4505 19.386
7.4657 19.452
7.4808 19.229
7.4960 19.156
7.5112 19.330
7.5264 19.236
7.5415 19.624
7.5567 19.941
7.5719 19.563
7.5871 19.575
7.6022 19.761
7.6174 20.068
7.6326 19.931
7.6478 19.926
7.6629 19.875
7.6781 19.711
7.6933 19.977
7.7085 20.426
7.7236 20.315
7.7388 20.254
7.7540 20.343
7.7692 20.350
7.7843 20.302
7.7995 20.232
7.8147 20.384
7.8299 20.641
7.8450 20.467
7.8602 20.543
7.8754 20.783
7.8905 20.900
7.9057 20.768
7.9209 20.901
7.9361 20.882
7.9512 20.663
7.9664 20.787
7.9816 20.704
7.9968 20.659
8.0119 20.790
8.0271 21.062
8.0423 20.780
8.0575 20.689
8.0726 20.843
8.0878 20.762
8.1030 20.531
8.1182 21.010
8.1333 20.850
8.1485 21.009
8.1637 21.221
8.1789 21.335
8.1940 21.173
8.2092 21.156
8.2244 21.229
8.2396 21.483
8.2547 21.319
8.2699 21.479
8.2851 21.475
8.3003 21.553
8.3154 21.484
8.3306 21.832
8.3458 21.125
8.3610 21.472
8.3761 21.697
8.3913 20.858
8.4065 22.085
8.4217 22.189
8.4368 21.778
8.4520 21.326
8.4672 21.331
8.4824 21.560
8.4975 21.578
8.5127 21.838
8.5279 21.685
8.5431 21.443
8.5582 22.015
8.5734 21.871
8.5886 22.118
8.6038 21.986
8.6189 21.853
8.6341 22.153
8.6493 21.646
8.6645 22.508
8.6796 22.013
8.6948 22.273
8.7100 21.886
8.7252 21.919
8.7403 22.330
8.7555 22.605
8.7707 22.282
8.7859 22.260
8.8010 22.265
8.8162 22.328
8.8314 22.308
8.8466 21.904
8.8617 22.034
8.8769 22.405
8.8921 22.062
8.9073 22.316
8.9224 22.523
8.9376 22.478
8.9528 21.953
8.9680 22.550
8.9831 22.499
8.9983 22.883
9.0135 22.490
9.0287 22.529
9.0438 22.315
9.0590 22.670
9.0742 22.753
9.0894 22.407
9.1045 22.506
9.1197 22.452
9.1349 22.658
9.1501 22.934
9.1652 22.515
9.1804 22.980
9.1956 23.049
9.2108 22.795
9.2259 22.578
9.2411 22.799
9.2563 22.711
9.2715 23.098
9.2866 23.022
9.3018 23.370
9.3170 23.144
9.3322 22.895
9.3473 22.944
9.3625 22.691
9.3777 22.271
9.3929 22.361
9.4080 22.591
9.4232 23.033
9.4384 22.876
9.4536 22.667
9.4687 23.027
9.4839 22.921
9.4991 22.798
9.5143 22.833
9.5294 22.910
9.5446 22.857
9.5598 22.886
9.5750 22.930
9.5901 22.959
9.6053 22.941
9.6205 23.140
9.6357 23.319
9.6508 23.492
9.6660 23.500
9.6812 23.794
9.6964 23.923
9.7115 24.074
9.7267 24.133
9.7419 23.826
9.7571 23.926
9.7722 23.999
9.7874 23.560
9.8026 23.622
9.8178 23.674
9.8329 23.376
9.8481 23.297
9.8633 23.421
9.8785 23.463
9.8936 23.170
9.9088 22.792
9.9240 22.902
9.9392 23.006
9.9543 23.304
9.9695 23.427
9.9847 23.236
9.9999 22.867
10.0150 23.079
10.0302 23.195
10.0454 23.061
10.0606 23.165
10.0757 23.137
10.0909 22.825
10.1061 23.125
10.1213 23.766
10.1364 23.979
10.1516 23.575
10.1668 23.080
10.1820 23.003
10.1971 23.147
10.2123 23.053
10.2275 22.809
10.2427 22.494
10.2578 22.423
10.2730 22.747
10.2882 23.068
10.3034 22.869
10.3185 22.420
10.3337 22.555
10.3489 22.462
10.3641 22.534
10.3792 22.509
10.3944 22.416
10.4096 22.512
10.4248 22.903
10.4399 22.399
10.4551 22.196
10.4703 22.217
10.4855 22.821
10.5006 23.005
10.5158 22.746
10.5310 22.595
10.5462 22.366
10.5613 21.635
10.5765 21.980
10.5917 22.227
10.6069 22.423
10.6220 22.035
10.6372 22.353
10.6524 22.450
10.6676 22.389
10.6827 22.443
10.6979 22.307
10.7131 22.271
10.7283 22.066
10.7434 21.955
10.7586 22.418
10.7738 22.513
10.7890 22.293
10.8041 22.325
10.8193 22.321
10.8345 22.194
10.8497 21.964
10.8648 22.061
10.8800 22.385
10.8952 22.389
10.9104 21.852
10.9255 21.884
10.9407 21.970
10.9559 21.844
10.9711 21.650
10.9862 22.050
11.0014 22.126
11.0166 22.306
11.0318 22.505
11.0469 21.898
11.0621 21.904
11.0773 21.672
11.0925 21.715
11.1076 21.631
11.1228 21.177
11.1380 21.715
11.1532 21.741
11.1683 21.747
11.1835 21.873
11.1987 21.625
11.2139 21.491
11.2290 21.319
11.2442 21.416
11.2594 21.782
11.2746 22.008
11.2897 21.577
11.3049 21.145
11.3201 21.376
11.3353 21.189
11.3504 21.155
11.3656 21.033
11.3808 21.138
11.3960 21.568
11.4111 21.017
11.4263 21.246
11.4415 21.319
11.4567 20.765
11.4718 20.766
11.4870 20.669
11.5022 21.062
11.5174 20.914
11.5325 20.816
11.5477 21.030
11.5629 20.783
11.5781 20.843
11.5932 20.929
11.6084 20.499
11.6236 20.519
11.6388 20.718
11.6539 20.668
11.6691 20.756
11.6843 20.625
11.6995 20.578
11.7146 21.010
11.7298 20.646
11.7450 20.500
11.7602 20.114
11.7753 20.089
11.7905 20.057
11.8057 20.129
11.8209 19.944
11.8360 19.818
11.8512 19.526
11.8664 19.901
11.8816 19.648
11.8967 19.278
11.9119 19.272
11.9271 19.519
11.9423 19.731
11.9574 19.380
11.9726 19.067
11.9878 19.041
12.0030 19.149
12.0181 19.155
12.0333 18.912
12.0485 18.970
12.0637 19.107
12.0788 18.642
12.0940 18.529
12.1092 18.739
12.1244 18.438
12.1395 18.548
12.1547 18.525
12.1699 18.138
12.1851 18.157
12.2002 18.144
12.2154 18.352
12.2306 18.138
12.2458 17.854
12.2609 17.974
12.2761 17.836
12.2913 17.719
12.3065 17.846
12.3216 17.766
12.3368 17.607
12.3520 17.381
12.3672 17.359
12.3823 17.571
12.3975 17.346
12.4127 17.150
12.4279 16.827
12.4430 16.818
12.4582 16.626
12.4734 16.642
12.4886 16.907
12.5037 16.621
12.5189 16.492
12.5341 16.770
12.5493 16.490
12.5644 16.271
12.5796 16.024
12.5948 16.155
12.6100 15.925
12.6251 16.010
12.6403 16.106
12.6555 16.083
12.6707 15.802
12.6858 15.416
12.7010 15.515
12.7162 15.410
12.7314 15.503
12.7465 15.547
12.7617 15.470
12.7769 15.421
12.7921 15.250
12.8072 15.007
12.8224 15.011
12.8376 14.960
12.8528 14.887
12.8679 14.626
12.8831 14.874
12.8983 14.887
12.9135 14.417
12.9286 14.393
12.9438 14.366
12.9590 14.421
12.9742 14.544
12.9893 14.222
13.0045 14.103
13.0197 14.320
13.0349 14.024
13.0500 13.773
13.0652 13.873
13.0804 13.867
13.0956 13.551
13.1107 13.362
13.1259 13.543
13.1411 13.604
13.1563 13.568
13.1714 13.620
13.1866 13.718
13.2018 13.559
13.2170 13.425
13.2321 13.319
13.2473 13.132
13.2625 13.172
13.2777 13.212
13.2928 13.142
13.3080 13.256
13.3232 13.434
13.3384 13.212
13.3535 13.096
13.3687 13.131
13.3839 12.942
13.3991 12.783
13.4142 12.930
13.4294 13.025
13.4446 12.815
13.4598 12.573
13.4749 12.487
13.4901 12.424
13.5053 12.549
13.5205 12.776
13.5356 12.703
13.5508 12.545
13.5660 12.477
13.5812 12.521
13.5963 12.465
13.6115 12.321
13.6267 12.319
13.6419 12.135
13.6570 12.402
13.6722 12.276
13.6874 12.007
13.7026 12.279
13.7177 12.352
13.7329 12.070
13.7481 12.052
13.7633 12.178
13.7784 12.212
13.7936 12.182
13.8088 12.242
13.8239 12.227
13.8391 12.242
13.8543 12.115
13.8695 12.082
13.8846 12.284
13.8998 12.411
13.9150 12.082
13.9302 12.189
13.9453 12.216
13.9605 11.813
13.9757 11.861
13.9909 11.673
14.0060 11.569
14.0212 11.718
14.0364 11.756
14.0516 11.634
14.0667 11.633
14.0819 11.874
14.0971 11.495
14.1123 11.488
14.1274 11.494
14.1426 11.475
14.1578 11.593
14.1730 11.767
14.1881 11.544
14.2033 11.593
14.2185 11.715
14.2337 11.578
14.2488 11.651
14.2640 11.916
14.2792 11.412
14.2944 11.657
14.3095 11.836
14.3247 12.340
14.3399 12.312
14.3551 12.392
14.3702 12.446
14.3854 12.662
14.4006 12.929
14.4158 13.107
14.4309 12.711
14.4461 12.397
14.4613 12.587
14.4765 12.064
14.4916 11.932
14.5068 11.932
14.5220 11.655
14.5372 11.353
14.5523 11.214
14.5675 11.200
14.5827 11.051
14.5979 11.409
14.6130 11.042
14.6282 10.983
14.6434 10.864
14.6586 10.986
14.6737 10.614
14.6889 10.686
14.7041 10.606
14.7193 10.397
14.7344 10.467
14.7496 10.276
14.7648 10.686
14.7800 10.412
14.7951 10.387
14.8103 10.524
14.8255 10.505
14.8407 10.473
14.8558 10.258
14.8710 10.242
14.8862 10.286
14.9014 10.523
14.9165 10.436
14.9317 10.698
14.9469 10.502
14.9621 10.368
14.9772 10.098
14.9924 10.334
15.0076 10.306
15.0228 9.926
15.0379 10.316
15.0531 10.143
15.0683 10.093
15.0835 10.542
15.0986 10.016
15.1138 10.290
15.1290 10.318
15.1442 10.276
15.1593 10.364
15.1745 10.310
15.1897 10.091
15.2049 10.103
15.2200 9.911
15.2352 10.087
15.2504 9.993
15.2656 9.649
15.2807 9.975
15.2959 9.974
15.3111 10.078
15.3263 10.318
15.3414 10.137
15.3566 10.157
15.3718 10.248
15.3870 9.926
15.4021 9.832
15.4173 10.128
15.4325 9.935
15.4477 10.385
15.4628 10.208
15.4780 10.093
15.4932 9.807
15.5084 9.940
15.5235 10.266
15.5387 9.998
15.5539 9.958
15.5691 9.915
15.5842 9.817
15.5994 9.880
15.6146 9.738
15.6298 9.726
15.6449 9.933
15.6601 9.814
15.6753 9.744
15.6905 9.823
15.7056 9.899
15.7208 9.991
15.7360 10.129
15.7512 9.792
15.7663 9.890
15.7815 9.944
15.7967 10.067
15.8119 9.740
15.8270 9.683
15.8422 9.634
15.8574 9.529
15.8726 9.737
15.8877 9.641
15.9029 9.591
15.9181 9.597
15.9333 9.622
15.9484 9.755
15.9636 9.858
15.9788 9.498
15.9940 9.447
16.0091 9.869
16.0243 9.466
16.0395 9.581
16.0547 9.655
16.0698 9.616
16.0850 9.574
16.1002 9.377
16.1154 9.368
16.1305 9.432
16.1457 9.203
16.1609 9.587
16.1761 9.678
16.1912 9.724
16.2064 9.453
16.2216 9.763
16.2368 9.580
16.2519 9.646
16.2671 9.669
16.2823 9.586
16.2975 9.689
16.3126 9.509
16.3278 9.585
16.3430 9.854
16.3582 9.918
16.3733 10.021
16.3885 10.007
16.4037 10.043
16.4189 9.753
16.4340 9.535
16.4492 9.746
16.4644 9.595
16.4796 9.643
16.4947 9.586
16.5099 9.528
16.5251 9.405
16.5403 9.529
16.5554 9.702
16.5706 9.678
16.5858 9.217
16.6010 9.104
16.6161 9.612
16.6313 9.746
16.6465 9.737
16.6617 9.911
16.6768 9.849
16.6920 9.767
16.7072 9.871
16.7224 9.876
16.7375 9.958
16.7527 10.136
16.7679 9.998
16.7831 9.796
16.7982 9.898
16.8134 9.937
16.8286 9.720
16.8438 9.707
16.8589 9.907
16.8741 9.830
16.8893 9.717
16.9045 9.680
16.9196 9.620
16.9348 9.754
16.9500 9.683
16.9652 9.530
16.9803 9.591
16.9955 9.712
17.0107 9.906
17.0259 10.006
17.0410 9.867
17.0562 10.131
17.0714 10.296
17.0866 10.318
17.1017 10.395
17.1169 10.587
17.1321 11.000
17.1473 11.326
17.1624 11.562
17.1776 11.986
17.1928 13.016
17.2080 14.091
17.2231 14.904
17.2383 16.193
17.2535 17.656
17.2687 18.596
17.2838 18.547
17.2990 18.063
17.3142 17.101
17.3294 16.232
17.3445 16.255
17.3597 16.393
17.3749 16.062
17.3901 15.190
17.4052 14.401
17.4204 13.641
17.4356 12.702
17.4508 11.996
17.4659 11.695
17.4811 11.565
17.4963 11.445
17.5115 11.288
17.5266 10.885
17.5418 10.794
17.5570 11.034
17.5722 10.916
17.5873 10.824
17.6025 10.979
17.6177 11.057
17.6329 11.147
17.6480 11.395
17.6632 11.608
17.6784 11.638
17.6936 11.445
17.7087 11.332
17.7239 11.241
17.7391 11.114
17.7543 11.121
17.7694 11.166
17.7846 11.078
17.7998 10.760
17.8150 10.561
17.8301 10.475
17.8453 10.187
17.8605 10.236
17.8757 10.385
17.8908 10.422
17.9060 10.377
17.9212 10.140
17.9364 10.094
17.9515 10.043
17.9667 10.069
17.9819 10.196
17.9971 10.265
18.0122 9.970
18.0274 9.681
18.0426 9.943
18.0578 10.282
18.0729 10.342
18.0881 10.293
18.1033 10.096
18.1185 9.876
18.1336 9.962
18.1488 9.936
18.1640 10.082
18.1792 10.082
18.1943 9.770
18.2095 9.724
18.2247 9.869
18.2399 9.863
18.2550 9.834
18.2702 9.839
18.2854 9.690
18.3006 9.980
18.3157 10.049
18.3309 9.931
18.3461 9.782
18.3613 9.770
18.3764 9.761
18.3916 9.764
18.4068 9.831
18.4220 9.997
18.4371 9.892
18.4523 9.689
18.4675 9.788
18.4827 9.748
18.4978 9.768
18.5130 9.966
18.5282 9.798
18.5434 9.608
18.5585 9.607
18.5737 9.851
18.5889 9.759
18.6041 9.667
18.6192 9.652
18.6344 9.797
18.6496 9.792
18.6648 10.011
18.6799 10.121
18.6951 9.974
18.7103 9.789
18.7255 9.871
18.7406 10.001
18.7558 9.977
18.7710 9.863
18.7862 9.805
18.8013 9.591
18.8165 9.427
18.8317 9.656
18.8469 9.866
18.8620 9.974
18.8772 10.161
18.8924 10.074
18.9076 9.847
18.9227 9.998
18.9379 10.161
18.9531 10.206
18.9683 9.854
18.9834 9.958
18.9986 10.102
19.0138 10.141
19.0290 10.252
19.0441 10.282
19.0593 10.230
19.0745 10.201
19.0897 10.301
19.1048 10.455
19.1200 10.541
19.1352 10.473
19.1504 10.528
19.1655 10.525
19.1807 10.335
19.1959 10.442
19.2111 10.516
19.2262 10.414
19.2414 10.624
19.2566 10.742
19.2718 10.849
19.2869 11.035
19.3021 10.961
19.3173 10.930
19.3325 10.904
19.3476 11.099
19.3628 10.974
19.3780 10.890
19.3932 11.109
19.4083 11.221
19.4235 11.253
19.4387 11.145
19.4539 11.169
19.4690 11.372
19.4842 11.416
19.4994 11.400
19.5146 11.416
19.5297 11.633
19.5449 11.678
19.5601 11.713
19.5753 11.853
19.5904 12.035
19.6056 11.733
19.6208 11.542
19.6360 11.624
19.6511 11.719
19.6663 11.581
19.6815 11.434
19.6967 11.711
19.7118 11.956
19.7270 11.866
19.7422 11.844
19.7574 11.934
19.7725 11.976
19.7877 11.851
19.8029 11.996
19.8180 12.303
19.8332 12.319
19.8484 12.420
19.8636 12.505
19.8787 12.565
19.8939 12.679
19.9091 13.144
19.9243 13.570
19.9394 13.805
19.9546 14.203
19.9698 14.398
19.9850 14.290
20.0001 14.012
20.0153 13.914
20.0305 14.354
20.0457 14.385
20.0608 14.038
20.0760 13.895
20.0912 13.608
20.1064 13.668
20.1215 13.803
20.1367 13.261
20.1519 12.827
20.1671 12.884
20.1822 12.932
20.1974 13.026
20.2126 13.044
20.2278 12.888
20.2429 12.572
20.2581 12.295
20.2733 12.149
20.2885 12.077
20.3036 11.829
20.3188 12.126
20.3340 12.270
20.3492 12.081
20.3643 11.758
20.3795 11.735
20.3947 11.737
20.4099 11.723
20.4250 11.697
20.4402 11.817
20.4554 11.899
20.4706 11.697
20.4857 11.695
20.5009 11.714
20.5161 11.657
20.5313 11.547
20.5464 11.664
20.5616 11.097
20.5768 11.070
20.5920 11.183
20.6071 10.826
20.6223 11.124
20.6375 10.962
20.6527 10.536
20.6678 10.659
20.6830 10.896
20.6982 10.748
20.7134 10.603
20.7285 10.164
20.7437 10.853
20.7589 10.582
20.7741 10.266
20.7892 10.337
20.8044 10.717
20.8196 10.479
20.8348 10.548
20.8499 10.511
20.8651 10.341
20.8803 10.139
20.8955 9.859
20.9106 10.044
20.9258 10.070
20.9410 9.946
20.9562 10.461
20.9713 10.033
20.9865 10.366
21.0017 10.076
21.0169 10.152
21.0320 9.861
21.0472 9.886
21.0624 9.899
21.0776 9.938
21.0927 10.016
21.1079 9.965
21.1231 9.948
21.1383 9.888
21.1534 9.842
21.1686 10.004
21.1838 9.987
21.1990 9.945
21.2141 10.011
21.2293 9.900
21.2445 9.914
21.2597 9.859
21.2748 9.748
21.2900 9.717
21.3052 9.731
21.3204 9.195
21.3355 9.517
21.3507 9.411
21.3659 9.623
21.3811 9.263
21.3962 9.929
21.4114 9.663
21.4266 9.370
21.4418 9.535
21.4569 9.678
21.4721 9.543
21.4873 9.371
21.5025 9.174
21.5176 9.364
21.5328 9.367
21.5480 9.228
21.5632 9.078
21.5783 9.314
21.5935 8.937
21.6087 9.447
21.6239 9.161
21.6390 9.162
21.6542 9.097
21.6694 8.968
21.6846 9.180
21.6997 9.239
21.7149 9.066
21.7301 9.191
21.7453 9.065
21.7604 8.914
21.7756 8.994
21.7908 9.152
21.8060 8.951
21.8211 9.120
21.8363 9.248
21.8515 9.006
21.8667 9.087
21.8818 9.178
21.8970 9.020
21.9122 9.180
21.9274 9.225
21.9425 8.944
21.9577 8.854
21.9729 8.768
21.9881 8.712
22.0032 8.787
22.0184 8.897
22.0336 9.037
22.0488 8.788
22.0639 8.506
22.0791 8.591
22.0943 8.705
22.1095 8.800
22.1246 8.725
22.1398 8.759
22.1550 8.850
22.1702 8.463
22.1853 8.550
22.2005 8.610
22.2157 8.649
22.2309 8.596
22.2460 8.396
22.2612 8.542
22.2764 8.511
22.2916 8.350
22.3067 8.443
22.3219 8.748
22.3371 8.525
22.3523 8.493
22.3674 8.239
22.3826 8.396
22.3978 8.459
22.4130 8.491
22.4281 8.472
22.4433 8.374
22.4585 8.521
22.4737 8.258
22.4888 8.377
22.5040 8.277
22.5192 8.390
22.5344 8.425
22.5495 8.654
22.5647 8.530
22.5799 8.482
22.5951 8.461
22.6102 8.442
22.6254 8.517
22.6406 8.568
22.6558 8.437
22.6709 8.203
22.6861 8.276
22.7013 8.071
22.7165 7.899
22.7316 6.392
