'Id: "" Comment: "" Operator: "Lab Manager" Anode: "Mo" Scantype: "Still (Eiger2R_500K (1D mode))" TimePerStep: "300" X: "11.8" Y: "9.4" Z: "11.284" 
7.2532 18.691
7.2684 18.896
7.2836 18.573
7.2987 18.607
7.3139 18.587
7.3291 18.577
7.3443 18.642
7.3594 18.717
7.3746 19.006
7.3898 18.896
7.4050 19.418
7.4201 19.230
7.4353 19.131
7.4505 19.241
7.4657 19.428
7.4808 19.728
7.4960 19.887
7.5112 19.660
7.5264 19.681
7.5415 19.373
7.5567 20.291
7.5719 19.949
7.5871 19.795
7.6022 19.838
7.6174 19.715
7.6326 19.677
7.6478 20.104
7.6629 20.193
7.6781 20.269
7.6933 20.108
7.7085 20.331
7.7236 20.164
7.7388 20.164
7.7540 20.179
7.7692 20.287
7.7843 20.175
7.7995 20.404
7.8147 20.756
7.8299 20.820
7.8450 20.662
7.8602 20.696
7.8754 21.065
7.8905 20.543
7.9057 20.348
7.9209 20.514
7.9361 20.684
7.9512 20.933
7.9664 21.124
7.9816 21.289
7.9968 20.912
8.0119 21.031
8.0271 21.120
8.0423 21.184
8.0575 21.056
8.0726 21.156
8.0878 21.193
8.1030 21.013
8.1182 20.804
8.1333 21.072
8.1485 21.045
8.1637 21.145
8.1789 20.592
8.1940 21.141
8.2092 21.434
8.2244 21.283
8.2396 21.656
8.2547 21.542
8.2699 22.117
8.2851 22.017
8.3003 22.174
8.3154 21.868
8.3306 21.099
8.3458 21.313
8.3610 21.584
8.3761 21.682
8.3913 21.326
8.4065 22.171
8.4217 21.790
8.4368 21.748
8.4520 21.799
8.4672 21.942
8.4824 21.915
8.4975 21.554
8.5127 21.950
8.5279 21.103
8.5431 22.368
8.5582 21.937
8.5734 21.812
8.5886 21.998
8.6038 21.760
8.6189 22.299
8.6341 22.003
8.6493 22.518
8.6645 22.242
8.6796 21.582
8.6948 22.031
8.7100 22.328
8.7252 22.040
8.7403 22.254
8.7555 22.411
8.7707 22.515
8.7859 21.958
8.8010 22.480
8.8162 22.148
8.8314 22.254
8.8466 22.470
8.8617 22.008
8.8769 22.045
8.8921 22.398
8.9073 22.392
8.9224 22.557
8.9376 22.341
8.9528 22.282
8.9680 22.339
8.9831 22.856
8.9983 22.605
9.0135 22.871
9.0287 22.425
9.0438 22.697
9.0590 22.874
9.0742 22.984
9.0894 22.965
9.1045 22.665
9.1197 22.389
9.1349 22.377
9.1501 22.375
9.1652 22.319
9.1804 22.833
9.1956 22.719
9.2108 22.222
9.2259 22.515
9.2411 22.966
9.2563 22.650
9.2715 22.716
9.2866 22.689
9.3018 22.386
9.3170 23.089
9.3322 23.447
9.3473 22.787
9.3625 22.470
9.3777 22.430
9.3929 22.515
9.4080 22.630
9.4232 23.220
9.4384 23.306
9.4536 22.985
9.4687 22.825
9.4839 22.767
9.4991 23.113
9.5143 23.008
9.5294 22.701
9.5446 22.949
9.5598 22.897
9.5750 22.773
9.5901 22.935
9.6053 22.723
9.6205 22.661
9.6357 22.938
9.6508 23.129
9.6660 23.397
9.6812 23.382
9.6964 23.429
9.7115 23.715
9.7267 23.845
9.7419 23.826
9.7571 23.640
9.7722 23.507
9.7874 23.404
9.8026 23.526
9.8178 23.543
9.8329 23.162
9.8481 23.016
9.8633 23.174
9.8785 23.034
9.8936 23.115
9.9088 23.192
9.9240 23.129
9.9392 22.994
9.9543 23.078
9.9695 23.121
9.9847 22.887
9.9999 22.855
10.0150 23.154
10.0302 23.056
10.0454 22.785
10.0606 22.830
10.0757 22.768
10.0909 23.168
10.1061 23.417
10.1213 23.529
10.1364 23.525
10.1516 23.316
10.1668 23.391
10.1820 23.245
10.1971 23.245
10.2123 22.781
10.2275 22.522
10.2427 22.650
10.2578 22.880
10.2730 22.787
10.2882 22.485
10.3034 22.626
10.3185 22.707
10.3337 22.564
10.3489 22.801
10.3641 22.969
10.3792 23.012
10.3944 22.435
10.4096 22.343
10.4248 22.499
10.4399 22.213
10.4551 22.361
10.4703 22.628
10.4855 22.534
10.5006 22.524
10.5158 22.565
10.5310 22.335
10.5462 22.388
10.5613 22.203
10.5765 22.415
10.5917 22.644
10.6069 22.211
10.6220 22.183
10.6372 22.384
10.6524 22.498
10.6676 22.383
10.6827 22.336
10.6979 22.144
10.7131 22.314
10.7283 22.337
10.7434 22.342
10.7586 22.518
10.7738 22.464
10.7890 22.388
10.8041 22.272
10.8193 22.119
10.8345 22.294
10.8497 22.112
10.8648 21.806
10.8800 21.657
10.8952 21.745
10.9104 22.062
10.9255 22.141
10.9407 22.070
10.9559 21.886
10.9711 22.083
10.9862 22.248
11.0014 22.397
11.0166 22.148
11.0318 22.006
11.0469 21.662
11.0621 21.397
11.0773 21.801
11.0925 21.772
11.1076 21.750
11.1228 21.825
11.1380 21.781
11.1532 21.515
11.1683 21.800
11.1835 21.845
11.1987 21.711
11.2139 21.724
11.2290 21.789
11.2442 22.083
11.2594 21.875
11.2746 21.831
11.2897 21.671
11.3049 21.543
11.3201 21.361
11.3353 21.206
11.3504 21.812
11.3656 21.275
11.3808 21.333
11.3960 21.453
11.4111 21.043
11.4263 21.259
11.4415 21.207
11.4567 21.565
11.4718 21.328
11.4870 21.053
11.5022 20.836
11.5174 20.849
11.5325 20.706
11.5477 20.908
11.5629 21.013
11.5781 21.257
11.5932 20.661
11.6084 20.606
11.6236 20.816
11.6388 20.691
11.6539 20.524
11.6691 20.637
11.6843 20.703
11.6995 20.650
11.7146 20.394
11.7298 20.581
11.7450 20.150
11.7602 20.067
11.7753 20.216
11.7905 20.327
11.8057 20.229
11.8209 19.627
11.8360 19.485
11.8512 19.430
11.8664 19.533
11.8816 19.375
11.8967 19.608
11.9119 19.858
11.9271 19.665
11.9423 19.325
11.9574 19.447
11.9726 19.725
11.9878 19.361
12.0030 19.102
12.0181 19.227
12.0333 18.875
12.0485 18.984
12.0637 18.972
12.0788 18.917
12.0940 18.686
12.1092 18.398
12.1244 18.713
12.1395 18.799
12.1547 18.632
12.1699 18.172
12.1851 18.500
12.2002 18.506
12.2154 18.308
12.2306 17.904
12.2458 17.673
12.2609 18.005
12.2761 17.739
12.2913 17.576
12.3065 17.514
12.3216 17.583
12.3368 17.235
12.3520 17.149
12.3672 17.054
12.3823 17.009
12.3975 17.138
12.4127 17.201
12.4279 16.960
12.4430 16.960
12.4582 17.011
12.4734 17.040
12.4886 16.655
12.5037 16.624
12.5189 16.504
12.5341 16.502
12.5493 16.362
12.5644 15.854
12.5796 15.889
12.5948 16.150
12.6100 16.235
12.6251 16.091
12.6403 15.891
12.6555 15.738
12.6707 15.564
12.6858 15.524
12.7010 15.362
12.7162 15.332
12.7314 15.310
12.7465 15.347
12.7617 15.331
12.7769 15.160
12.7921 15.183
12.8072 15.157
12.8224 14.915
12.8376 14.644
12.8528 14.799
12.8679 14.812
12.8831 14.521
12.8983 14.552
12.9135 14.573
12.9286 14.454
12.9438 14.476
12.9590 14.456
12.9742 14.464
12.9893 14.374
13.0045 14.236
13.0197 14.150
13.0349 14.100
13.0500 14.080
13.0652 13.936
13.0804 14.063
13.0956 14.142
13.1107 13.952
13.1259 13.883
13.1411 13.811
13.1563 13.603
13.1714 13.424
13.1866 13.401
13.2018 13.548
13.2170 13.623
13.2321 13.341
13.2473 13.253
13.2625 13.299
13.2777 13.166
13.2928 13.350
13.3080 13.226
13.3232 12.908
13.3384 13.066
13.3535 13.117
13.3687 13.170
13.3839 13.129
13.3991 12.975
13.4142 13.036
13.4294 13.061
13.4446 12.695
13.4598 12.383
13.4749 12.543
13.4901 12.500
13.5053 12.315
13.5205 12.494
13.5356 12.553
13.5508 12.520
13.5660 12.282
13.5812 12.185
13.5963 12.274
13.6115 12.095
13.6267 12.174
13.6419 12.219
13.6570 12.329
13.6722 12.173
13.6874 12.035
13.7026 12.271
13.7177 12.132
13.7329 11.796
13.7481 11.862
13.7633 12.056
13.7784 12.118
13.7936 12.072
13.8088 12.097
13.8239 11.925
13.8391 11.822
13.8543 12.101
13.8695 12.467
13.8846 12.658
13.8998 12.394
13.9150 12.139
13.9302 11.946
13.9453 12.017
13.9605 11.685
13.9757 11.762
13.9909 11.631
14.0060 11.855
14.0212 11.575
14.0364 11.633
14.0516 11.589
14.0667 11.695
14.0819 11.677
14.0971 11.710
14.1123 11.743
14.1274 11.582
14.1426 11.844
14.1578 12.004
14.1730 11.616
14.1881 11.751
14.2033 11.753
14.2185 11.693
14.2337 11.583
14.2488 11.949
14.2640 12.066
14.2792 11.736
14.2944 11.715
14.3095 11.913
14.3247 12.118
14.3399 12.310
14.3551 12.289
14.3702 12.339
14.3854 13.081
14.4006 12.952
14.4158 12.780
14.4309 12.918
14.4461 12.881
14.4613 12.648
14.4765 12.573
14.4916 12.137
14.5068 12.040
14.5220 11.789
14.5372 11.304
14.5523 10.800
14.5675 11.053
14.5827 10.902
14.5979 10.558
14.6130 10.607
14.6282 10.874
14.6434 10.958
14.6586 11.075
14.6737 10.753
14.6889 10.600
14.7041 10.611
14.7193 10.683
14.7344 10.571
14.7496 10.550
14.7648 10.740
14.7800 10.585
14.7951 10.232
14.8103 10.511
14.8255 10.313
14.8407 10.393
14.8558 10.165
14.8710 10.259
14.8862 10.569
14.9014 10.497
14.9165 10.505
14.9317 10.656
14.9469 10.565
14.9621 10.243
14.9772 10.013
14.9924 9.802
15.0076 10.195
15.0228 10.392
15.0379 10.649
15.0531 10.686
15.0683 10.139
15.0835 10.581
15.0986 10.305
15.1138 10.190
15.1290 10.628
15.1442 9.874
15.1593 10.351
15.1745 10.116
15.1897 9.984
15.2049 10.032
15.2200 10.076
15.2352 9.871
15.2504 10.142
15.2656 10.188
15.2807 10.068
15.2959 9.959
15.3111 10.230
15.3263 10.071
15.3414 9.870
15.3566 10.219
15.3718 10.172
15.3870 10.193
15.4021 10.136
15.4173 10.270
15.4325 10.370
15.4477 10.194
15.4628 10.013
15.4780 10.008
15.4932 9.763
15.5084 10.123
15.5235 10.235
15.5387 10.241
15.5539 9.950
15.5691 9.864
15.5842 9.595
15.5994 9.619
15.6146 9.749
15.6298 9.683
15.6449 9.428
15.6601 9.664
15.6753 9.840
15.6905 9.595
15.7056 9.844
15.7208 9.687
15.7360 9.877
15.7512 9.948
15.7663 9.747
15.7815 9.523
15.7967 9.596
15.8119 9.603
15.8270 9.797
15.8422 9.744
15.8574 9.626
15.8726 9.548
15.8877 9.510
15.9029 9.473
15.9181 9.655
15.9333 9.615
15.9484 9.496
15.9636 9.653
15.9788 9.771
15.9940 9.759
16.0091 9.748
16.0243 9.716
16.0395 9.657
16.0547 9.554
16.0698 9.457
16.0850 9.271
16.1002 9.487
16.1154 9.596
16.1305 9.840
16.1457 9.607
16.1609 9.399
16.1761 9.515
16.1912 9.526
16.2064 9.766
16.2216 9.485
16.2368 9.570
16.2519 9.603
16.2671 9.798
16.2823 9.527
16.2975 9.721
16.3126 9.880
16.3278 9.452
16.3430 9.539
16.3582 9.728
16.3733 9.733
16.3885 9.738
16.4037 10.027
16.4189 10.093
16.4340 9.798
16.4492 9.692
16.4644 9.550
16.4796 9.469
16.4947 9.684
16.5099 9.811
16.5251 9.683
16.5403 9.589
16.5554 9.594
16.5706 9.559
16.5858 9.647
16.6010 9.708
16.6161 9.700
16.6313 9.594
16.6465 9.668
16.6617 9.681
16.6768 9.753
16.6920 9.817
16.7072 10.038
16.7224 10.140
16.7375 9.982
16.7527 9.789
16.7679 10.189
16.7831 10.196
16.7982 9.969
16.8134 9.988
16.8286 9.913
16.8438 9.927
16.8589 9.782
16.8741 9.938
16.8893 9.932
16.9045 9.712
16.9196 9.625
16.9348 9.669
16.9500 9.819
16.9652 9.800
16.9803 9.885
16.9955 9.869
17.0107 9.642
17.0259 9.750
17.0410 9.966
17.0562 10.040
17.0714 10.190
17.0866 10.286
17.1017 10.412
17.1169 10.647
17.1321 10.944
17.1473 11.162
17.1624 11.574
17.1776 12.358
17.1928 12.925
17.2080 13.607
17.2231 14.950
17.2383 16.341
17.2535 17.604
17.2687 18.577
17.2838 18.593
17.2990 17.846
17.3142 17.138
17.3294 16.426
17.3445 15.803
17.3597 15.630
17.3749 15.785
17.3901 15.218
17.4052 14.030
17.4204 13.328
17.4356 12.682
17.4508 12.258
17.4659 11.990
17.4811 11.575
17.4963 11.324
17.5115 11.251
17.5266 11.141
17.5418 10.970
17.5570 10.994
17.5722 10.846
17.5873 10.946
17.6025 11.004
17.6177 11.090
17.6329 11.407
17.6480 11.323
17.6632 11.466
17.6784 11.415
17.6936 11.511
17.7087 11.547
17.7239 11.191
17.7391 11.061
17.7543 10.971
17.7694 10.934
17.7846 10.995
17.7998 10.987
17.8150 10.836
17.8301 10.643
17.8453 10.628
17.8605 10.295
17.8757 10.046
17.8908 10.042
17.9060 10.086
17.9212 10.098
17.9364 9.955
17.9515 10.014
17.9667 10.228
17.9819 10.202
17.9971 10.056
18.0122 10.096
18.0274 10.137
18.0426 10.353
18.0578 10.319
18.0729 10.082
18.0881 9.988
18.1033 9.940
18.1185 10.024
18.1336 10.030
18.1488 9.948
18.1640 10.044
18.1792 9.879
18.1943 9.772
18.2095 9.586
18.2247 9.775
18.2399 9.954
18.2550 9.905
18.2702 9.946
18.2854 10.011
18.3006 9.957
18.3157 9.798
18.3309 9.827
18.3461 9.772
18.3613 9.866
18.3764 9.705
18.3916 9.816
18.4068 9.897
18.4220 9.847
18.4371 9.772
18.4523 9.800
18.4675 9.928
18.4827 9.995
18.4978 9.784
18.5130 9.673
18.5282 9.634
18.5434 9.695
18.5585 9.746
18.5737 9.635
18.5889 9.626
18.6041 9.775
18.6192 9.852
18.6344 9.749
18.6496 9.889
18.6648 9.787
18.6799 9.655
18.6951 9.680
18.7103 9.709
18.7255 9.798
18.7406 9.824
18.7558 9.823
18.7710 9.686
18.7862 9.981
18.8013 9.943
18.8165 9.757
18.8317 9.740
18.8469 9.703
18.8620 9.794
18.8772 10.045
18.8924 9.972
18.9076 9.879
18.9227 9.828
18.9379 9.933
18.9531 9.958
18.9683 10.075
18.9834 10.110
18.9986 10.240
19.0138 10.422
19.0290 9.968
19.0441 9.891
19.0593 10.213
19.0745 10.319
19.0897 10.317
19.1048 10.338
19.1200 10.384
19.1352 10.490
19.1504 10.600
19.1655 10.641
19.1807 10.437
19.1959 10.377
19.2111 10.565
19.2262 10.575
19.2414 10.750
19.2566 10.800
19.2718 10.785
19.2869 10.871
19.3021 10.824
19.3173 11.065
19.3325 11.103
19.3476 11.127
19.3628 11.151
19.3780 11.011
19.3932 10.883
19.4083 11.144
19.4235 11.350
19.4387 11.312
19.4539 11.268
19.4690 11.397
19.4842 11.382
19.4994 11.477
19.5146 11.445
19.5297 11.550
19.5449 11.762
19.5601 11.643
19.5753 11.556
19.5904 11.370
19.6056 11.514
19.6208 11.789
19.6360 11.820
19.6511 11.619
19.6663 11.465
19.6815 11.445
19.6967 11.496
19.7118 11.839
19.7270 11.847
19.7422 11.504
19.7574 11.591
19.7725 11.817
19.7877 11.893
19.8029 11.917
19.8180 11.839
19.8332 12.064
19.8484 12.265
19.8636 12.257
19.8787 12.619
19.8939 12.913
19.9091 13.111
19.9243 13.342
19.9394 13.826
19.9546 14.350
19.9698 14.314
19.9850 14.535
20.0001 14.452
20.0153 14.034
20.0305 14.123
20.0457 13.817
20.0608 13.611
20.0760 13.842
20.0912 13.768
20.1064 13.864
20.1215 13.901
20.1367 13.436
20.1519 13.151
20.1671 13.015
20.1822 12.772
20.1974 12.836
20.2126 12.899
20.2278 12.785
20.2429 12.508
20.2581 12.488
20.2733 12.220
20.2885 11.808
20.3036 11.695
20.3188 11.988
20.3340 12.204
20.3492 11.846
20.3643 12.173
20.3795 12.145
20.3947 11.685
20.4099 11.622
20.4250 11.562
20.4402 11.657
20.4554 11.804
20.4706 11.804
20.4857 11.620
20.5009 11.573
20.5161 11.681
20.5313 11.425
20.5464 11.346
20.5616 11.145
20.5768 11.129
20.5920 11.000
20.6071 11.026
20.6223 10.854
20.6375 10.817
20.6527 10.661
20.6678 10.662
20.6830 10.420
20.6982 10.436
20.7134 10.650
20.7285 10.521
20.7437 10.467
20.7589 10.666
20.7741 10.664
20.7892 10.418
20.8044 10.223
20.8196 10.160
20.8348 10.352
20.8499 10.179
20.8651 10.325
20.8803 10.278
20.8955 10.089
20.9106 10.013
20.9258 9.754
20.9410 10.227
20.9562 10.215
20.9713 10.288
20.9865 10.264
21.0017 10.144
21.0169 9.832
21.0320 9.982
21.0472 9.959
21.0624 10.001
21.0776 9.867
21.0927 10.082
21.1079 9.646
21.1231 10.004
21.1383 9.903
21.1534 9.544
21.1686 9.868
21.1838 9.885
21.1990 9.571
21.2141 9.921
21.2293 9.583
21.2445 9.647
21.2597 9.337
21.2748 9.840
21.2900 9.562
21.3052 9.360
21.3204 9.347
21.3355 9.613
21.3507 9.522
21.3659 9.498
21.3811 9.579
21.3962 9.760
21.4114 9.458
21.4266 9.777
21.4418 9.499
21.4569 9.476
21.4721 9.244
21.4873 9.248
21.5025 9.098
21.5176 9.229
21.5328 9.521
21.5480 9.075
21.5632 9.266
21.5783 9.266
21.5935 9.168
21.6087 9.042
21.6239 9.326
21.6390 9.156
21.6542 9.052
21.6694 9.209
21.6846 9.191
21.6997 9.022
21.7149 8.980
21.7301 8.734
21.7453 8.722
21.7604 8.841
21.7756 9.008
21.7908 8.993
21.8060 8.950
21.8211 9.103
21.8363 9.049
21.8515 8.929
21.8667 8.850
21.8818 8.989
21.8970 8.963
21.9122 8.966
21.9274 9.102
21.9425 8.939
21.9577 8.908
21.9729 8.885
21.9881 8.914
22.0032 8.920
22.0184 8.707
22.0336 8.804
22.0488 8.948
22.0639 8.812
22.0791 8.786
22.0943 8.877
22.1095 8.611
22.1246 8.565
22.1398 8.579
22.1550 8.551
22.1702 8.693
22.1853 8.858
22.2005 8.672
22.2157 8.568
22.2309 8.669
22.2460 8.594
22.2612 8.613
22.2764 8.365
22.2916 8.355
22.3067 8.420
22.3219 8.358
22.3371 8.425
22.3523 8.445
22.3674 8.562
22.3826 8.656
22.3978 8.501
22.4130 8.282
22.4281 8.519
22.4433 8.191
22.4585 8.329
22.4737 8.413
22.4888 8.409
22.5040 8.472
22.5192 8.226
22.5344 8.390
22.5495 8.542
22.5647 8.595
22.5799 8.354
22.5951 8.278
22.6102 8.295
22.6254 8.151
22.6406 8.308
22.6558 8.499
22.6709 8.207
22.6861 8.167
22.7013 8.099
22.7165 7.795
22.7316 6.329
