'Id: "" Comment: "" Operator: "Lab Manager" Anode: "Mo" Scantype: "Still (Eiger2R_500K (1D mode))" TimePerStep: "300" X: "11.8" Y: "9.4" Z: "11.284" 
7.2532 19.471
7.2684 19.464
7.2836 19.093
7.2987 19.418
7.3139 19.289
7.3291 19.773
7.3443 19.443
7.3594 19.957
7.3746 19.930
7.3898 19.502
7.4050 19.912
7.4201 19.951
7.4353 19.541
7.4505 19.259
7.4657 19.411
7.4808 19.836
7.4960 19.530
7.5112 19.710
7.5264 20.024
7.5415 20.053
7.5567 20.240
7.5719 20.218
7.5871 20.077
7.6022 20.226
7.6174 20.484
7.6326 20.143
7.6478 20.633
7.6629 20.872
7.6781 20.632
7.6933 20.738
7.7085 20.744
7.7236 20.781
7.7388 20.867
7.7540 20.809
7.7692 21.006
7.7843 20.880
7.7995 20.589
7.8147 20.935
7.8299 21.003
7.8450 20.956
7.8602 20.966
7.8754 20.863
7.8905 21.027
7.9057 21.142
7.9209 21.181
7.9361 21.035
7.9512 21.518
7.9664 21.462
7.9816 21.355
7.9968 21.387
8.0119 21.350
8.0271 21.460
8.0423 21.347
8.0575 21.398
8.0726 21.708
8.0878 21.596
8.1030 21.697
8.1182 21.912
8.1333 22.117
8.1485 21.911
8.1637 22.022
8.1789 21.474
8.1940 22.051
8.2092 22.022
8.2244 22.013
8.2396 22.371
8.2547 22.049
8.2699 22.034
8.2851 21.798
8.3003 22.159
8.3154 22.233
8.3306 21.761
8.3458 21.896
8.3610 22.250
8.3761 22.328
8.3913 21.791
8.4065 22.123
8.4217 22.379
8.4368 21.937
8.4520 22.496
8.4672 22.447
8.4824 22.785
8.4975 22.788
8.5127 22.458
8.5279 22.456
8.5431 22.009
8.5582 22.206
8.5734 22.943
8.5886 22.672
8.6038 22.599
8.6189 21.941
8.6341 22.832
8.6493 22.647
8.6645 22.914
8.6796 22.620
8.6948 22.739
8.7100 22.786
8.7252 22.915
8.7403 22.956
8.7555 22.790
8.7707 22.821
8.7859 23.029
8.8010 22.536
8.8162 22.466
8.8314 23.117
8.8466 22.584
8.8617 22.891
8.8769 22.730
8.8921 22.503
8.9073 22.459
8.9224 22.608
8.9376 22.555
8.9528 22.789
8.9680 23.095
8.9831 22.900
8.9983 23.063
9.0135 22.693
9.0287 22.749
9.0438 22.648
9.0590 22.865
9.0742 22.837
9.0894 22.892
9.1045 23.053
9.1197 23.409
9.1349 23.354
9.1501 23.184
9.1652 23.414
9.1804 23.213
9.1956 22.942
9.2108 23.336
9.2259 23.238
9.2411 23.331
9.2563 23.470
9.2715 22.929
9.2866 23.076
9.3018 22.999
9.3170 23.259
9.3322 23.689
9.3473 23.346
9.3625 23.241
9.3777 22.982
9.3929 23.404
9.4080 23.627
9.4232 23.111
9.4384 23.053
9.4536 23.334
9.4687 23.465
9.4839 23.391
9.4991 23.506
9.5143 23.934
9.5294 23.757
9.5446 23.478
9.5598 23.384
9.5750 23.493
9.5901 23.541
9.6053 23.347
9.6205 23.685
9.6357 23.756
9.6508 24.012
9.6660 24.204
9.6812 24.348
9.6964 24.361
9.7115 24.052
9.7267 24.560
9.7419 24.774
9.7571 24.891
9.7722 24.691
9.7874 24.314
9.8026 24.232
9.8178 23.910
9.8329 23.749
9.8481 24.209
9.8633 24.313
9.8785 24.163
9.8936 24.336
9.9088 24.522
9.9240 24.761
9.9392 24.618
9.9543 24.440
9.9695 24.530
9.9847 24.253
9.9999 24.167
10.0150 24.344
10.0302 23.928
10.0454 23.960
10.0606 23.931
10.0757 23.743
10.0909 23.907
10.1061 24.221
10.1213 24.319
10.1364 24.332
10.1516 24.411
10.1668 24.491
10.1820 24.247
10.1971 24.061
10.2123 23.726
10.2275 23.552
10.2427 23.861
10.2578 23.734
10.2730 23.576
10.2882 23.881
10.3034 23.585
10.3185 23.606
10.3337 23.320
10.3489 23.200
10.3641 23.423
10.3792 23.372
10.3944 23.227
10.4096 23.297
10.4248 23.576
10.4399 23.484
10.4551 23.207
10.4703 23.501
10.4855 23.403
10.5006 23.187
10.5158 23.407
10.5310 23.328
10.5462 23.170
10.5613 22.941
10.5765 23.008
10.5917 23.077
10.6069 22.867
10.6220 23.388
10.6372 22.944
10.6524 22.662
10.6676 22.936
10.6827 23.118
10.6979 23.163
10.7131 22.901
10.7283 22.618
10.7434 22.753
10.7586 22.782
10.7738 22.588
10.7890 22.716
10.8041 22.811
10.8193 22.802
10.8345 22.714
10.8497 22.433
10.8648 22.592
10.8800 22.309
10.8952 22.395
10.9104 22.599
10.9255 22.503
10.9407 22.459
10.9559 22.751
10.9711 22.700
10.9862 22.592
11.0014 22.402
11.0166 21.978
11.0318 22.260
11.0469 22.297
11.0621 22.077
11.0773 21.888
11.0925 22.250
11.1076 22.580
11.1228 22.416
11.1380 22.087
11.1532 22.065
11.1683 21.841
11.1835 21.759
11.1987 21.868
11.2139 22.156
11.2290 22.318
11.2442 21.948
11.2594 21.654
11.2746 21.861
11.2897 21.652
11.3049 21.631
11.3201 21.936
11.3353 21.806
11.3504 21.796
11.3656 21.693
11.3808 21.686
11.3960 21.362
11.4111 21.480
11.4263 21.588
11.4415 21.390
11.4567 21.179
11.4718 21.527
11.4870 21.772
11.5022 21.293
11.5174 21.424
11.5325 21.590
11.5477 21.755
11.5629 21.660
11.5781 21.414
11.5932 21.634
11.6084 21.233
11.6236 20.848
11.6388 20.723
11.6539 20.693
11.6691 20.720
11.6843 20.679
11.6995 20.778
11.7146 20.766
11.7298 20.650
11.7450 20.806
11.7602 20.756
11.7753 20.585
11.7905 20.548
11.8057 20.242
11.8209 20.171
11.8360 20.287
11.8512 20.130
11.8664 20.237
11.8816 20.001
11.8967 19.947
11.9119 19.834
11.9271 19.775
11.9423 19.841
11.9574 19.677
11.9726 19.159
11.9878 19.134
12.0030 19.200
12.0181 19.135
12.0333 19.197
12.0485 19.043
12.0637 18.962
12.0788 18.879
12.0940 18.633
12.1092 18.697
12.1244 18.722
12.1395 18.708
12.1547 18.558
12.1699 18.916
12.1851 18.605
12.2002 18.409
12.2154 18.155
12.2306 18.166
12.2458 18.336
12.2609 18.261
12.2761 17.969
12.2913 17.797
12.3065 18.026
12.3216 17.871
12.3368 17.501
12.3520 17.636
12.3672 17.607
12.3823 17.472
12.3975 17.191
12.4127 17.261
12.4279 17.259
12.4430 17.325
12.4582 17.098
12.4734 16.931
12.4886 16.567
12.5037 16.589
12.5189 16.691
12.5341 16.542
12.5493 16.567
12.5644 16.425
12.5796 16.486
12.5948 16.449
12.6100 16.262
12.6251 16.467
12.6403 16.297
12.6555 15.869
12.6707 15.740
12.6858 15.793
12.7010 15.858
12.7162 15.581
12.7314 15.573
12.7465 15.535
12.7617 15.519
12.7769 15.341
12.7921 15.185
12.8072 15.159
12.8224 15.200
12.8376 15.011
12.8528 14.682
12.8679 14.642
12.8831 14.672
12.8983 14.579
12.9135 14.511
12.9286 14.846
12.9438 14.714
12.9590 14.447
12.9742 14.675
12.9893 14.566
13.0045 14.309
13.0197 14.155
13.0349 14.203
13.0500 14.280
13.0652 14.481
13.0804 14.446
13.0956 14.146
13.1107 13.856
13.1259 13.602
13.1411 13.547
13.1563 13.497
13.1714 13.621
13.1866 13.731
13.2018 13.656
13.2170 13.573
13.2321 13.483
13.2473 13.484
13.2625 13.483
13.2777 13.444
13.2928 13.455
13.3080 13.243
13.3232 13.111
13.3384 13.237
13.3535 13.176
13.3687 13.089
13.3839 13.068
13.3991 13.245
13.4142 13.266
13.4294 12.907
13.4446 12.737
13.4598 12.526
13.4749 12.663
13.4901 12.691
13.5053 12.740
13.5205 12.499
13.5356 12.286
13.5508 12.114
13.5660 12.132
13.5812 12.202
13.5963 12.327
13.6115 12.464
13.6267 12.520
13.6419 12.379
13.6570 12.315
13.6722 12.210
13.6874 12.229
13.7026 12.142
13.7177 11.951
13.7329 12.009
13.7481 12.020
13.7633 12.149
13.7784 12.135
13.7936 12.156
13.8088 12.349
13.8239 12.327
13.8391 12.307
13.8543 12.452
13.8695 12.383
13.8846 12.038
13.8998 11.965
13.9150 12.171
13.9302 12.160
13.9453 12.037
13.9605 11.982
13.9757 12.097
13.9909 11.911
14.0060 11.575
14.0212 11.721
14.0364 11.618
14.0516 11.463
14.0667 11.301
14.0819 11.538
14.0971 11.358
14.1123 11.329
14.1274 11.565
14.1426 11.548
14.1578 11.276
14.1730 11.188
14.1881 11.502
14.2033 11.412
14.2185 11.569
14.2337 11.543
14.2488 11.273
14.2640 11.399
14.2792 11.595
14.2944 11.546
14.3095 11.722
14.3247 12.128
14.3399 12.537
14.3551 12.556
14.3702 13.055
14.3854 13.435
14.4006 14.116
14.4158 14.452
14.4309 15.162
14.4461 15.186
14.4613 14.629
14.4765 13.914
14.4916 14.104
14.5068 13.981
14.5220 13.718
14.5372 13.159
14.5523 12.251
14.5675 11.981
14.5827 11.879
14.5979 11.549
14.6130 11.529
14.6282 11.424
14.6434 11.347
14.6586 10.994
14.6737 11.293
14.6889 11.065
14.7041 11.449
14.7193 11.188
14.7344 11.218
14.7496 11.214
14.7648 11.317
14.7800 11.573
14.7951 11.275
14.8103 11.153
14.8255 11.371
14.8407 11.244
14.8558 11.101
14.8710 11.050
14.8862 11.279
14.9014 10.839
14.9165 11.340
14.9317 11.151
14.9469 10.876
14.9621 11.089
14.9772 10.726
14.9924 10.694
15.0076 10.841
15.0228 10.508
15.0379 10.598
15.0531 10.877
15.0683 10.516
15.0835 10.593
15.0986 10.753
15.1138 10.854
15.1290 10.557
15.1442 10.821
15.1593 10.630
15.1745 10.986
15.1897 10.440
15.2049 10.379
15.2200 10.480
15.2352 10.192
15.2504 10.658
15.2656 10.806
15.2807 10.537
15.2959 10.723
15.3111 10.436
15.3263 10.080
15.3414 10.558
15.3566 10.792
15.3718 10.599
15.3870 10.399
15.4021 10.465
15.4173 10.304
15.4325 10.688
15.4477 10.363
15.4628 10.431
15.4780 10.281
15.4932 10.346
15.5084 10.503
15.5235 10.359
15.5387 10.275
15.5539 10.535
15.5691 10.641
15.5842 10.661
15.5994 10.147
15.6146 10.348
15.6298 10.515
15.6449 10.282
15.6601 10.148
15.6753 10.122
15.6905 10.200
15.7056 10.242
15.7208 10.374
15.7360 9.893
15.7512 9.699
15.7663 10.082
15.7815 9.981
15.7967 9.994
15.8119 9.955
15.8270 10.212
15.8422 9.943
15.8574 10.049
15.8726 9.764
15.8877 9.875
15.9029 9.813
15.9181 9.828
15.9333 10.157
15.9484 9.888
15.9636 9.709
15.9788 9.869
15.9940 9.540
16.0091 9.630
16.0243 9.970
16.0395 9.591
16.0547 9.779
16.0698 9.753
16.0850 9.909
16.1002 10.017
16.1154 9.669
16.1305 9.657
16.1457 9.959
16.1609 9.976
16.1761 9.750
16.1912 9.789
16.2064 9.607
16.2216 9.919
16.2368 9.968
16.2519 10.019
16.2671 10.084
16.2823 10.302
16.2975 10.457
16.3126 10.271
16.3278 9.895
16.3430 9.990
16.3582 10.511
16.3733 10.483
16.3885 10.315
16.4037 10.237
16.4189 10.291
16.4340 10.089
16.4492 10.006
16.4644 10.245
16.4796 10.040
16.4947 9.957
16.5099 10.079
16.5251 9.926
16.5403 9.807
16.5554 9.932
16.5706 9.860
16.5858 9.758
16.6010 9.941
16.6161 10.066
16.6313 9.953
16.6465 10.015
16.6617 10.053
16.6768 9.992
16.6920 10.060
16.7072 10.125
16.7224 10.189
16.7375 10.349
16.7527 10.199
16.7679 10.079
16.7831 10.319
16.7982 10.159
16.8134 9.913
16.8286 9.813
16.8438 9.698
16.8589 9.873
16.8741 10.109
16.8893 9.995
16.9045 9.907
16.9196 9.794
16.9348 9.765
16.9500 10.131
16.9652 10.157
16.9803 9.938
16.9955 10.049
17.0107 10.221
17.0259 10.171
17.0410 10.085
17.0562 10.259
17.0714 10.349
17.0866 10.351
17.1017 10.669
17.1169 10.887
17.1321 11.062
17.1473 11.299
17.1624 12.015
17.1776 12.711
17.1928 13.255
17.2080 14.157
17.2231 15.257
17.2383 16.456
17.2535 17.702
17.2687 18.210
17.2838 18.189
17.2990 17.937
17.3142 17.067
17.3294 16.325
17.3445 16.098
17.3597 16.340
17.3749 16.111
17.3901 15.281
17.4052 14.263
17.4204 13.086
17.4356 12.308
17.4508 11.950
17.4659 11.903
17.4811 11.740
17.4963 11.398
17.5115 10.921
17.5266 10.611
17.5418 10.634
17.5570 10.660
17.5722 10.667
17.5873 10.579
17.6025 10.677
17.6177 10.696
17.6329 10.773
17.6480 11.169
17.6632 11.461
17.6784 11.996
17.6936 12.523
17.7087 12.875
17.7239 13.181
17.7391 12.846
17.7543 12.393
17.7694 12.196
17.7846 12.315
17.7998 12.550
17.8150 12.746
17.8301 12.755
17.8453 12.332
17.8605 12.157
17.8757 12.035
17.8908 11.785
17.9060 11.681
17.9212 11.591
17.9364 11.309
17.9515 11.081
17.9667 11.111
17.9819 10.973
17.9971 11.026
18.0122 10.962
18.0274 10.696
18.0426 10.836
18.0578 10.713
18.0729 10.435
18.0881 10.295
18.1033 10.043
18.1185 10.218
18.1336 10.315
18.1488 10.306
18.1640 10.386
18.1792 10.251
18.1943 10.011
18.2095 9.859
18.2247 9.982
18.2399 10.076
18.2550 10.150
18.2702 10.216
18.2854 10.187
18.3006 10.035
18.3157 9.982
18.3309 10.009
18.3461 9.901
18.3613 9.872
18.3764 10.120
18.3916 9.942
18.4068 9.883
18.4220 9.946
18.4371 10.014
18.4523 9.989
18.4675 9.987
18.4827 9.853
18.4978 9.729
18.5130 10.069
18.5282 10.114
18.5434 9.900
18.5585 9.875
18.5737 9.932
18.5889 9.965
18.6041 10.052
18.6192 9.855
18.6344 9.778
18.6496 9.763
18.6648 9.974
18.6799 9.876
18.6951 9.892
18.7103 9.995
18.7255 9.875
18.7406 9.865
18.7558 10.179
18.7710 9.886
18.7862 9.941
18.8013 9.909
18.8165 9.869
18.8317 9.951
18.8469 9.887
18.8620 9.942
18.8772 10.029
18.8924 10.150
18.9076 10.273
18.9227 10.076
18.9379 10.089
18.9531 10.154
18.9683 10.081
18.9834 10.084
18.9986 9.956
19.0138 10.050
19.0290 10.195
19.0441 10.144
19.0593 10.262
19.0745 10.281
19.0897 10.429
19.1048 10.492
19.1200 10.518
19.1352 10.589
19.1504 10.651
19.1655 10.647
19.1807 10.631
19.1959 10.777
19.2111 10.823
19.2262 10.688
19.2414 10.656
19.2566 10.700
19.2718 10.823
19.2869 11.206
19.3021 11.156
19.3173 11.096
19.3325 11.184
19.3476 10.987
19.3628 11.283
19.3780 11.376
19.3932 11.265
19.4083 11.293
19.4235 11.234
19.4387 11.347
19.4539 11.811
19.4690 11.812
19.4842 11.705
19.4994 11.784
19.5146 11.427
19.5297 11.301
19.5449 11.307
19.5601 11.525
19.5753 11.831
19.5904 11.844
19.6056 11.644
19.6208 11.578
19.6360 11.728
19.6511 11.900
19.6663 11.876
19.6815 11.880
19.6967 11.887
19.7118 11.867
19.7270 11.968
19.7422 11.811
19.7574 11.674
19.7725 11.760
19.7877 11.955
19.8029 12.102
19.8180 12.182
19.8332 12.213
19.8484 12.280
19.8636 12.554
19.8787 12.827
19.8939 12.927
19.9091 13.157
19.9243 13.459
19.9394 13.795
19.9546 14.116
19.9698 14.303
19.9850 14.534
20.0001 14.810
20.0153 14.652
20.0305 14.414
20.0457 14.115
20.0608 13.948
20.0760 13.736
20.0912 13.511
20.1064 13.741
20.1215 13.706
20.1367 13.318
20.1519 13.084
20.1671 13.068
20.1822 12.640
20.1974 12.603
20.2126 12.710
20.2278 12.758
20.2429 12.603
20.2581 12.323
20.2733 12.195
20.2885 12.066
20.3036 11.733
20.3188 11.672
20.3340 11.636
20.3492 11.606
20.3643 11.484
20.3795 11.532
20.3947 11.663
20.4099 11.769
20.4250 11.402
20.4402 11.457
20.4554 11.831
20.4706 12.324
20.4857 12.434
20.5009 12.299
20.5161 12.049
20.5313 11.541
20.5464 11.537
20.5616 11.375
20.5768 11.318
20.5920 11.664
20.6071 11.876
20.6223 11.671
20.6375 11.382
20.6527 11.361
20.6678 11.026
20.6830 10.603
20.6982 10.619
20.7134 10.632
20.7285 10.310
20.7437 10.488
20.7589 10.390
20.7741 10.241
20.7892 10.554
20.8044 10.332
20.8196 10.544
20.8348 10.482
20.8499 10.486
20.8651 10.190
20.8803 10.250
20.8955 10.547
20.9106 10.661
20.9258 10.697
20.9410 10.539
20.9562 10.405
20.9713 10.407
20.9865 10.493
21.0017 10.755
21.0169 10.402
21.0320 10.579
21.0472 10.487
21.0624 10.601
21.0776 10.714
21.0927 10.557
21.1079 10.260
21.1231 10.288
21.1383 9.962
21.1534 10.218
21.1686 9.996
21.1838 9.967
21.1990 10.085
21.2141 9.823
21.2293 9.970
21.2445 9.872
21.2597 9.981
21.2748 9.616
21.2900 9.619
21.3052 9.764
21.3204 9.751
21.3355 9.804
21.3507 9.349
21.3659 9.645
21.3811 9.554
21.3962 9.557
21.4114 9.463
21.4266 9.480
21.4418 9.554
21.4569 9.583
21.4721 9.400
21.4873 9.560
21.5025 9.258
21.5176 9.182
21.5328 9.412
21.5480 9.408
21.5632 9.293
21.5783 9.358
21.5935 9.226
21.6087 9.104
21.6239 9.489
21.6390 9.477
21.6542 9.024
21.6694 9.103
21.6846 9.196
21.6997 9.126
21.7149 9.157
21.7301 8.892
21.7453 8.932
21.7604 9.056
21.7756 8.807
21.7908 9.245
21.8060 9.179
21.8211 9.147
21.8363 9.144
21.8515 8.985
21.8667 9.095
21.8818 9.126
21.8970 9.270
21.9122 9.138
21.9274 9.212
21.9425 9.203
21.9577 8.917
21.9729 9.159
21.9881 9.140
22.0032 9.061
22.0184 9.060
22.0336 8.963
22.0488 8.879
22.0639 8.719
22.0791 8.942
22.0943 8.908
22.1095 8.740
22.1246 8.799
22.1398 8.706
22.1550 8.607
22.1702 8.734
22.1853 8.673
22.2005 8.701
22.2157 8.696
22.2309 8.775
22.2460 8.690
22.2612 8.543
22.2764 8.433
22.2916 8.535
22.3067 8.507
22.3219 8.577
22.3371 8.427
22.3523 8.415
22.3674 8.371
22.3826 8.538
22.3978 8.550
22.4130 8.671
22.4281 8.477
22.4433 8.373
22.4585 8.503
22.4737 8.317
22.4888 8.752
22.5040 8.538
22.5192 8.570
22.5344 8.589
22.5495 8.634
22.5647 8.510
22.5799 8.834
22.5951 8.366
22.6102 8.525
22.6254 8.297
22.6406 8.571
22.6558 8.199
22.6709 8.480
22.6861 8.331
22.7013 8.402
22.7165 7.939
22.7316 6.553
