'Id: "" Comment: "" Operator: "Lab Manager" Anode: "Mo" Scantype: "Still (Eiger2R_500K (1D mode))" TimePerStep: "300" X: "11.8" Y: "9.4" Z: "11.284" 
7.2532 19.159
7.2684 19.004
7.2836 18.517
7.2987 19.288
7.3139 18.408
7.3291 19.129
7.3443 18.943
7.3594 18.918
7.3746 19.039
7.3898 19.114
7.4050 19.223
7.4201 19.047
7.4353 19.248
7.4505 20.045
7.4657 19.419
7.4808 19.115
7.4960 19.375
7.5112 19.477
7.5264 19.743
7.5415 19.795
7.5567 19.476
7.5719 19.434
7.5871 19.784
7.6022 19.892
7.6174 20.115
7.6326 19.748
7.6478 19.652
7.6629 19.757
7.6781 19.845
7.6933 19.841
7.7085 19.976
7.7236 20.198
7.7388 20.360
7.7540 20.442
7.7692 20.157
7.7843 20.019
7.7995 20.464
7.8147 20.846
7.8299 20.760
7.8450 20.472
7.8602 20.604
7.8754 20.774
7.8905 20.795
7.9057 20.723
7.9209 20.632
7.9361 20.728
7.9512 21.047
7.9664 21.009
7.9816 20.964
7.9968 21.139
8.0119 21.271
8.0271 21.105
8.0423 20.745
8.0575 20.856
8.0726 21.227
8.0878 21.153
8.1030 21.067
8.1182 21.486
8.1333 21.120
8.1485 20.928
8.1637 21.264
8.1789 21.174
8.1940 21.425
8.2092 21.283
8.2244 21.148
8.2396 21.439
8.2547 21.280
8.2699 21.476
8.2851 21.281
8.3003 21.389
8.3154 21.629
8.3306 21.495
8.3458 21.649
8.3610 21.761
8.3761 21.607
8.3913 21.367
8.4065 21.586
8.4217 21.418
8.4368 21.868
8.4520 21.718
8.4672 22.054
8.4824 21.938
8.4975 21.617
8.5127 22.057
8.5279 21.760
8.5431 22.234
8.5582 22.190
8.5734 21.842
8.5886 22.482
8.6038 22.764
8.6189 21.630
8.6341 22.138
8.6493 22.068
8.6645 22.673
8.6796 21.611
8.6948 21.896
8.7100 21.966
8.7252 22.190
8.7403 22.545
8.7555 21.788
8.7707 22.521
8.7859 22.299
8.8010 22.372
8.8162 22.457
8.8314 22.566
8.8466 22.689
8.8617 22.685
8.8769 22.276
8.8921 22.071
8.9073 22.250
8.9224 22.489
8.9376 22.462
8.9528 21.886
8.9680 22.274
8.9831 22.963
8.9983 22.443
9.0135 22.352
9.0287 22.426
9.0438 22.719
9.0590 22.735
9.0742 22.508
9.0894 23.141
9.1045 23.022
9.1197 23.033
9.1349 23.092
9.1501 22.573
9.1652 22.791
9.1804 22.856
9.1956 22.539
9.2108 22.841
9.2259 22.761
9.2411 22.629
9.2563 22.777
9.2715 22.992
9.2866 22.955
9.3018 22.811
9.3170 22.568
9.3322 22.868
9.3473 22.941
9.3625 22.744
9.3777 23.032
9.3929 23.126
9.4080 22.909
9.4232 22.672
9.4384 22.967
9.4536 23.135
9.4687 22.812
9.4839 22.618
9.4991 23.039
9.5143 23.254
9.5294 23.213
9.5446 23.378
9.5598 23.210
9.5750 22.972
9.5901 23.187
9.6053 23.452
9.6205 23.285
9.6357 22.999
9.6508 22.975
9.6660 23.065
9.6812 23.414
9.6964 23.873
9.7115 24.004
9.7267 23.953
9.7419 23.831
9.7571 23.836
9.7722 24.025
9.7874 23.686
9.8026 23.569
9.8178 23.572
9.8329 23.561
9.8481 23.593
9.8633 23.276
9.8785 23.367
9.8936 23.502
9.9088 23.268
9.9240 23.004
9.9392 23.011
9.9543 23.257
9.9695 23.222
9.9847 23.311
9.9999 23.271
10.0150 23.147
10.0302 22.939
10.0454 23.141
10.0606 23.318
10.0757 23.382
10.0909 23.489
10.1061 23.190
10.1213 23.164
10.1364 22.998
10.1516 23.268
10.1668 23.424
10.1820 23.137
10.1971 23.272
10.2123 23.146
10.2275 23.190
10.2427 22.875
10.2578 22.869
10.2730 22.987
10.2882 22.803
10.3034 22.890
10.3185 22.746
10.3337 22.867
10.3489 22.619
10.3641 22.551
10.3792 22.706
10.3944 22.501
10.4096 22.214
10.4248 22.712
10.4399 22.762
10.4551 22.568
10.4703 22.603
10.4855 22.531
10.5006 22.617
10.5158 22.448
10.5310 22.381
10.5462 22.673
10.5613 22.557
10.5765 22.698
10.5917 22.787
10.6069 22.359
10.6220 22.572
10.6372 22.533
10.6524 22.530
10.6676 22.468
10.6827 22.458
10.6979 22.370
10.7131 22.289
10.7283 22.472
10.7434 22.382
10.7586 22.499
10.7738 22.016
10.7890 21.817
10.8041 22.139
10.8193 21.879
10.8345 22.030
10.8497 22.251
10.8648 22.148
10.8800 22.664
10.8952 21.921
10.9104 21.784
10.9255 21.933
10.9407 22.320
10.9559 22.032
10.9711 22.102
10.9862 22.196
11.0014 22.371
11.0166 22.161
11.0318 22.167
11.0469 22.030
11.0621 21.941
11.0773 22.096
11.0925 21.624
11.1076 21.601
11.1228 21.627
11.1380 22.035
11.1532 21.807
11.1683 21.633
11.1835 21.828
11.1987 21.737
11.2139 21.481
11.2290 21.751
11.2442 21.742
11.2594 21.661
11.2746 22.007
11.2897 21.586
11.3049 21.518
11.3201 21.525
11.3353 21.667
11.3504 21.670
11.3656 21.359
11.3808 21.097
11.3960 21.265
11.4111 21.517
11.4263 21.678
11.4415 21.042
11.4567 20.763
11.4718 21.200
11.4870 21.118
11.5022 21.323
11.5174 20.794
11.5325 20.874
11.5477 20.845
11.5629 20.577
11.5781 20.651
11.5932 20.862
11.6084 20.574
11.6236 20.404
11.6388 20.813
11.6539 20.592
11.6691 20.512
11.6843 20.436
11.6995 20.711
11.7146 20.555
11.7298 20.507
11.7450 20.256
11.7602 20.341
11.7753 20.371
11.7905 20.244
11.8057 20.089
11.8209 19.973
11.8360 19.858
11.8512 19.794
11.8664 19.792
11.8816 19.626
11.8967 19.919
11.9119 19.687
11.9271 19.531
11.9423 19.496
11.9574 19.350
11.9726 19.191
11.9878 19.353
12.0030 19.371
12.0181 19.182
12.0333 19.224
12.0485 19.385
12.0637 19.290
12.0788 18.938
12.0940 18.586
12.1092 18.846
12.1244 18.752
12.1395 18.537
12.1547 18.555
12.1699 18.774
12.1851 18.653
12.2002 18.381
12.2154 18.252
12.2306 18.348
12.2458 18.067
12.2609 17.822
12.2761 18.148
12.2913 17.870
12.3065 17.317
12.3216 17.369
12.3368 17.594
12.3520 17.221
12.3672 17.561
12.3823 17.678
12.3975 16.934
12.4127 16.753
12.4279 17.027
12.4430 17.003
12.4582 16.967
12.4734 16.801
12.4886 16.661
12.5037 16.611
12.5189 16.558
12.5341 16.556
12.5493 16.641
12.5644 16.454
12.5796 15.927
12.5948 16.074
12.6100 16.218
12.6251 16.270
12.6403 16.192
12.6555 16.075
12.6707 16.066
12.6858 15.798
12.7010 15.334
12.7162 15.514
12.7314 15.614
12.7465 15.497
12.7617 15.557
12.7769 15.473
12.7921 15.206
12.8072 14.993
12.8224 15.070
12.8376 15.021
12.8528 14.856
12.8679 14.722
12.8831 14.678
12.8983 14.852
12.9135 14.764
12.9286 14.745
12.9438 14.801
12.9590 14.613
12.9742 14.227
12.9893 14.335
13.0045 14.382
13.0197 14.075
13.0349 13.969
13.0500 14.064
13.0652 14.005
13.0804 14.077
13.0956 14.089
13.1107 13.898
13.1259 13.936
13.1411 13.781
13.1563 13.607
13.1714 13.620
13.1866 13.644
13.2018 13.617
13.2170 13.567
13.2321 13.369
13.2473 13.338
13.2625 13.365
13.2777 13.052
13.2928 13.136
13.3080 13.214
13.3232 12.965
13.3384 13.167
13.3535 13.151
13.3687 12.856
13.3839 12.963
13.3991 13.010
13.4142 12.943
13.4294 12.969
13.4446 12.877
13.4598 12.755
13.4749 12.850
13.4901 12.822
13.5053 12.645
13.5205 12.417
13.5356 12.516
13.5508 12.495
13.5660 12.388
13.5812 12.202
13.5963 12.236
13.6115 12.242
13.6267 12.275
13.6419 12.203
13.6570 11.921
13.6722 12.043
13.6874 12.185
13.7026 12.057
13.7177 12.178
13.7329 12.375
13.7481 12.213
13.7633 11.987
13.7784 12.173
13.7936 12.357
13.8088 12.182
13.8239 12.172
13.8391 12.395
13.8543 12.547
13.8695 12.410
13.8846 12.135
13.8998 12.210
13.9150 12.134
13.9302 12.000
13.9453 12.263
13.9605 12.096
13.9757 12.014
13.9909 11.663
14.0060 11.793
14.0212 11.838
14.0364 11.764
14.0516 11.734
14.0667 11.352
14.0819 11.673
14.0971 11.843
14.1123 11.632
14.1274 11.737
14.1426 11.920
14.1578 11.713
14.1730 11.703
14.1881 11.637
14.2033 11.818
14.2185 11.818
14.2337 11.864
14.2488 11.977
14.2640 12.004
14.2792 11.898
14.2944 11.926
14.3095 12.062
14.3247 12.248
14.3399 12.356
14.3551 12.523
14.3702 12.895
14.3854 13.100
14.4006 13.063
14.4158 12.963
14.4309 12.854
14.4461 12.759
14.4613 12.249
14.4765 12.644
14.4916 12.362
14.5068 11.793
14.5220 11.539
14.5372 11.552
14.5523 11.367
14.5675 11.114
14.5827 11.181
14.5979 10.924
14.6130 11.005
14.6282 11.120
14.6434 10.831
14.6586 10.710
14.6737 10.899
14.6889 10.591
14.7041 10.695
14.7193 10.541
14.7344 10.775
14.7496 10.453
14.7648 10.724
14.7800 10.564
14.7951 10.792
14.8103 10.704
14.8255 10.713
14.8407 10.588
14.8558 10.562
14.8710 10.310
14.8862 10.721
14.9014 10.627
14.9165 10.814
14.9317 10.638
14.9469 10.482
14.9621 10.443
14.9772 10.189
14.9924 10.333
15.0076 10.498
15.0228 10.337
15.0379 10.408
15.0531 10.176
15.0683 10.200
15.0835 10.486
15.0986 9.814
15.1138 10.231
15.1290 10.213
15.1442 9.777
15.1593 10.217
15.1745 9.968
15.1897 9.858
15.2049 10.042
15.2200 9.905
15.2352 9.850
15.2504 10.079
15.2656 10.449
15.2807 10.029
15.2959 10.091
15.3111 10.034
15.3263 10.185
15.3414 10.119
15.3566 10.125
15.3718 10.156
15.3870 9.890
15.4021 10.483
15.4173 10.117
15.4325 9.990
15.4477 10.111
15.4628 10.266
15.4780 9.947
15.4932 10.307
15.5084 10.348
15.5235 10.082
15.5387 10.213
15.5539 10.314
15.5691 10.055
15.5842 9.840
15.5994 9.715
15.6146 9.788
15.6298 9.729
15.6449 10.127
15.6601 9.853
15.6753 9.769
15.6905 9.943
15.7056 9.895
15.7208 9.514
15.7360 9.740
15.7512 9.950
15.7663 9.621
15.7815 9.626
15.7967 9.666
15.8119 9.717
15.8270 9.945
15.8422 9.568
15.8574 9.864
15.8726 9.646
15.8877 9.506
15.9029 9.527
15.9181 9.531
15.9333 9.507
15.9484 9.477
15.9636 9.784
15.9788 9.743
15.9940 9.747
16.0091 9.628
16.0243 9.599
16.0395 9.698
16.0547 9.634
16.0698 9.604
16.0850 9.740
16.1002 9.846
16.1154 9.732
16.1305 9.454
16.1457 9.529
16.1609 9.736
16.1761 9.879
16.1912 9.921
16.2064 9.747
16.2216 9.757
16.2368 10.178
16.2519 9.907
16.2671 9.511
16.2823 9.493
16.2975 9.659
16.3126 9.748
16.3278 9.874
16.3430 9.580
16.3582 9.808
16.3733 9.597
16.3885 9.645
16.4037 9.960
16.4189 9.836
16.4340 9.861
16.4492 9.756
16.4644 9.544
16.4796 9.634
16.4947 9.876
16.5099 9.808
16.5251 9.752
16.5403 9.634
16.5554 9.651
16.5706 9.628
16.5858 9.677
16.6010 9.770
16.6161 9.710
16.6313 9.757
16.6465 9.642
16.6617 9.955
16.6768 9.847
16.6920 9.511
16.7072 9.747
16.7224 9.921
16.7375 9.897
16.7527 9.862
16.7679 9.997
16.7831 10.006
16.7982 10.012
16.8134 9.980
16.8286 9.983
16.8438 9.967
16.8589 9.670
16.8741 9.426
16.8893 9.682
16.9045 9.871
16.9196 9.785
16.9348 9.722
16.9500 9.714
16.9652 9.994
16.9803 10.084
16.9955 9.877
17.0107 9.967
17.0259 10.237
17.0410 10.205
17.0562 10.142
17.0714 10.269
17.0866 10.186
17.1017 10.277
17.1169 10.578
17.1321 10.954
17.1473 11.277
17.1624 11.635
17.1776 12.263
17.1928 12.786
17.2080 13.715
17.2231 15.034
17.2383 16.314
17.2535 17.492
17.2687 18.392
17.2838 18.621
17.2990 17.855
17.3142 17.152
17.3294 16.845
17.3445 16.368
17.3597 16.309
17.3749 16.349
17.3901 15.610
17.4052 14.317
17.4204 13.376
17.4356 12.751
17.4508 12.266
17.4659 11.864
17.4811 11.502
17.4963 11.553
17.5115 11.376
17.5266 11.163
17.5418 10.867
17.5570 10.577
17.5722 10.624
17.5873 10.907
17.6025 11.224
17.6177 11.137
17.6329 11.406
17.6480 11.569
17.6632 11.385
17.6784 11.525
17.6936 11.698
17.7087 11.481
17.7239 11.193
17.7391 11.139
17.7543 10.996
17.7694 10.861
17.7846 10.838
17.7998 10.821
17.8150 10.729
17.8301 10.587
17.8453 10.359
17.8605 10.212
17.8757 10.346
17.8908 10.375
17.9060 10.173
17.9212 10.157
17.9364 10.253
17.9515 10.162
17.9667 10.257
17.9819 10.379
17.9971 10.311
18.0122 10.119
18.0274 10.034
18.0426 10.195
18.0578 10.399
18.0729 10.266
18.0881 10.077
18.1033 9.996
18.1185 10.165
18.1336 10.137
18.1488 9.987
18.1640 9.765
18.1792 9.705
18.1943 9.982
18.2095 9.912
18.2247 9.738
18.2399 9.867
18.2550 9.955
18.2702 9.832
18.2854 9.832
18.3006 9.777
18.3157 9.686
18.3309 9.816
18.3461 9.921
18.3613 9.912
18.3764 9.848
18.3916 9.808
18.4068 9.682
18.4220 9.772
18.4371 9.814
18.4523 9.909
18.4675 10.039
18.4827 9.766
18.4978 9.675
18.5130 9.580
18.5282 9.551
18.5434 9.604
18.5585 9.693
18.5737 9.786
18.5889 9.862
18.6041 9.838
18.6192 9.693
18.6344 9.884
18.6496 9.955
18.6648 9.866
18.6799 9.745
18.6951 9.639
18.7103 9.605
18.7255 9.685
18.7406 9.777
18.7558 9.732
18.7710 9.663
18.7862 9.825
18.8013 9.694
18.8165 9.585
18.8317 9.628
18.8469 9.923
18.8620 10.058
18.8772 9.908
18.8924 9.714
18.9076 9.703
18.9227 9.868
18.9379 10.075
18.9531 10.050
18.9683 10.060
18.9834 9.985
18.9986 10.207
19.0138 10.321
19.0290 10.198
19.0441 10.198
19.0593 10.369
19.0745 10.193
19.0897 10.239
19.1048 10.370
19.1200 10.290
19.1352 10.552
19.1504 10.847
19.1655 10.885
19.1807 10.579
19.1959 10.604
19.2111 10.605
19.2262 10.555
19.2414 10.792
19.2566 10.747
19.2718 10.847
19.2869 10.973
19.3021 10.866
19.3173 10.792
19.3325 11.141
19.3476 11.219
19.3628 11.217
19.3780 11.282
19.3932 11.315
19.4083 11.207
19.4235 11.485
19.4387 11.368
19.4539 11.075
19.4690 11.175
19.4842 11.347
19.4994 11.413
19.5146 11.395
19.5297 11.622
19.5449 11.716
19.5601 11.601
19.5753 11.363
19.5904 11.369
19.6056 11.478
19.6208 11.836
19.6360 11.746
19.6511 11.643
19.6663 11.859
19.6815 11.687
19.6967 11.721
19.7118 11.926
19.7270 11.812
19.7422 11.804
19.7574 11.972
19.7725 12.024
19.7877 11.993
19.8029 12.049
19.8180 12.035
19.8332 12.100
19.8484 12.219
19.8636 12.510
19.8787 12.726
19.8939 12.889
19.9091 13.135
19.9243 13.451
19.9394 13.966
19.9546 14.262
19.9698 14.305
19.9850 14.462
20.0001 14.685
20.0153 14.345
20.0305 13.970
20.0457 13.855
20.0608 13.824
20.0760 14.006
20.0912 13.893
20.1064 13.675
20.1215 13.555
20.1367 13.424
20.1519 13.037
20.1671 13.120
20.1822 13.139
20.1974 12.978
20.2126 13.037
20.2278 13.071
20.2429 12.717
20.2581 12.235
20.2733 12.125
20.2885 12.063
20.3036 12.191
20.3188 12.035
20.3340 12.181
20.3492 12.247
20.3643 12.105
20.3795 11.946
20.3947 11.911
20.4099 11.914
20.4250 11.777
20.4402 11.723
20.4554 11.734
20.4706 11.811
20.4857 11.715
20.5009 11.821
20.5161 11.612
20.5313 11.207
20.5464 11.370
20.5616 11.517
20.5768 11.232
20.5920 11.010
20.6071 11.116
20.6223 11.105
20.6375 10.825
20.6527 10.712
20.6678 11.019
20.6830 10.670
20.6982 10.515
20.7134 10.477
20.7285 10.294
20.7437 10.481
20.7589 10.396
20.7741 10.403
20.7892 10.120
20.8044 10.375
20.8196 10.507
20.8348 10.443
20.8499 10.212
20.8651 10.156
20.8803 9.882
20.8955 10.164
20.9106 10.110
20.9258 10.209
20.9410 9.873
20.9562 10.153
20.9713 10.266
20.9865 10.094
21.0017 10.553
21.0169 10.186
21.0320 10.022
21.0472 9.719
21.0624 10.019
21.0776 10.125
21.0927 9.778
21.1079 9.970
21.1231 10.122
21.1383 9.891
21.1534 9.737
21.1686 9.863
21.1838 9.765
21.1990 9.907
21.2141 9.918
21.2293 9.784
21.2445 9.385
21.2597 9.829
21.2748 9.772
21.2900 9.580
21.3052 9.668
21.3204 9.778
21.3355 9.806
21.3507 9.184
21.3659 9.608
21.3811 9.483
21.3962 9.458
21.4114 9.592
21.4266 9.283
21.4418 9.740
21.4569 9.453
21.4721 9.702
21.4873 9.323
21.5025 9.277
21.5176 9.504
21.5328 9.012
21.5480 9.132
21.5632 9.141
21.5783 9.199
21.5935 9.274
21.6087 9.229
21.6239 9.211
21.6390 9.326
21.6542 9.166
21.6694 9.354
21.6846 9.232
21.6997 8.972
21.7149 9.263
21.7301 9.138
21.7453 8.907
21.7604 9.108
21.7756 9.145
21.7908 8.932
21.8060 9.098
21.8211 9.021
21.8363 8.990
21.8515 8.935
21.8667 9.154
21.8818 9.302
21.8970 8.981
21.9122 8.780
21.9274 8.969
21.9425 9.011
21.9577 8.915
21.9729 8.774
21.9881 8.765
22.0032 8.769
22.0184 8.690
22.0336 8.689
22.0488 8.769
22.0639 8.760
22.0791 8.910
22.0943 8.818
22.1095 8.762
22.1246 8.718
22.1398 8.659
22.1550 8.751
22.1702 8.533
22.1853 8.606
22.2005 8.762
22.2157 8.756
22.2309 8.517
22.2460 8.588
22.2612 8.598
22.2764 8.504
22.2916 8.432
22.3067 8.584
22.3219 8.582
22.3371 8.236
22.3523 8.305
22.3674 8.554
22.3826 8.397
22.3978 8.377
22.4130 8.210
22.4281 8.262
22.4433 8.540
22.4585 8.442
22.4737 8.486
22.4888 8.136
22.5040 8.511
22.5192 8.861
22.5344 8.178
22.5495 8.372
22.5647 8.360
22.5799 8.387
22.5951 8.395
22.6102 8.267
22.6254 8.386
22.6406 8.314
22.6558 8.258
22.6709 8.239
22.6861 8.108
22.7013 8.102
22.7165 8.159
22.7316 6.506
