'Id: "" Comment: "" Operator: "Lab Manager" Anode: "Mo" Scantype: "Still (Eiger2R_500K (1D mode))" TimePerStep: "300" X: "11.8" Y: "9.4" Z: "11.284" 
7.2532 18.776
7.2684 18.572
7.2836 18.921
7.2987 18.828
7.3139 18.859
7.3291 19.117
7.3443 18.684
7.3594 19.027
7.3746 18.994
7.3898 19.133
7.4050 19.078
7.4201 19.245
7.4353 19.455
7.4505 19.154
7.4657 19.440
7.4808 19.681
7.4960 19.590
7.5112 19.716
7.5264 19.665
7.5415 19.843
7.5567 19.329
7.5719 19.714
7.5871 20.065
7.6022 19.734
7.6174 19.902
7.6326 19.934
7.6478 20.010
7.6629 19.931
7.6781 19.976
7.6933 20.012
7.7085 19.873
7.7236 20.079
7.7388 20.330
7.7540 20.572
7.7692 20.138
7.7843 20.039
7.7995 20.569
7.8147 20.440
7.8299 20.396
7.8450 20.780
7.8602 20.747
7.8754 20.383
7.8905 20.589
7.9057 20.654
7.9209 20.572
7.9361 20.623
7.9512 20.612
7.9664 20.750
7.9816 20.835
7.9968 20.433
8.0119 20.696
8.0271 20.852
8.0423 21.033
8.0575 20.769
8.0726 20.785
8.0878 20.937
8.1030 21.305
8.1182 21.314
8.1333 21.162
8.1485 20.931
8.1637 21.193
8.1789 21.123
8.1940 21.425
8.2092 21.542
8.2244 21.372
8.2396 21.203
8.2547 21.530
8.2699 21.386
8.2851 21.538
8.3003 21.381
8.3154 21.544
8.3306 21.208
8.3458 21.550
8.3610 21.413
8.3761 22.168
8.3913 21.333
8.4065 21.977
8.4217 21.707
8.4368 21.636
8.4520 21.831
8.4672 21.558
8.4824 21.659
8.4975 21.759
8.5127 22.259
8.5279 21.780
8.5431 22.033
8.5582 22.496
8.5734 22.075
8.5886 21.955
8.6038 22.266
8.6189 21.742
8.6341 21.742
8.6493 22.187
8.6645 22.234
8.6796 22.192
8.6948 22.264
8.7100 21.751
8.7252 22.327
8.7403 22.036
8.7555 22.323
8.7707 21.840
8.7859 22.374
8.8010 22.284
8.8162 22.451
8.8314 22.194
8.8466 22.553
8.8617 22.139
8.8769 22.094
8.8921 22.482
8.9073 22.147
8.9224 22.393
8.9376 22.164
8.9528 22.605
8.9680 22.589
8.9831 22.478
8.9983 22.472
9.0135 22.781
9.0287 22.668
9.0438 22.542
9.0590 22.774
9.0742 22.760
9.0894 22.268
9.1045 22.606
9.1197 22.700
9.1349 22.644
9.1501 22.907
9.1652 22.687
9.1804 22.424
9.1956 22.965
9.2108 22.924
9.2259 22.643
9.2411 22.646
9.2563 22.640
9.2715 22.519
9.2866 22.779
9.3018 23.015
9.3170 22.983
9.3322 22.891
9.3473 22.989
9.3625 22.926
9.3777 22.914
9.3929 22.820
9.4080 22.801
9.4232 22.859
9.4384 22.909
9.4536 22.784
9.4687 22.814
9.4839 22.703
9.4991 22.961
9.5143 23.203
9.5294 23.023
9.5446 22.840
9.5598 22.882
9.5750 23.165
9.5901 23.162
9.6053 23.182
9.6205 23.227
9.6357 23.179
9.6508 23.450
9.6660 23.490
9.6812 23.227
9.6964 23.458
9.7115 23.909
9.7267 24.185
9.7419 24.136
9.7571 24.025
9.7722 23.873
9.7874 23.578
9.8026 23.442
9.8178 23.354
9.8329 23.462
9.8481 23.646
9.8633 23.140
9.8785 22.548
9.8936 22.711
9.9088 23.121
9.9240 23.344
9.9392 23.065
9.9543 22.850
9.9695 22.933
9.9847 23.106
9.9999 23.190
10.0150 23.174
10.0302 23.272
10.0454 22.980
10.0606 22.837
10.0757 22.829
10.0909 22.909
10.1061 23.288
10.1213 23.235
10.1364 23.419
10.1516 23.107
10.1668 23.163
10.1820 23.155
10.1971 23.184
10.2123 23.046
10.2275 22.878
10.2427 23.120
10.2578 23.006
10.2730 22.804
10.2882 22.635
10.3034 22.831
10.3185 22.892
10.3337 22.426
10.3489 22.483
10.3641 22.446
10.3792 22.476
10.3944 22.648
10.4096 22.659
10.4248 22.480
10.4399 22.505
10.4551 22.562
10.4703 22.814
10.4855 22.636
10.5006 22.295
10.5158 22.554
10.5310 22.563
10.5462 22.184
10.5613 22.155
10.5765 22.262
10.5917 21.970
10.6069 22.391
10.6220 22.521
10.6372 22.383
10.6524 22.598
10.6676 22.814
10.6827 22.679
10.6979 22.416
10.7131 22.342
10.7283 22.349
10.7434 22.217
10.7586 22.038
10.7738 22.265
10.7890 22.156
10.8041 21.725
10.8193 21.726
10.8345 22.052
10.8497 21.949
10.8648 22.035
10.8800 22.139
10.8952 22.301
10.9104 22.045
10.9255 21.895
10.9407 22.215
10.9559 21.972
10.9711 21.784
10.9862 22.109
11.0014 21.905
11.0166 21.904
11.0318 21.898
11.0469 21.966
11.0621 21.634
11.0773 21.366
11.0925 21.673
11.1076 21.850
11.1228 21.522
11.1380 21.275
11.1532 21.627
11.1683 21.735
11.1835 21.836
11.1987 21.659
11.2139 21.800
11.2290 21.881
11.2442 21.846
11.2594 21.657
11.2746 21.482
11.2897 21.640
11.3049 21.647
11.3201 21.224
11.3353 21.321
11.3504 21.332
11.3656 21.455
11.3808 21.385
11.3960 21.372
11.4111 21.247
11.4263 21.509
11.4415 21.300
11.4567 21.355
11.4718 21.013
11.4870 20.957
11.5022 21.075
11.5174 21.045
11.5325 20.955
11.5477 20.836
11.5629 20.755
11.5781 20.652
11.5932 20.882
11.6084 20.797
11.6236 20.728
11.6388 20.902
11.6539 20.591
11.6691 20.626
11.6843 20.645
11.6995 20.642
11.7146 20.321
11.7298 20.126
11.7450 20.248
11.7602 20.248
11.7753 19.871
11.7905 20.050
11.8057 20.129
11.8209 20.000
11.8360 20.168
11.8512 20.327
11.8664 19.904
11.8816 19.481
11.8967 19.198
11.9119 19.356
11.9271 19.728
11.9423 19.666
11.9574 19.240
11.9726 19.227
11.9878 19.398
12.0030 19.266
12.0181 19.046
12.0333 19.222
12.0485 19.011
12.0637 19.006
12.0788 18.781
12.0940 18.642
12.1092 18.760
12.1244 18.525
12.1395 18.692
12.1547 18.517
12.1699 18.355
12.1851 18.220
12.2002 18.061
12.2154 18.159
12.2306 18.288
12.2458 17.949
12.2609 17.987
12.2761 17.716
12.2913 17.875
12.3065 17.845
12.3216 17.643
12.3368 17.490
12.3520 17.334
12.3672 17.040
12.3823 17.238
12.3975 17.249
12.4127 17.265
12.4279 17.266
12.4430 16.984
12.4582 17.018
12.4734 16.740
12.4886 16.597
12.5037 16.512
12.5189 16.556
12.5341 16.277
12.5493 16.489
12.5644 16.411
12.5796 16.171
12.5948 16.185
12.6100 15.932
12.6251 15.792
12.6403 15.504
12.6555 15.576
12.6707 15.868
12.6858 15.822
12.7010 15.681
12.7162 15.703
12.7314 15.559
12.7465 15.315
12.7617 15.353
12.7769 15.169
12.7921 15.315
12.8072 14.908
12.8224 14.642
12.8376 14.996
12.8528 15.087
12.8679 14.801
12.8831 14.628
12.8983 14.632
12.9135 14.500
12.9286 14.612
12.9438 14.540
12.9590 14.328
12.9742 14.471
12.9893 14.543
13.0045 14.379
13.0197 14.426
13.0349 14.371
13.0500 14.090
13.0652 14.044
13.0804 13.849
13.0956 13.674
13.1107 13.695
13.1259 13.531
13.1411 13.580
13.1563 13.636
13.1714 13.457
13.1866 13.425
13.2018 13.393
13.2170 13.244
13.2321 13.326
13.2473 13.397
13.2625 13.294
13.2777 13.339
13.2928 13.330
13.3080 13.220
13.3232 13.120
13.3384 13.001
13.3535 13.045
13.3687 13.078
13.3839 12.702
13.3991 12.521
13.4142 12.707
13.4294 12.912
13.4446 12.931
13.4598 12.771
13.4749 12.667
13.4901 12.740
13.5053 12.503
13.5205 12.422
13.5356 12.369
13.5508 12.150
13.5660 12.178
13.5812 12.519
13.5963 12.466
13.6115 12.024
13.6267 11.997
13.6419 12.199
13.6570 12.135
13.6722 12.117
13.6874 12.033
13.7026 11.969
13.7177 11.992
13.7329 12.175
13.7481 12.039
13.7633 11.986
13.7784 11.953
13.7936 11.901
13.8088 12.225
13.8239 12.170
13.8391 11.843
13.8543 12.207
13.8695 12.338
13.8846 12.191
13.8998 12.045
13.9150 11.757
13.9302 11.860
13.9453 12.027
13.9605 12.178
13.9757 11.811
13.9909 11.471
14.0060 11.772
14.0212 11.710
14.0364 12.003
14.0516 11.856
14.0667 11.641
14.0819 11.426
14.0971 11.364
14.1123 11.975
14.1274 11.812
14.1426 11.409
14.1578 11.442
14.1730 11.730
14.1881 11.814
14.2033 12.005
14.2185 12.022
14.2337 11.641
14.2488 11.648
14.2640 11.487
14.2792 11.656
14.2944 11.841
14.3095 11.930
14.3247 11.933
14.3399 12.166
14.3551 12.673
14.3702 12.721
14.3854 12.655
14.4006 13.062
14.4158 13.021
14.4309 12.808
14.4461 12.643
14.4613 12.510
14.4765 12.246
14.4916 11.987
14.5068 11.909
14.5220 11.785
14.5372 11.405
14.5523 11.238
14.5675 11.186
14.5827 11.024
14.5979 10.768
14.6130 10.748
14.6282 10.819
14.6434 11.048
14.6586 10.893
14.6737 10.784
14.6889 10.727
14.7041 10.686
14.7193 10.711
14.7344 10.692
14.7496 10.490
14.7648 10.743
14.7800 10.497
14.7951 10.399
14.8103 10.442
14.8255 10.514
14.8407 10.222
14.8558 10.104
14.8710 10.379
14.8862 10.053
14.9014 10.546
14.9165 10.794
14.9317 10.774
14.9469 10.484
14.9621 10.491
14.9772 10.272
14.9924 10.586
15.0076 10.357
15.0228 10.169
15.0379 10.499
15.0531 10.574
15.0683 10.145
15.0835 10.151
15.0986 10.060
15.1138 10.504
15.1290 10.247
15.1442 10.192
15.1593 10.215
15.1745 9.814
15.1897 10.242
15.2049 10.196
15.2200 10.131
15.2352 10.024
15.2504 10.149
15.2656 10.394
15.2807 9.931
15.2959 10.167
15.3111 9.972
15.3263 10.234
15.3414 10.037
15.3566 10.058
15.3718 10.077
15.3870 9.994
15.4021 10.142
15.4173 9.980
15.4325 10.264
15.4477 10.301
15.4628 10.270
15.4780 10.066
15.4932 9.767
15.5084 10.176
15.5235 9.635
15.5387 9.913
15.5539 10.051
15.5691 9.885
15.5842 10.076
15.5994 9.755
15.6146 9.779
15.6298 9.758
15.6449 9.825
15.6601 9.829
15.6753 9.696
15.6905 9.646
15.7056 9.694
15.7208 9.771
15.7360 9.824
15.7512 9.881
15.7663 9.817
15.7815 9.578
15.7967 9.728
15.8119 9.875
15.8270 9.801
15.8422 9.803
15.8574 9.434
15.8726 9.540
15.8877 9.710
15.9029 9.724
15.9181 9.493
15.9333 9.277
15.9484 9.289
15.9636 9.556
15.9788 9.699
15.9940 9.401
16.0091 9.481
16.0243 9.599
16.0395 9.721
16.0547 9.880
16.0698 9.641
16.0850 9.412
16.1002 9.509
16.1154 9.560
16.1305 9.571
16.1457 9.524
16.1609 9.389
16.1761 9.453
16.1912 9.885
16.2064 9.594
16.2216 9.620
16.2368 9.653
16.2519 9.654
16.2671 9.520
16.2823 9.783
16.2975 9.972
16.3126 9.739
16.3278 9.438
16.3430 9.597
16.3582 9.635
16.3733 9.711
16.3885 9.719
16.4037 9.657
16.4189 9.644
16.4340 9.793
16.4492 9.825
16.4644 9.778
16.4796 9.790
16.4947 9.672
16.5099 9.795
16.5251 9.735
16.5403 9.472
16.5554 9.685
16.5706 9.669
16.5858 9.484
16.6010 9.398
16.6161 9.455
16.6313 9.479
16.6465 9.461
16.6617 9.491
16.6768 9.694
16.6920 9.915
16.7072 10.019
16.7224 9.914
16.7375 9.746
16.7527 9.917
16.7679 9.828
16.7831 9.754
16.7982 9.936
16.8134 10.045
16.8286 10.016
16.8438 9.918
16.8589 9.931
16.8741 9.948
16.8893 9.834
16.9045 9.975
16.9196 9.943
16.9348 9.829
16.9500 9.781
16.9652 9.841
16.9803 9.953
16.9955 9.859
17.0107 9.883
17.0259 9.941
17.0410 9.926
17.0562 9.948
17.0714 9.918
17.0866 10.086
17.1017 10.339
17.1169 10.603
17.1321 11.088
17.1473 11.531
17.1624 11.830
17.1776 12.430
17.1928 13.073
17.2080 13.933
17.2231 15.044
17.2383 16.257
17.2535 17.471
17.2687 18.476
17.2838 18.688
17.2990 18.075
17.3142 17.082
17.3294 16.212
17.3445 16.178
17.3597 16.199
17.3749 16.024
17.3901 15.531
17.4052 14.396
17.4204 13.327
17.4356 12.485
17.4508 11.996
17.4659 11.768
17.4811 11.532
17.4963 11.517
17.5115 11.415
17.5266 10.919
17.5418 10.676
17.5570 10.835
17.5722 11.047
17.5873 11.002
17.6025 11.175
17.6177 11.356
17.6329 11.041
17.6480 11.126
17.6632 11.418
17.6784 11.622
17.6936 11.424
17.7087 11.218
17.7239 11.105
17.7391 10.952
17.7543 10.932
17.7694 10.921
17.7846 10.897
17.7998 10.925
17.8150 10.829
17.8301 10.630
17.8453 10.297
17.8605 10.095
17.8757 10.077
17.8908 10.190
17.9060 10.335
17.9212 10.238
17.9364 10.165
17.9515 10.240
17.9667 10.380
17.9819 10.299
17.9971 10.209
18.0122 10.315
18.0274 10.360
18.0426 10.216
18.0578 10.015
18.0729 9.902
18.0881 10.065
18.1033 10.076
18.1185 10.043
18.1336 10.062
18.1488 10.045
18.1640 10.064
18.1792 9.987
18.1943 9.803
18.2095 9.760
18.2247 9.707
18.2399 9.649
18.2550 9.629
18.2702 9.819
18.2854 9.916
18.3006 9.687
18.3157 9.726
18.3309 9.653
18.3461 9.712
18.3613 10.014
18.3764 10.171
18.3916 9.942
18.4068 9.989
18.4220 9.935
18.4371 9.721
18.4523 9.771
18.4675 9.795
18.4827 9.901
18.4978 9.969
18.5130 9.703
18.5282 9.609
18.5434 9.905
18.5585 9.748
18.5737 9.881
18.5889 9.948
18.6041 9.697
18.6192 9.767
18.6344 9.837
18.6496 9.728
18.6648 9.788
18.6799 9.729
18.6951 9.585
18.7103 9.723
18.7255 9.732
18.7406 9.634
18.7558 9.734
18.7710 9.766
18.7862 9.879
18.8013 9.636
18.8165 9.588
18.8317 9.566
18.8469 9.793
18.8620 10.083
18.8772 10.098
18.8924 9.941
18.9076 10.143
18.9227 10.258
18.9379 10.020
18.9531 9.807
18.9683 9.889
18.9834 9.800
18.9986 10.012
19.0138 10.105
19.0290 10.011
19.0441 10.326
19.0593 10.242
19.0745 10.118
19.0897 10.187
19.1048 10.116
19.1200 10.178
19.1352 10.326
19.1504 10.371
19.1655 10.593
19.1807 10.487
19.1959 10.449
19.2111 10.549
19.2262 10.682
19.2414 10.940
19.2566 10.821
19.2718 10.932
19.2869 10.846
19.3021 10.694
19.3173 10.956
19.3325 10.980
19.3476 11.000
19.3628 11.007
19.3780 11.085
19.3932 11.332
19.4083 11.246
19.4235 11.179
19.4387 11.098
19.4539 11.258
19.4690 11.491
19.4842 11.237
19.4994 11.274
19.5146 11.473
19.5297 11.716
19.5449 11.572
19.5601 11.352
19.5753 11.463
19.5904 11.586
19.6056 11.511
19.6208 11.458
19.6360 11.404
19.6511 11.418
19.6663 11.437
19.6815 11.347
19.6967 11.380
19.7118 11.710
19.7270 11.877
19.7422 11.830
19.7574 12.025
19.7725 11.909
19.7877 11.679
19.8029 11.944
19.8180 12.192
19.8332 12.304
19.8484 12.405
19.8636 12.528
19.8787 12.557
19.8939 12.731
19.9091 13.040
19.9243 13.276
19.9394 13.591
19.9546 13.907
19.9698 14.222
19.9850 14.616
20.0001 14.260
20.0153 14.224
20.0305 14.100
20.0457 13.783
20.0608 13.847
20.0760 13.729
20.0912 13.635
20.1064 13.519
20.1215 13.536
20.1367 13.143
20.1519 13.083
20.1671 13.024
20.1822 12.845
20.1974 12.916
20.2126 12.899
20.2278 12.769
20.2429 12.533
20.2581 12.256
20.2733 12.127
20.2885 12.077
20.3036 11.904
20.3188 11.933
20.3340 11.802
20.3492 12.145
20.3643 11.924
20.3795 11.842
20.3947 11.781
20.4099 11.990
20.4250 11.806
20.4402 12.130
20.4554 11.970
20.4706 11.901
20.4857 11.650
20.5009 11.803
20.5161 11.608
20.5313 11.374
20.5464 11.252
20.5616 10.975
20.5768 11.221
20.5920 11.094
20.6071 11.152
20.6223 10.889
20.6375 10.793
20.6527 10.339
20.6678 10.789
20.6830 10.704
20.6982 10.488
20.7134 10.713
20.7285 10.155
20.7437 10.141
20.7589 10.438
20.7741 10.308
20.7892 10.476
20.8044 10.347
20.8196 9.916
20.8348 10.071
20.8499 10.004
20.8651 10.477
20.8803 10.163
20.8955 9.873
20.9106 10.377
20.9258 10.065
20.9410 10.232
20.9562 10.409
20.9713 10.173
20.9865 9.985
21.0017 10.053
21.0169 10.080
21.0320 9.887
21.0472 10.001
21.0624 9.802
21.0776 10.257
21.0927 9.974
21.1079 9.888
21.1231 9.779
21.1383 10.170
21.1534 9.552
21.1686 9.892
21.1838 9.664
21.1990 9.901
21.2141 9.805
21.2293 9.803
21.2445 9.439
21.2597 10.029
21.2748 9.819
21.2900 9.348
21.3052 9.906
21.3204 9.363
21.3355 9.668
21.3507 9.416
21.3659 9.465
21.3811 9.637
21.3962 9.424
21.4114 9.620
21.4266 9.508
21.4418 9.231
21.4569 9.539
21.4721 9.391
21.4873 9.284
21.5025 9.545
21.5176 9.579
21.5328 9.499
21.5480 9.169
21.5632 9.102
21.5783 9.358
21.5935 9.093
21.6087 9.183
21.6239 9.098
21.6390 9.222
21.6542 9.337
21.6694 9.070
21.6846 9.144
21.6997 9.390
21.7149 9.338
21.7301 9.095
21.7453 9.079
21.7604 9.253
21.7756 9.103
21.7908 8.906
21.8060 9.095
21.8211 9.129
21.8363 8.970
21.8515 9.133
21.8667 9.394
21.8818 9.067
21.8970 8.904
21.9122 8.964
21.9274 8.827
21.9425 8.660
21.9577 8.902
21.9729 8.992
21.9881 8.836
22.0032 8.834
22.0184 8.831
22.0336 8.727
22.0488 8.967
22.0639 8.991
22.0791 8.962
22.0943 8.729
22.1095 8.487
22.1246 8.661
22.1398 8.658
22.1550 8.680
22.1702 8.707
22.1853 8.516
22.2005 8.471
22.2157 8.638
22.2309 8.578
22.2460 8.666
22.2612 8.615
22.2764 8.709
22.2916 8.735
22.3067 8.419
22.3219 8.398
22.3371 8.722
22.3523 8.499
22.3674 8.673
22.3826 8.456
22.3978 8.226
22.4130 8.304
22.4281 8.427
22.4433 8.347
22.4585 8.344
22.4737 8.344
22.4888 8.439
22.5040 8.427
22.5192 8.461
22.5344 8.236
22.5495 8.567
22.5647 8.267
22.5799 8.308
22.5951 8.320
22.6102 8.495
22.6254 8.462
22.6406 8.470
22.6558 8.161
22.6709 8.243
22.6861 8.342
22.7013 7.866
22.7165 7.823
22.7316 6.345
