'Id: "" Comment: "" Operator: "Lab Manager" Anode: "Mo" Scantype: "Still (Eiger2R_500K (1D mode))" TimePerStep: "300" X: "11.8" Y: "9.4" Z: "11.284" 
7.2532 18.481
7.2684 18.921
7.2836 18.660
7.2987 18.859
7.3139 18.768
7.3291 18.659
7.3443 19.032
7.3594 18.908
7.3746 19.097
7.3898 19.112
7.4050 18.902
7.4201 19.325
7.4353 19.135
7.4505 19.298
7.4657 19.146
7.4808 19.323
7.4960 19.262
7.5112 19.451
7.5264 19.576
7.5415 19.428
7.5567 19.438
7.5719 19.733
7.5871 19.736
7.6022 19.901
7.6174 20.205
7.6326 19.937
7.6478 20.166
7.6629 20.237
7.6781 20.020
7.6933 20.113
7.7085 20.178
7.7236 20.250
7.7388 20.033
7.7540 20.219
7.7692 20.376
7.7843 20.272
7.7995 20.030
7.8147 20.027
7.8299 20.340
7.8450 20.561
7.8602 20.498
7.8754 20.949
7.8905 20.939
7.9057 20.731
7.9209 21.024
7.9361 20.970
7.9512 20.812
7.9664 20.680
7.9816 20.901
7.9968 20.860
8.0119 20.692
8.0271 20.788
8.0423 21.037
8.0575 21.047
8.0726 21.449
8.0878 21.350
8.1030 21.028
8.1182 21.176
8.1333 21.461
8.1485 21.571
8.1637 20.978
8.1789 20.782
8.1940 21.217
8.2092 21.223
8.2244 21.524
8.2396 21.304
8.2547 21.328
8.2699 21.338
8.2851 21.208
8.3003 21.643
8.3154 21.768
8.3306 21.580
8.3458 21.577
8.3610 21.408
8.3761 21.745
8.3913 21.446
8.4065 21.271
8.4217 21.626
8.4368 21.677
8.4520 21.507
8.4672 22.377
8.4824 21.315
8.4975 21.430
8.5127 22.031
8.5279 21.505
8.5431 21.825
8.5582 22.144
8.5734 21.706
8.5886 21.741
8.6038 21.716
8.6189 22.085
8.6341 22.198
8.6493 22.328
8.6645 21.990
8.6796 21.751
8.6948 22.002
8.7100 22.261
8.7252 21.738
8.7403 21.598
8.7555 21.575
8.7707 22.551
8.7859 22.470
8.8010 22.121
8.8162 21.859
8.8314 22.696
8.8466 22.438
8.8617 22.128
8.8769 22.165
8.8921 22.258
8.9073 22.151
8.9224 22.822
8.9376 22.183
8.9528 22.354
8.9680 22.054
8.9831 22.399
8.9983 22.616
9.0135 22.829
9.0287 22.701
9.0438 22.404
9.0590 22.197
9.0742 22.580
9.0894 22.266
9.1045 22.535
9.1197 22.775
9.1349 22.582
9.1501 22.419
9.1652 22.284
9.1804 22.991
9.1956 22.718
9.2108 22.978
9.2259 23.128
9.2411 22.897
9.2563 22.801
9.2715 22.611
9.2866 22.606
9.3018 22.902
9.3170 22.817
9.3322 22.839
9.3473 23.201
9.3625 23.045
9.3777 22.761
9.3929 22.909
9.4080 22.969
9.4232 22.769
9.4384 22.922
9.4536 23.097
9.4687 23.033
9.4839 23.015
9.4991 22.679
9.5143 22.529
9.5294 22.643
9.5446 22.613
9.5598 22.987
9.5750 22.982
9.5901 22.532
9.6053 22.750
9.6205 22.740
9.6357 22.878
9.6508 23.088
9.6660 23.138
9.6812 23.262
9.6964 23.328
9.7115 23.473
9.7267 23.785
9.7419 24.322
9.7571 24.102
9.7722 23.590
9.7874 23.621
9.8026 23.427
9.8178 23.185
9.8329 23.673
9.8481 23.656
9.8633 23.474
9.8785 23.384
9.8936 23.097
9.9088 23.135
9.9240 23.212
9.9392 23.158
9.9543 23.208
9.9695 23.200
9.9847 23.273
9.9999 23.110
10.0150 23.033
10.0302 23.284
10.0454 23.365
10.0606 23.092
10.0757 23.025
10.0909 22.890
10.1061 22.971
10.1213 23.282
10.1364 23.526
10.1516 23.306
10.1668 23.088
10.1820 23.221
10.1971 23.254
10.2123 23.131
10.2275 23.074
10.2427 22.903
10.2578 23.201
10.2730 23.175
10.2882 22.539
10.3034 22.433
10.3185 22.770
10.3337 22.783
10.3489 22.663
10.3641 22.514
10.3792 22.513
10.3944 22.532
10.4096 22.592
10.4248 22.355
10.4399 22.469
10.4551 22.810
10.4703 22.834
10.4855 22.378
10.5006 22.647
10.5158 23.118
10.5310 22.542
10.5462 22.026
10.5613 22.106
10.5765 22.218
10.5917 22.152
10.6069 22.476
10.6220 22.515
10.6372 22.411
10.6524 22.406
10.6676 22.776
10.6827 22.383
10.6979 22.133
10.7131 22.294
10.7283 22.004
10.7434 22.217
10.7586 22.306
10.7738 21.943
10.7890 22.121
10.8041 22.372
10.8193 22.575
10.8345 22.272
10.8497 21.813
10.8648 21.810
10.8800 22.101
10.8952 21.843
10.9104 21.828
10.9255 21.739
10.9407 21.766
10.9559 21.691
10.9711 21.637
10.9862 21.583
11.0014 21.602
11.0166 21.948
11.0318 21.973
11.0469 21.851
11.0621 21.575
11.0773 21.633
11.0925 21.450
11.1076 21.744
11.1228 21.768
11.1380 21.548
11.1532 21.560
11.1683 21.483
11.1835 21.762
11.1987 21.660
11.2139 21.467
11.2290 21.716
11.2442 21.631
11.2594 21.386
11.2746 21.343
11.2897 21.282
11.3049 21.410
11.3201 21.292
11.3353 20.974
11.3504 21.089
11.3656 21.138
11.3808 21.374
11.3960 21.198
11.4111 20.915
11.4263 21.176
11.4415 21.032
11.4567 21.593
11.4718 21.627
11.4870 21.510
11.5022 21.037
11.5174 20.923
11.5325 20.937
11.5477 20.680
11.5629 20.935
11.5781 20.977
11.5932 21.097
11.6084 20.606
11.6236 20.565
11.6388 20.355
11.6539 20.521
11.6691 20.653
11.6843 20.128
11.6995 20.528
11.7146 20.204
11.7298 20.247
11.7450 20.171
11.7602 20.184
11.7753 20.280
11.7905 20.031
11.8057 19.714
11.8209 19.924
11.8360 19.835
11.8512 19.621
11.8664 19.594
11.8816 19.662
11.8967 19.239
11.9119 19.938
11.9271 19.742
11.9423 19.542
11.9574 19.203
11.9726 19.461
11.9878 19.465
12.0030 19.627
12.0181 19.282
12.0333 19.114
12.0485 19.060
12.0637 19.178
12.0788 18.864
12.0940 18.611
12.1092 18.744
12.1244 18.528
12.1395 18.336
12.1547 18.229
12.1699 18.248
12.1851 17.979
12.2002 17.814
12.2154 18.087
12.2306 17.827
12.2458 17.584
12.2609 17.769
12.2761 17.964
12.2913 17.766
12.3065 17.662
12.3216 17.804
12.3368 17.427
12.3520 17.534
12.3672 17.695
12.3823 17.643
12.3975 17.539
12.4127 17.093
12.4279 17.054
12.4430 16.753
12.4582 16.734
12.4734 16.773
12.4886 16.576
12.5037 16.446
12.5189 16.366
12.5341 16.635
12.5493 16.146
12.5644 16.156
12.5796 16.313
12.5948 16.072
12.6100 15.949
12.6251 15.916
12.6403 15.724
12.6555 15.611
12.6707 15.604
12.6858 15.444
12.7010 15.508
12.7162 15.576
12.7314 15.539
12.7465 15.504
12.7617 15.268
12.7769 14.893
12.7921 15.113
12.8072 15.044
12.8224 14.844
12.8376 14.751
12.8528 14.747
12.8679 14.913
12.8831 14.616
12.8983 14.438
12.9135 14.423
12.9286 14.422
12.9438 14.348
12.9590 14.505
12.9742 14.254
12.9893 13.769
13.0045 13.817
13.0197 14.134
13.0349 14.191
13.0500 14.010
13.0652 13.963
13.0804 13.838
13.0956 13.875
13.1107 13.919
13.1259 13.621
13.1411 13.458
13.1563 13.570
13.1714 13.539
13.1866 13.554
13.2018 13.425
13.2170 13.377
13.2321 13.555
13.2473 13.417
13.2625 13.367
13.2777 13.293
13.2928 13.158
13.3080 13.017
13.3232 12.870
13.3384 13.052
13.3535 13.151
13.3687 12.955
13.3839 12.862
13.3991 12.929
13.4142 13.003
13.4294 12.833
13.4446 12.842
13.4598 12.890
13.4749 12.638
13.4901 12.607
13.5053 12.746
13.5205 12.543
13.5356 12.220
13.5508 12.205
13.5660 12.143
13.5812 12.153
13.5963 12.169
13.6115 12.091
13.6267 12.040
13.6419 12.049
13.6570 12.201
13.6722 12.303
13.6874 11.975
13.7026 11.950
13.7177 12.078
13.7329 12.278
13.7481 12.313
13.7633 12.237
13.7784 12.332
13.7936 12.061
13.8088 12.069
13.8239 12.348
13.8391 12.358
13.8543 12.243
13.8695 12.150
13.8846 12.065
13.8998 12.148
13.9150 12.278
13.9302 12.471
13.9453 12.086
13.9605 12.025
13.9757 11.959
13.9909 11.492
14.0060 11.769
14.0212 11.746
14.0364 11.773
14.0516 11.498
14.0667 11.679
14.0819 11.478
14.0971 11.338
14.1123 11.664
14.1274 11.810
14.1426 11.590
14.1578 11.699
14.1730 11.621
14.1881 11.663
14.2033 11.709
14.2185 11.647
14.2337 11.399
14.2488 11.619
14.2640 11.590
14.2792 11.748
14.2944 12.011
14.3095 12.073
14.3247 12.071
14.3399 12.186
14.3551 12.547
14.3702 12.733
14.3854 12.930
14.4006 12.952
14.4158 13.027
14.4309 13.084
14.4461 12.769
14.4613 12.287
14.4765 12.000
14.4916 11.894
14.5068 12.064
14.5220 11.717
14.5372 11.275
14.5523 11.021
14.5675 11.005
14.5827 11.170
14.5979 10.551
14.6130 10.592
14.6282 10.627
14.6434 10.975
14.6586 10.683
14.6737 10.850
14.6889 10.918
14.7041 10.457
14.7193 10.230
14.7344 10.162
14.7496 10.457
14.7648 10.303
14.7800 10.416
14.7951 10.378
14.8103 10.463
14.8255 10.439
14.8407 10.037
14.8558 10.451
14.8710 10.413
14.8862 10.850
14.9014 10.662
14.9165 10.723
14.9317 10.571
14.9469 10.437
14.9621 9.984
14.9772 9.978
14.9924 10.108
15.0076 10.486
15.0228 10.258
15.0379 10.155
15.0531 10.252
15.0683 10.461
15.0835 10.170
15.0986 10.031
15.1138 9.781
15.1290 9.976
15.1442 10.168
15.1593 10.183
15.1745 9.807
15.1897 9.868
15.2049 10.070
15.2200 10.442
15.2352 10.289
15.2504 9.996
15.2656 10.010
15.2807 9.887
15.2959 9.957
15.3111 10.244
15.3263 10.075
15.3414 9.822
15.3566 10.299
15.3718 10.052
15.3870 9.926
15.4021 9.705
15.4173 9.870
15.4325 10.282
15.4477 10.391
15.4628 10.261
15.4780 10.149
15.4932 9.888
15.5084 9.985
15.5235 9.976
15.5387 9.947
15.5539 9.760
15.5691 10.090
15.5842 9.845
15.5994 9.887
15.6146 9.722
15.6298 9.620
15.6449 9.664
15.6601 9.710
15.6753 9.512
15.6905 9.733
15.7056 9.607
15.7208 9.614
15.7360 9.703
15.7512 9.639
15.7663 9.582
15.7815 9.637
15.7967 9.532
15.8119 9.790
15.8270 9.862
15.8422 9.655
15.8574 9.878
15.8726 9.474
15.8877 9.231
15.9029 9.201
15.9181 9.537
15.9333 9.617
15.9484 9.438
15.9636 9.444
15.9788 9.424
15.9940 9.460
16.0091 9.177
16.0243 9.595
16.0395 9.772
16.0547 9.621
16.0698 9.546
16.0850 9.762
16.1002 9.504
16.1154 9.076
16.1305 9.116
16.1457 9.307
16.1609 9.530
16.1761 9.702
16.1912 9.555
16.2064 9.545
16.2216 9.380
16.2368 9.673
16.2519 9.591
16.2671 9.600
16.2823 9.443
16.2975 9.557
16.3126 9.759
16.3278 9.674
16.3430 9.843
16.3582 9.913
16.3733 9.936
16.3885 9.950
16.4037 9.704
16.4189 9.696
16.4340 9.710
16.4492 9.495
16.4644 9.515
16.4796 9.539
16.4947 9.682
16.5099 9.663
16.5251 9.739
16.5403 9.855
16.5554 9.766
16.5706 9.756
16.5858 9.602
16.6010 9.486
16.6161 9.500
16.6313 9.579
16.6465 9.667
16.6617 9.675
16.6768 9.931
16.6920 9.984
16.7072 9.880
16.7224 9.624
16.7375 9.486
16.7527 9.536
16.7679 9.665
16.7831 9.605
16.7982 9.776
16.8134 9.943
16.8286 9.909
16.8438 9.776
16.8589 9.635
16.8741 9.615
16.8893 9.677
16.9045 9.776
16.9196 9.720
16.9348 9.509
16.9500 9.545
16.9652 9.821
16.9803 9.927
16.9955 9.881
17.0107 9.867
17.0259 9.871
17.0410 9.912
17.0562 10.181
17.0714 10.341
17.0866 10.284
17.1017 10.395
17.1169 10.752
17.1321 10.972
17.1473 11.138
17.1624 11.737
17.1776 12.484
17.1928 13.102
17.2080 13.809
17.2231 14.668
17.2383 15.925
17.2535 17.379
17.2687 18.312
17.2838 18.337
17.2990 17.734
17.3142 17.001
17.3294 16.323
17.3445 16.239
17.3597 16.187
17.3749 15.938
17.3901 15.485
17.4052 14.488
17.4204 13.406
17.4356 12.481
17.4508 11.972
17.4659 11.839
17.4811 11.729
17.4963 11.618
17.5115 11.325
17.5266 11.052
17.5418 10.988
17.5570 10.752
17.5722 10.689
17.5873 10.918
17.6025 11.090
17.6177 11.006
17.6329 11.238
17.6480 11.349
17.6632 11.303
17.6784 11.593
17.6936 11.468
17.7087 11.197
17.7239 11.162
17.7391 11.155
17.7543 11.098
17.7694 11.014
17.7846 10.854
17.7998 10.676
17.8150 10.765
17.8301 10.659
17.8453 10.357
17.8605 10.316
17.8757 10.476
17.8908 10.539
17.9060 10.389
17.9212 10.153
17.9364 10.024
17.9515 9.811
17.9667 10.085
17.9819 10.259
17.9971 10.175
18.0122 10.147
18.0274 10.222
18.0426 10.216
18.0578 10.117
18.0729 10.126
18.0881 10.121
18.1033 10.085
18.1185 9.741
18.1336 9.950
18.1488 10.282
18.1640 10.111
18.1792 9.838
18.1943 9.961
18.2095 9.887
18.2247 9.698
18.2399 9.804
18.2550 9.880
18.2702 9.792
18.2854 9.834
18.3006 9.917
18.3157 9.716
18.3309 9.765
18.3461 9.733
18.3613 9.788
18.3764 9.736
18.3916 9.673
18.4068 9.615
18.4220 9.734
18.4371 9.634
18.4523 9.583
18.4675 9.667
18.4827 9.773
18.4978 9.823
18.5130 9.837
18.5282 9.772
18.5434 9.717
18.5585 9.652
18.5737 9.831
18.5889 9.907
18.6041 9.906
18.6192 9.840
18.6344 9.713
18.6496 9.605
18.6648 9.763
18.6799 9.707
18.6951 9.677
18.7103 9.746
18.7255 9.605
18.7406 9.774
18.7558 9.676
18.7710 9.810
18.7862 9.686
18.8013 9.469
18.8165 9.449
18.8317 9.758
18.8469 9.831
18.8620 10.008
18.8772 10.039
18.8924 10.179
18.9076 10.000
18.9227 9.873
18.9379 9.909
18.9531 9.812
18.9683 9.893
18.9834 9.937
18.9986 9.980
19.0138 9.930
19.0290 9.968
19.0441 10.165
19.0593 9.975
19.0745 10.113
19.0897 10.431
19.1048 10.492
19.1200 10.431
19.1352 10.307
19.1504 10.348
19.1655 10.459
19.1807 10.419
19.1959 10.456
19.2111 10.512
19.2262 10.679
19.2414 10.537
19.2566 10.764
19.2718 10.881
19.2869 10.855
19.3021 10.893
19.3173 10.879
19.3325 10.712
19.3476 10.860
19.3628 11.111
19.3780 11.156
19.3932 11.014
19.4083 10.829
19.4235 10.922
19.4387 11.065
19.4539 11.189
19.4690 11.375
19.4842 11.492
19.4994 11.501
19.5146 11.514
19.5297 11.622
19.5449 11.634
19.5601 11.458
19.5753 11.538
19.5904 11.472
19.6056 11.513
19.6208 11.774
19.6360 11.777
19.6511 11.618
19.6663 11.661
19.6815 11.681
19.6967 11.696
19.7118 11.680
19.7270 11.729
19.7422 11.653
19.7574 11.681
19.7725 12.015
19.7877 12.144
19.8029 11.970
19.8180 11.972
19.8332 12.131
19.8484 12.320
19.8636 12.329
19.8787 12.531
19.8939 13.019
19.9091 13.359
19.9243 13.693
19.9394 13.979
19.9546 14.207
19.9698 14.496
19.9850 14.405
20.0001 14.211
20.0153 14.194
20.0305 14.119
20.0457 14.050
20.0608 14.012
20.0760 13.775
20.0912 13.860
20.1064 14.057
20.1215 13.871
20.1367 13.432
20.1519 13.228
20.1671 13.023
20.1822 12.874
20.1974 12.682
20.2126 12.667
20.2278 12.930
20.2429 12.856
20.2581 12.265
20.2733 11.983
20.2885 11.898
20.3036 11.940
20.3188 11.763
20.3340 12.099
20.3492 12.032
20.3643 11.889
20.3795 11.905
20.3947 11.813
20.4099 11.755
20.4250 11.652
20.4402 11.785
20.4554 11.771
20.4706 11.730
20.4857 11.744
20.5009 11.627
20.5161 11.400
20.5313 11.246
20.5464 11.320
20.5616 11.416
20.5768 11.632
20.5920 11.102
20.6071 10.786
20.6223 11.047
20.6375 10.975
20.6527 10.703
20.6678 10.665
20.6830 10.635
20.6982 10.617
20.7134 10.409
20.7285 10.469
20.7437 10.334
20.7589 10.278
20.7741 10.147
20.7892 10.365
20.8044 10.513
20.8196 10.314
20.8348 10.170
20.8499 10.423
20.8651 10.317
20.8803 10.178
20.8955 10.370
20.9106 10.239
20.9258 10.091
20.9410 10.305
20.9562 10.341
20.9713 9.993
20.9865 10.312
21.0017 10.117
21.0169 9.848
21.0320 9.816
21.0472 10.152
21.0624 9.920
21.0776 9.904
21.0927 9.813
21.1079 10.092
21.1231 9.822
21.1383 9.705
21.1534 9.695
21.1686 9.979
21.1838 9.881
21.1990 9.901
21.2141 9.865
21.2293 9.724
21.2445 9.667
21.2597 9.873
21.2748 9.731
21.2900 9.428
21.3052 9.544
21.3204 9.530
21.3355 9.750
21.3507 9.891
21.3659 9.513
21.3811 9.557
21.3962 9.378
21.4114 9.558
21.4266 9.292
21.4418 9.832
21.4569 9.249
21.4721 9.171
21.4873 9.031
21.5025 9.564
21.5176 9.350
21.5328 9.235
21.5480 9.316
21.5632 9.277
21.5783 9.204
21.5935 9.242
21.6087 9.260
21.6239 9.101
21.6390 8.975
21.6542 8.997
21.6694 9.147
21.6846 9.119
21.6997 9.133
21.7149 9.015
21.7301 8.970
21.7453 8.983
21.7604 8.900
21.7756 8.906
21.7908 9.092
21.8060 8.986
21.8211 8.884
21.8363 9.034
21.8515 8.873
21.8667 8.871
21.8818 9.076
21.8970 8.860
21.9122 8.835
21.9274 8.765
21.9425 8.685
21.9577 8.794
21.9729 8.908
21.9881 8.818
22.0032 8.822
22.0184 8.938
22.0336 8.971
22.0488 8.829
22.0639 8.652
22.0791 8.594
22.0943 8.595
22.1095 8.583
22.1246 8.610
22.1398 8.729
22.1550 8.670
22.1702 8.571
22.1853 8.515
22.2005 8.434
22.2157 8.482
22.2309 8.514
22.2460 8.523
22.2612 8.444
22.2764 8.534
22.2916 8.744
22.3067 8.628
22.3219 8.545
22.3371 8.410
22.3523 8.292
22.3674 8.279
22.3826 8.408
22.3978 8.405
22.4130 8.386
22.4281 8.503
22.4433 8.318
22.4585 8.553
22.4737 8.356
22.4888 8.120
22.5040 8.477
22.5192 8.501
22.5344 8.598
22.5495 8.336
22.5647 8.466
22.5799 8.441
22.5951 8.653
22.6102 8.628
22.6254 8.529
22.6406 8.160
22.6558 8.433
22.6709 8.373
22.6861 8.403
22.7013 8.156
22.7165 7.699
22.7316 6.550
