'Id: "" Comment: "" Operator: "Lab Manager" Anode: "Mo" Scantype: "Still (Eiger2R_500K (1D mode))" TimePerStep: "300" X: "11.8" Y: "9.4" Z: "11.284" 
7.2532 19.398
7.2684 18.615
7.2836 18.934
7.2987 19.063
7.3139 18.917
7.3291 19.064
7.3443 19.192
7.3594 19.271
7.3746 19.100
7.3898 19.331
7.4050 19.117
7.4201 19.638
7.4353 19.519
7.4505 19.441
7.4657 19.727
7.4808 19.712
7.4960 19.424
7.5112 19.747
7.5264 19.853
7.5415 19.882
7.5567 20.066
7.5719 20.000
7.5871 19.726
7.6022 19.713
7.6174 20.124
7.6326 20.184
7.6478 20.165
7.6629 20.290
7.6781 20.350
7.6933 20.404
7.7085 20.355
7.7236 20.552
7.7388 20.344
7.7540 20.486
7.7692 20.455
7.7843 20.284
7.7995 20.204
7.8147 20.587
7.8299 20.728
7.8450 20.458
7.8602 20.749
7.8754 21.247
7.8905 21.076
7.9057 20.780
7.9209 20.709
7.9361 20.802
7.9512 20.930
7.9664 21.191
7.9816 21.390
7.9968 21.011
8.0119 21.151
8.0271 21.275
8.0423 21.492
8.0575 21.304
8.0726 20.946
8.0878 21.094
8.1030 21.432
8.1182 21.518
8.1333 21.341
8.1485 21.186
8.1637 21.431
8.1789 21.319
8.1940 21.479
8.2092 21.825
8.2244 21.474
8.2396 21.385
8.2547 21.386
8.2699 21.437
8.2851 21.868
8.3003 21.866
8.3154 21.687
8.3306 21.730
8.3458 21.990
8.3610 21.736
8.3761 21.988
8.3913 22.143
8.4065 22.184
8.4217 22.372
8.4368 22.272
8.4520 22.259
8.4672 21.956
8.4824 22.352
8.4975 21.827
8.5127 22.228
8.5279 21.891
8.5431 22.208
8.5582 22.182
8.5734 21.768
8.5886 22.132
8.6038 22.506
8.6189 22.519
8.6341 22.162
8.6493 22.567
8.6645 22.650
8.6796 22.042
8.6948 22.662
8.7100 22.833
8.7252 22.813
8.7403 22.151
8.7555 22.409
8.7707 22.293
8.7859 22.495
8.8010 22.455
8.8162 22.588
8.8314 22.461
8.8466 22.749
8.8617 22.697
8.8769 22.444
8.8921 22.323
8.9073 22.407
8.9224 22.440
8.9376 22.439
8.9528 22.725
8.9680 22.476
8.9831 22.749
8.9983 22.761
9.0135 22.995
9.0287 22.884
9.0438 22.654
9.0590 23.020
9.0742 23.155
9.0894 23.070
9.1045 22.921
9.1197 22.992
9.1349 22.699
9.1501 22.413
9.1652 22.786
9.1804 23.005
9.1956 23.068
9.2108 22.872
9.2259 23.025
9.2411 22.863
9.2563 22.865
9.2715 22.721
9.2866 23.030
9.3018 23.194
9.3170 23.352
9.3322 22.875
9.3473 23.018
9.3625 22.986
9.3777 22.889
9.3929 23.351
9.4080 23.477
9.4232 23.408
9.4384 23.299
9.4536 23.099
9.4687 23.229
9.4839 23.426
9.4991 23.366
9.5143 23.140
9.5294 23.227
9.5446 23.337
9.5598 23.505
9.5750 23.523
9.5901 23.314
9.6053 23.423
9.6205 23.456
9.6357 23.474
9.6508 23.692
9.6660 23.843
9.6812 23.870
9.6964 23.799
9.7115 23.970
9.7267 23.959
9.7419 24.119
9.7571 24.135
9.7722 23.845
9.7874 23.848
9.8026 23.860
9.8178 23.757
9.8329 23.816
9.8481 23.764
9.8633 23.723
9.8785 23.441
9.8936 23.117
9.9088 22.904
9.9240 22.467
9.9392 22.827
9.9543 23.204
9.9695 23.173
9.9847 23.350
9.9999 23.323
10.0150 23.380
10.0302 23.446
10.0454 23.655
10.0606 23.621
10.0757 23.453
10.0909 23.499
10.1061 23.630
10.1213 23.602
10.1364 23.489
10.1516 23.285
10.1668 23.185
10.1820 23.345
10.1971 22.994
10.2123 22.997
10.2275 23.257
10.2427 23.137
10.2578 23.045
10.2730 23.251
10.2882 23.074
10.3034 22.957
10.3185 22.895
10.3337 22.891
10.3489 22.861
10.3641 23.141
10.3792 23.024
10.3944 22.851
10.4096 22.383
10.4248 22.471
10.4399 23.081
10.4551 22.860
10.4703 22.892
10.4855 22.689
10.5006 22.591
10.5158 23.091
10.5310 23.101
10.5462 23.103
10.5613 22.907
10.5765 22.597
10.5917 22.772
10.6069 22.909
10.6220 22.879
10.6372 22.804
10.6524 22.631
10.6676 22.762
10.6827 22.564
10.6979 22.397
10.7131 22.398
10.7283 22.520
10.7434 22.467
10.7586 22.702
10.7738 22.133
10.7890 22.167
10.8041 22.305
10.8193 22.241
10.8345 22.104
10.8497 22.179
10.8648 22.185
10.8800 22.406
10.8952 22.118
10.9104 22.098
10.9255 22.064
10.9407 22.346
10.9559 22.104
10.9711 21.822
10.9862 21.998
11.0014 22.301
11.0166 22.461
11.0318 22.252
11.0469 22.133
11.0621 21.862
11.0773 22.035
11.0925 22.047
11.1076 22.240
11.1228 21.987
11.1380 21.997
11.1532 21.807
11.1683 21.782
11.1835 21.980
11.1987 21.724
11.2139 21.407
11.2290 21.483
11.2442 21.896
11.2594 21.978
11.2746 21.904
11.2897 21.582
11.3049 21.564
11.3201 21.805
11.3353 21.576
11.3504 21.416
11.3656 21.563
11.3808 21.649
11.3960 21.250
11.4111 21.508
11.4263 21.262
11.4415 21.501
11.4567 21.426
11.4718 20.768
11.4870 21.288
11.5022 21.274
11.5174 21.107
11.5325 21.192
11.5477 21.108
11.5629 21.119
11.5781 21.071
11.5932 20.694
11.6084 20.405
11.6236 20.787
11.6388 20.923
11.6539 20.915
11.6691 20.707
11.6843 20.292
11.6995 20.318
11.7146 20.771
11.7298 20.695
11.7450 20.647
11.7602 20.382
11.7753 19.911
11.7905 20.269
11.8057 20.304
11.8209 20.005
11.8360 19.986
11.8512 19.884
11.8664 19.902
11.8816 19.676
11.8967 19.526
11.9119 19.816
11.9271 19.543
11.9423 19.281
11.9574 19.439
11.9726 19.411
11.9878 19.110
12.0030 19.343
12.0181 19.266
12.0333 18.897
12.0485 18.551
12.0637 18.702
12.0788 18.875
12.0940 18.859
12.1092 19.173
12.1244 18.922
12.1395 18.805
12.1547 18.599
12.1699 18.320
12.1851 18.420
12.2002 18.539
12.2154 18.200
12.2306 18.154
12.2458 18.283
12.2609 17.956
12.2761 17.839
12.2913 17.673
12.3065 17.790
12.3216 17.691
12.3368 17.398
12.3520 17.413
12.3672 17.641
12.3823 17.323
12.3975 16.900
12.4127 17.280
12.4279 17.111
12.4430 16.810
12.4582 16.858
12.4734 17.103
12.4886 16.935
12.5037 16.680
12.5189 16.965
12.5341 16.689
12.5493 16.561
12.5644 16.457
12.5796 16.412
12.5948 16.417
12.6100 16.088
12.6251 16.009
12.6403 16.077
12.6555 16.357
12.6707 16.015
12.6858 15.552
12.7010 15.609
12.7162 15.365
12.7314 15.355
12.7465 15.363
12.7617 15.489
12.7769 15.531
12.7921 15.422
12.8072 15.266
12.8224 15.259
12.8376 14.889
12.8528 14.925
12.8679 14.945
12.8831 14.802
12.8983 14.745
12.9135 14.848
12.9286 14.763
12.9438 14.476
12.9590 14.342
12.9742 14.295
12.9893 14.470
13.0045 14.578
13.0197 14.383
13.0349 14.120
13.0500 13.820
13.0652 13.840
13.0804 14.091
13.0956 14.045
13.1107 13.959
13.1259 13.854
13.1411 13.735
13.1563 13.568
13.1714 13.477
13.1866 13.680
13.2018 13.550
13.2170 13.409
13.2321 13.520
13.2473 13.470
13.2625 13.353
13.2777 13.247
13.2928 13.225
13.3080 13.255
13.3232 13.210
13.3384 12.975
13.3535 12.944
13.3687 12.996
13.3839 12.867
13.3991 12.960
13.4142 13.037
13.4294 12.986
13.4446 12.850
13.4598 12.514
13.4749 12.569
13.4901 12.617
13.5053 12.745
13.5205 12.698
13.5356 12.380
13.5508 12.395
13.5660 12.372
13.5812 12.311
13.5963 12.374
13.6115 12.580
13.6267 12.558
13.6419 12.409
13.6570 12.353
13.6722 12.293
13.6874 12.219
13.7026 12.424
13.7177 12.185
13.7329 12.182
13.7481 12.264
13.7633 12.257
13.7784 12.262
13.7936 12.113
13.8088 12.183
13.8239 12.173
13.8391 12.332
13.8543 12.496
13.8695 12.548
13.8846 12.345
13.8998 12.309
13.9150 12.331
13.9302 11.896
13.9453 11.863
13.9605 11.979
13.9757 11.778
13.9909 11.708
14.0060 11.630
14.0212 11.614
14.0364 11.708
14.0516 11.652
14.0667 11.590
14.0819 11.464
14.0971 11.671
14.1123 11.434
14.1274 11.133
14.1426 11.209
14.1578 11.335
14.1730 11.337
14.1881 11.563
14.2033 11.540
14.2185 11.551
14.2337 11.945
14.2488 11.983
14.2640 11.727
14.2792 11.696
14.2944 12.119
14.3095 12.278
14.3247 12.521
14.3399 12.784
14.3551 13.022
14.3702 13.032
14.3854 13.423
14.4006 13.630
14.4158 13.662
14.4309 13.456
14.4461 13.019
14.4613 12.841
14.4765 12.737
14.4916 12.247
14.5068 11.871
14.5220 11.798
14.5372 11.697
14.5523 11.427
14.5675 11.104
14.5827 11.012
14.5979 10.941
14.6130 11.055
14.6282 10.763
14.6434 11.080
14.6586 10.716
14.6737 10.954
14.6889 10.872
14.7041 10.717
14.7193 10.927
14.7344 10.938
14.7496 10.647
14.7648 10.580
14.7800 10.786
14.7951 10.850
14.8103 10.784
14.8255 10.827
14.8407 10.672
14.8558 10.704
14.8710 10.729
14.8862 10.376
14.9014 10.306
14.9165 10.627
14.9317 10.830
14.9469 10.692
14.9621 10.551
14.9772 10.413
14.9924 10.321
15.0076 10.209
15.0228 10.589
15.0379 10.371
15.0531 10.495
15.0683 10.445
15.0835 10.257
15.0986 10.358
15.1138 10.380
15.1290 10.100
15.1442 10.103
15.1593 10.354
15.1745 10.532
15.1897 10.280
15.2049 10.327
15.2200 10.432
15.2352 10.281
15.2504 10.192
15.2656 10.426
15.2807 10.361
15.2959 10.183
15.3111 10.385
15.3263 10.316
15.3414 10.071
15.3566 10.172
15.3718 10.279
15.3870 10.403
15.4021 10.449
15.4173 10.164
15.4325 10.294
15.4477 10.382
15.4628 10.047
15.4780 10.085
15.4932 10.161
15.5084 9.989
15.5235 10.084
15.5387 10.018
15.5539 10.265
15.5691 10.148
15.5842 9.998
15.5994 9.798
15.6146 10.110
15.6298 9.872
15.6449 9.977
15.6601 9.756
15.6753 9.969
15.6905 9.698
15.7056 9.813
15.7208 10.028
15.7360 9.631
15.7512 9.876
15.7663 9.835
15.7815 10.045
15.7967 10.053
15.8119 9.765
15.8270 9.875
15.8422 9.803
15.8574 9.400
15.8726 9.672
15.8877 9.676
15.9029 9.486
15.9181 9.582
15.9333 9.605
15.9484 9.742
15.9636 9.774
15.9788 9.890
15.9940 9.878
16.0091 9.920
16.0243 9.836
16.0395 9.686
16.0547 9.718
16.0698 9.951
16.0850 9.710
16.1002 9.797
16.1154 9.760
16.1305 9.684
16.1457 9.677
16.1609 9.860
16.1761 9.697
16.1912 9.526
16.2064 10.012
16.2216 9.898
16.2368 9.904
16.2519 9.783
16.2671 9.980
16.2823 9.843
16.2975 9.586
16.3126 9.812
16.3278 9.784
16.3430 9.931
16.3582 9.828
16.3733 9.857
16.3885 9.805
16.4037 9.779
16.4189 9.876
16.4340 10.072
16.4492 9.888
16.4644 9.747
16.4796 9.824
16.4947 9.896
16.5099 9.840
16.5251 9.589
16.5403 9.641
16.5554 9.554
16.5706 9.629
16.5858 9.642
16.6010 9.415
16.6161 9.625
16.6313 9.636
16.6465 9.932
16.6617 10.247
16.6768 9.991
16.6920 9.797
16.7072 10.051
16.7224 10.172
16.7375 10.094
16.7527 10.071
16.7679 10.064
16.7831 10.002
16.7982 10.060
16.8134 10.004
16.8286 9.918
16.8438 10.166
16.8589 10.032
16.8741 9.847
16.8893 9.899
16.9045 9.926
16.9196 10.050
16.9348 9.762
16.9500 9.664
16.9652 9.683
16.9803 9.644
16.9955 9.911
17.0107 10.091
17.0259 10.057
17.0410 10.034
17.0562 10.122
17.0714 10.104
17.0866 10.193
17.1017 10.432
17.1169 10.662
17.1321 11.030
17.1473 11.281
17.1624 11.690
17.1776 12.306
17.1928 12.914
17.2080 13.889
17.2231 14.937
17.2383 16.239
17.2535 17.755
17.2687 18.725
17.2838 18.649
17.2990 17.894
17.3142 17.004
17.3294 16.385
17.3445 16.053
17.3597 15.904
17.3749 15.623
17.3901 15.138
17.4052 14.405
17.4204 13.152
17.4356 12.222
17.4508 11.656
17.4659 11.374
17.4811 11.333
17.4963 11.179
17.5115 11.015
17.5266 10.973
17.5418 10.830
17.5570 10.816
17.5722 11.186
17.5873 11.249
17.6025 11.012
17.6177 11.026
17.6329 11.298
17.6480 11.626
17.6632 11.892
17.6784 12.017
17.6936 12.204
17.7087 11.863
17.7239 11.554
17.7391 11.429
17.7543 11.048
17.7694 11.106
17.7846 11.189
17.7998 11.118
17.8150 10.921
17.8301 10.523
17.8453 10.490
17.8605 10.457
17.8757 10.230
17.8908 10.244
17.9060 10.309
17.9212 10.280
17.9364 10.048
17.9515 9.937
17.9667 10.088
17.9819 10.161
17.9971 10.224
18.0122 10.110
18.0274 10.069
18.0426 10.033
18.0578 10.009
18.0729 10.072
18.0881 10.205
18.1033 10.176
18.1185 10.063
18.1336 9.792
18.1488 9.801
18.1640 10.018
18.1792 10.028
18.1943 10.063
18.2095 9.913
18.2247 9.824
18.2399 9.899
18.2550 9.922
18.2702 10.128
18.2854 10.152
18.3006 9.912
18.3157 9.702
18.3309 9.767
18.3461 9.892
18.3613 9.893
18.3764 9.860
18.3916 9.710
18.4068 9.797
18.4220 9.818
18.4371 9.598
18.4523 9.695
18.4675 9.845
18.4827 9.967
18.4978 9.847
18.5130 9.643
18.5282 9.715
18.5434 10.068
18.5585 9.957
18.5737 9.874
18.5889 9.888
18.6041 9.975
18.6192 9.787
18.6344 9.933
18.6496 9.920
18.6648 9.899
18.6799 9.570
18.6951 9.645
18.7103 9.852
18.7255 9.958
18.7406 9.897
18.7558 9.739
18.7710 9.938
18.7862 9.986
18.8013 9.796
18.8165 9.735
18.8317 9.853
18.8469 9.861
18.8620 9.936
18.8772 10.092
18.8924 9.987
18.9076 9.857
18.9227 10.026
18.9379 10.177
18.9531 10.190
18.9683 10.109
18.9834 10.018
18.9986 10.120
19.0138 10.199
19.0290 10.101
19.0441 10.104
19.0593 10.218
19.0745 10.225
19.0897 10.422
19.1048 10.358
19.1200 10.327
19.1352 10.549
19.1504 10.600
19.1655 10.502
19.1807 10.548
19.1959 10.734
19.2111 10.792
19.2262 10.977
19.2414 10.973
19.2566 10.821
19.2718 10.752
19.2869 10.933
19.3021 10.969
19.3173 10.716
19.3325 10.870
19.3476 11.147
19.3628 10.948
19.3780 10.959
19.3932 11.124
19.4083 11.458
19.4235 11.477
19.4387 11.188
19.4539 11.190
19.4690 11.368
19.4842 11.350
19.4994 11.344
19.5146 11.467
19.5297 11.362
19.5449 11.255
19.5601 11.243
19.5753 11.567
19.5904 11.536
19.6056 11.395
19.6208 11.669
19.6360 11.930
19.6511 11.859
19.6663 11.728
19.6815 11.925
19.6967 11.880
19.7118 11.578
19.7270 11.633
19.7422 11.785
19.7574 11.714
19.7725 11.757
19.7877 11.924
19.8029 12.025
19.8180 12.044
19.8332 12.051
19.8484 12.457
19.8636 12.644
19.8787 12.652
19.8939 12.895
19.9091 13.285
19.9243 13.461
19.9394 13.649
19.9546 14.031
19.9698 14.323
19.9850 14.655
20.0001 14.681
20.0153 14.307
20.0305 14.276
20.0457 13.938
20.0608 13.816
20.0760 13.866
20.0912 13.889
20.1064 13.737
20.1215 13.490
20.1367 13.287
20.1519 12.873
20.1671 12.557
20.1822 12.592
20.1974 12.559
20.2126 12.405
20.2278 12.637
20.2429 12.567
20.2581 12.485
20.2733 12.192
20.2885 11.885
20.3036 11.884
20.3188 12.025
20.3340 12.071
20.3492 11.857
20.3643 11.606
20.3795 11.899
20.3947 11.909
20.4099 11.885
20.4250 11.859
20.4402 12.005
20.4554 12.215
20.4706 12.132
20.4857 12.031
20.5009 11.717
20.5161 11.612
20.5313 11.581
20.5464 11.280
20.5616 11.510
20.5768 11.339
20.5920 11.153
20.6071 11.191
20.6223 10.669
20.6375 10.811
20.6527 10.839
20.6678 10.953
20.6830 10.795
20.6982 10.679
20.7134 10.363
20.7285 10.370
20.7437 10.474
20.7589 10.480
20.7741 10.374
20.7892 10.314
20.8044 10.206
20.8196 10.613
20.8348 10.459
20.8499 10.614
20.8651 10.117
20.8803 10.146
20.8955 10.050
20.9106 10.134
20.9258 10.124
20.9410 10.176
20.9562 10.060
20.9713 9.972
20.9865 10.114
21.0017 10.011
21.0169 9.924
21.0320 9.871
21.0472 10.152
21.0624 10.080
21.0776 9.832
21.0927 10.059
21.1079 9.873
21.1231 9.890
21.1383 9.992
21.1534 9.861
21.1686 10.215
21.1838 9.680
21.1990 9.607
21.2141 9.703
21.2293 9.676
21.2445 9.626
21.2597 9.642
21.2748 10.175
21.2900 9.576
21.3052 9.472
21.3204 9.867
21.3355 9.791
21.3507 9.435
21.3659 9.552
21.3811 9.634
21.3962 9.581
21.4114 9.462
21.4266 9.462
21.4418 9.426
21.4569 9.480
21.4721 9.694
21.4873 9.511
21.5025 9.361
21.5176 9.312
21.5328 9.322
21.5480 9.241
21.5632 9.512
21.5783 9.401
21.5935 9.360
21.6087 9.206
21.6239 9.197
21.6390 9.056
21.6542 9.060
21.6694 9.194
21.6846 9.181
21.6997 9.053
21.7149 9.193
21.7301 9.335
21.7453 9.086
21.7604 8.891
21.7756 8.787
21.7908 8.943
21.8060 9.070
21.8211 9.217
21.8363 8.966
21.8515 8.836
21.8667 9.002
21.8818 9.219
21.8970 9.192
21.9122 9.016
21.9274 9.022
21.9425 8.937
21.9577 8.931
21.9729 9.020
21.9881 8.921
22.0032 8.993
22.0184 9.051
22.0336 9.081
22.0488 8.901
22.0639 8.735
22.0791 8.746
22.0943 8.638
22.1095 8.602
22.1246 8.670
22.1398 8.692
22.1550 8.607
22.1702 8.705
22.1853 8.602
22.2005 8.639
22.2157 8.659
22.2309 8.519
22.2460 8.696
22.2612 8.689
22.2764 8.518
22.2916 8.748
22.3067 8.724
22.3219 8.737
22.3371 8.675
22.3523 8.479
22.3674 8.695
22.3826 8.195
22.3978 8.617
22.4130 8.487
22.4281 8.424
22.4433 8.625
22.4585 8.676
22.4737 8.475
22.4888 8.347
22.5040 8.457
22.5192 8.611
22.5344 8.298
22.5495 8.574
22.5647 8.739
22.5799 8.577
22.5951 8.528
22.6102 8.483
22.6254 8.457
22.6406 8.164
22.6558 8.403
22.6709 8.671
22.6861 8.312
22.7013 8.105
22.7165 7.985
22.7316 6.438
