'Id: "" Comment: "" Operator: "Lab Manager" Anode: "Mo" Scantype: "Still (Eiger2R_500K (1D mode))" TimePerStep: "300" X: "11.8" Y: "9.4" Z: "11.284" 
7.2532 18.819
7.2684 18.878
7.2836 19.276
7.2987 19.205
7.3139 19.227
7.3291 19.469
7.3443 19.249
7.3594 19.558
7.3746 19.833
7.3898 19.521
7.4050 19.532
7.4201 18.950
7.4353 19.347
7.4505 19.749
7.4657 19.703
7.4808 19.317
7.4960 19.714
7.5112 19.684
7.5264 20.144
7.5415 20.164
7.5567 20.166
7.5719 19.824
7.5871 20.028
7.6022 20.045
7.6174 19.957
7.6326 20.069
7.6478 20.206
7.6629 20.075
7.6781 20.194
7.6933 20.315
7.7085 20.420
7.7236 20.579
7.7388 20.645
7.7540 20.511
7.7692 20.562
7.7843 20.618
7.7995 20.711
7.8147 20.857
7.8299 20.986
7.8450 20.983
7.8602 21.083
7.8754 21.078
7.8905 21.072
7.9057 21.079
7.9209 21.098
7.9361 21.374
7.9512 21.372
7.9664 20.978
7.9816 20.937
7.9968 21.371
8.0119 21.082
8.0271 20.877
8.0423 21.098
8.0575 21.161
8.0726 21.232
8.0878 21.111
8.1030 21.047
8.1182 21.465
8.1333 21.841
8.1485 21.784
8.1637 21.858
8.1789 21.718
8.1940 21.446
8.2092 21.847
8.2244 21.590
8.2396 21.895
8.2547 22.079
8.2699 21.828
8.2851 21.920
8.3003 22.156
8.3154 22.112
8.3306 21.593
8.3458 21.834
8.3610 21.861
8.3761 21.971
8.3913 22.292
8.4065 22.533
8.4217 22.596
8.4368 21.793
8.4520 21.910
8.4672 21.776
8.4824 22.013
8.4975 22.220
8.5127 22.230
8.5279 22.358
8.5431 21.712
8.5582 22.532
8.5734 22.030
8.5886 22.220
8.6038 22.100
8.6189 22.260
8.6341 22.281
8.6493 22.461
8.6645 22.065
8.6796 22.134
8.6948 22.857
8.7100 23.212
8.7252 22.646
8.7403 23.002
8.7555 22.456
8.7707 22.434
8.7859 22.488
8.8010 22.197
8.8162 22.636
8.8314 23.024
8.8466 22.883
8.8617 22.786
8.8769 22.639
8.8921 22.551
8.9073 22.325
8.9224 22.414
8.9376 22.418
8.9528 22.811
8.9680 23.099
8.9831 22.718
8.9983 22.794
9.0135 23.359
9.0287 23.049
9.0438 23.199
9.0590 23.054
9.0742 22.407
9.0894 22.979
9.1045 23.041
9.1197 22.967
9.1349 22.827
9.1501 22.957
9.1652 22.963
9.1804 22.909
9.1956 22.683
9.2108 23.322
9.2259 23.036
9.2411 22.700
9.2563 22.889
9.2715 22.635
9.2866 22.836
9.3018 22.907
9.3170 23.163
9.3322 23.303
9.3473 23.355
9.3625 23.267
9.3777 23.252
9.3929 23.178
9.4080 23.419
9.4232 23.212
9.4384 23.117
9.4536 23.170
9.4687 22.784
9.4839 22.825
9.4991 22.987
9.5143 23.226
9.5294 23.489
9.5446 23.394
9.5598 23.058
9.5750 23.098
9.5901 23.518
9.6053 23.654
9.6205 23.718
9.6357 23.887
9.6508 23.667
9.6660 23.624
9.6812 23.867
9.6964 23.911
9.7115 23.986
9.7267 24.066
9.7419 24.059
9.7571 23.931
9.7722 23.814
9.7874 23.537
9.8026 23.639
9.8178 23.898
9.8329 23.746
9.8481 23.856
9.8633 23.886
9.8785 23.965
9.8936 23.764
9.9088 23.498
9.9240 23.547
9.9392 23.708
9.9543 23.773
9.9695 23.951
9.9847 23.939
9.9999 23.758
10.0150 23.560
10.0302 23.410
10.0454 23.806
10.0606 23.713
10.0757 23.926
10.0909 23.771
10.1061 23.401
10.1213 23.605
10.1364 23.625
10.1516 23.590
10.1668 23.831
10.1820 23.983
10.1971 24.128
10.2123 24.105
10.2275 24.576
10.2427 24.671
10.2578 24.215
10.2730 24.168
10.2882 24.058
10.3034 23.771
10.3185 23.466
10.3337 23.461
10.3489 23.612
10.3641 23.123
10.3792 23.033
10.3944 23.232
10.4096 22.877
10.4248 22.884
10.4399 23.066
10.4551 23.050
10.4703 22.732
10.4855 22.523
10.5006 22.627
10.5158 22.771
10.5310 22.814
10.5462 22.833
10.5613 22.937
10.5765 23.105
10.5917 23.149
10.6069 23.084
10.6220 22.922
10.6372 22.651
10.6524 22.393
10.6676 22.868
10.6827 23.149
10.6979 22.893
10.7131 22.559
10.7283 22.600
10.7434 22.547
10.7586 22.817
10.7738 22.806
10.7890 22.405
10.8041 22.574
10.8193 22.785
10.8345 22.501
10.8497 22.282
10.8648 22.294
10.8800 22.202
10.8952 22.279
10.9104 22.628
10.9255 22.092
10.9407 21.977
10.9559 22.442
10.9711 22.234
10.9862 22.370
11.0014 22.422
11.0166 22.309
11.0318 21.967
11.0469 21.906
11.0621 22.004
11.0773 22.030
11.0925 22.045
11.1076 21.858
11.1228 21.897
11.1380 21.806
11.1532 22.031
11.1683 21.938
11.1835 22.168
11.1987 22.138
11.2139 21.806
11.2290 22.054
11.2442 21.634
11.2594 21.710
11.2746 21.750
11.2897 21.568
11.3049 21.742
11.3201 21.877
11.3353 21.604
11.3504 21.458
11.3656 21.498
11.3808 21.218
11.3960 21.349
11.4111 21.346
11.4263 21.340
11.4415 21.457
11.4567 21.481
11.4718 21.565
11.4870 21.157
11.5022 21.009
11.5174 20.863
11.5325 20.900
11.5477 21.499
11.5629 21.361
11.5781 20.958
11.5932 20.872
11.6084 21.267
11.6236 20.883
11.6388 20.596
11.6539 20.479
11.6691 20.611
11.6843 20.713
11.6995 20.609
11.7146 20.700
11.7298 20.563
11.7450 20.265
11.7602 20.248
11.7753 20.030
11.7905 19.747
11.8057 19.975
11.8209 20.170
11.8360 20.252
11.8512 19.721
11.8664 19.895
11.8816 19.696
11.8967 19.639
11.9119 19.460
11.9271 19.741
11.9423 19.732
11.9574 19.507
11.9726 19.545
11.9878 19.541
12.0030 19.330
12.0181 19.153
12.0333 18.966
12.0485 18.785
12.0637 18.888
12.0788 18.829
12.0940 18.867
12.1092 18.606
12.1244 18.360
12.1395 18.289
12.1547 18.521
12.1699 18.656
12.1851 18.219
12.2002 18.010
12.2154 18.121
12.2306 18.120
12.2458 18.032
12.2609 18.045
12.2761 17.788
12.2913 17.569
12.3065 17.587
12.3216 17.686
12.3368 17.943
12.3520 17.705
12.3672 17.516
12.3823 17.201
12.3975 17.249
12.4127 17.258
12.4279 17.067
12.4430 16.971
12.4582 16.956
12.4734 16.896
12.4886 17.012
12.5037 16.863
12.5189 16.998
12.5341 16.664
12.5493 16.357
12.5644 16.468
12.5796 16.441
12.5948 16.283
12.6100 16.522
12.6251 16.293
12.6403 15.932
12.6555 15.682
12.6707 15.371
12.6858 15.472
12.7010 15.447
12.7162 15.508
12.7314 15.558
12.7465 15.453
12.7617 15.303
12.7769 15.171
12.7921 15.095
12.8072 15.238
12.8224 15.345
12.8376 15.019
12.8528 14.919
12.8679 14.848
12.8831 14.524
12.8983 14.490
12.9135 14.783
12.9286 14.514
12.9438 14.501
12.9590 14.696
12.9742 14.481
12.9893 14.476
13.0045 14.295
13.0197 14.207
13.0349 14.190
13.0500 13.963
13.0652 13.957
13.0804 13.724
13.0956 13.697
13.1107 13.805
13.1259 13.619
13.1411 13.677
13.1563 13.724
13.1714 13.719
13.1866 13.773
13.2018 13.611
13.2170 13.588
13.2321 13.514
13.2473 13.158
13.2625 13.086
13.2777 13.090
13.2928 13.146
13.3080 13.151
13.3232 12.989
13.3384 13.001
13.3535 13.230
13.3687 13.243
13.3839 13.015
13.3991 13.027
13.4142 13.210
13.4294 13.175
13.4446 12.845
13.4598 12.974
13.4749 12.888
13.4901 12.574
13.5053 12.455
13.5205 12.508
13.5356 12.660
13.5508 12.479
13.5660 12.582
13.5812 12.452
13.5963 12.164
13.6115 12.193
13.6267 12.458
13.6419 12.377
13.6570 12.236
13.6722 12.207
13.6874 12.224
13.7026 12.166
13.7177 12.036
13.7329 11.999
13.7481 11.973
13.7633 12.051
13.7784 12.088
13.7936 12.247
13.8088 12.149
13.8239 12.221
13.8391 12.379
13.8543 12.365
13.8695 12.197
13.8846 12.408
13.8998 12.248
13.9150 12.138
13.9302 12.056
13.9453 11.954
13.9605 11.990
13.9757 11.943
13.9909 11.700
14.0060 11.487
14.0212 11.602
14.0364 11.590
14.0516 11.199
14.0667 11.443
14.0819 11.526
14.0971 11.513
14.1123 11.344
14.1274 11.216
14.1426 11.337
14.1578 11.287
14.1730 11.379
14.1881 11.634
14.2033 11.591
14.2185 11.622
14.2337 11.502
14.2488 11.707
14.2640 11.677
14.2792 11.597
14.2944 11.845
14.3095 12.015
14.3247 11.923
14.3399 12.207
14.3551 12.439
14.3702 12.595
14.3854 12.896
14.4006 13.088
14.4158 13.248
14.4309 13.289
14.4461 12.984
14.4613 12.928
14.4765 12.964
14.4916 12.909
14.5068 13.150
14.5220 13.004
14.5372 12.904
14.5523 12.801
14.5675 12.544
14.5827 12.080
14.5979 12.076
14.6130 12.049
14.6282 11.713
14.6434 11.777
14.6586 11.618
14.6737 11.478
14.6889 11.278
14.7041 11.522
14.7193 11.340
14.7344 11.166
14.7496 11.138
14.7648 10.811
14.7800 11.073
14.7951 10.934
14.8103 10.696
14.8255 10.744
14.8407 11.138
14.8558 10.751
14.8710 10.679
14.8862 10.761
14.9014 11.023
14.9165 10.945
14.9317 11.021
14.9469 10.799
14.9621 10.686
14.9772 10.672
14.9924 10.701
15.0076 10.460
15.0228 10.480
15.0379 10.539
15.0531 10.587
15.0683 10.341
15.0835 10.543
15.0986 10.519
15.1138 10.681
15.1290 10.452
15.1442 10.733
15.1593 10.461
15.1745 10.295
15.1897 10.350
15.2049 10.258
15.2200 10.714
15.2352 10.302
15.2504 10.524
15.2656 10.509
15.2807 10.482
15.2959 10.325
15.3111 10.549
15.3263 10.418
15.3414 10.026
15.3566 10.278
15.3718 10.419
15.3870 10.592
15.4021 10.512
15.4173 10.621
15.4325 10.392
15.4477 10.084
15.4628 10.544
15.4780 10.383
15.4932 10.280
15.5084 10.372
15.5235 10.524
15.5387 10.242
15.5539 10.442
15.5691 10.504
15.5842 10.608
15.5994 10.058
15.6146 10.293
15.6298 10.143
15.6449 10.319
15.6601 10.195
15.6753 10.097
15.6905 9.957
15.7056 9.898
15.7208 10.089
15.7360 9.811
15.7512 9.831
15.7663 10.050
15.7815 9.810
15.7967 10.010
15.8119 9.751
15.8270 9.952
15.8422 9.689
15.8574 9.578
15.8726 9.727
15.8877 9.628
15.9029 9.745
15.9181 9.518
15.9333 9.935
15.9484 9.657
15.9636 9.722
15.9788 9.850
15.9940 9.786
16.0091 9.491
16.0243 9.854
16.0395 10.141
16.0547 9.850
16.0698 9.752
16.0850 9.958
16.1002 9.595
16.1154 9.699
16.1305 9.958
16.1457 9.599
16.1609 9.545
16.1761 9.771
16.1912 9.752
16.2064 9.883
16.2216 9.721
16.2368 9.733
16.2519 9.649
16.2671 9.702
16.2823 10.034
16.2975 10.337
16.3126 10.319
16.3278 9.999
16.3430 10.055
16.3582 9.972
16.3733 10.229
16.3885 10.253
16.4037 10.344
16.4189 10.318
16.4340 10.124
16.4492 10.000
16.4644 9.950
16.4796 9.967
16.4947 9.973
16.5099 9.721
16.5251 9.566
16.5403 9.767
16.5554 9.696
16.5706 9.708
16.5858 9.733
16.6010 9.596
16.6161 9.595
16.6313 9.624
16.6465 9.592
16.6617 9.899
16.6768 9.908
16.6920 9.861
16.7072 9.857
16.7224 9.934
16.7375 10.085
16.7527 9.894
16.7679 9.901
16.7831 9.997
16.7982 10.080
16.8134 10.015
16.8286 9.770
16.8438 9.930
16.8589 9.948
16.8741 9.578
16.8893 9.660
16.9045 9.942
16.9196 9.969
16.9348 9.701
16.9500 9.691
16.9652 9.901
16.9803 10.077
16.9955 10.066
17.0107 9.867
17.0259 9.842
17.0410 10.070
17.0562 10.186
17.0714 10.365
17.0866 10.480
17.1017 10.279
17.1169 10.698
17.1321 10.985
17.1473 11.116
17.1624 11.560
17.1776 12.175
17.1928 12.866
17.2080 13.891
17.2231 15.140
17.2383 16.260
17.2535 17.420
17.2687 18.258
17.2838 18.632
17.2990 18.287
17.3142 16.977
17.3294 15.962
17.3445 16.083
17.3597 16.213
17.3749 15.659
17.3901 14.862
17.4052 14.067
17.4204 13.158
17.4356 12.326
17.4508 11.972
17.4659 11.769
17.4811 11.484
17.4963 11.355
17.5115 11.340
17.5266 11.260
17.5418 10.941
17.5570 10.785
17.5722 10.998
17.5873 11.139
17.6025 11.266
17.6177 11.126
17.6329 10.753
17.6480 10.495
17.6632 10.543
17.6784 10.564
17.6936 10.523
17.7087 10.784
17.7239 10.634
17.7391 10.719
17.7543 10.854
17.7694 10.935
17.7846 11.132
17.7998 11.157
17.8150 11.342
17.8301 11.269
17.8453 11.529
17.8605 11.887
17.8757 11.691
17.8908 11.667
17.9060 11.797
17.9212 11.787
17.9364 11.580
17.9515 11.339
17.9667 11.116
17.9819 11.107
17.9971 10.935
18.0122 10.774
18.0274 10.750
18.0426 10.579
18.0578 10.569
18.0729 10.431
18.0881 10.425
18.1033 10.252
18.1185 10.143
18.1336 10.209
18.1488 10.221
18.1640 10.066
18.1792 9.943
18.1943 10.008
18.2095 10.028
18.2247 9.818
18.2399 9.861
18.2550 9.998
18.2702 9.789
18.2854 9.926
18.3006 9.954
18.3157 9.748
18.3309 9.809
18.3461 9.694
18.3613 9.824
18.3764 9.924
18.3916 9.898
18.4068 10.037
18.4220 10.026
18.4371 9.953
18.4523 9.836
18.4675 9.872
18.4827 9.811
18.4978 9.747
18.5130 9.987
18.5282 9.908
18.5434 9.813
18.5585 9.852
18.5737 9.790
18.5889 9.697
18.6041 9.770
18.6192 9.719
18.6344 9.609
18.6496 9.411
18.6648 9.477
18.6799 9.711
18.6951 9.581
18.7103 9.852
18.7255 9.873
18.7406 9.844
18.7558 9.738
18.7710 9.893
18.7862 10.063
18.8013 9.913
18.8165 9.676
18.8317 9.712
18.8469 9.867
18.8620 9.835
18.8772 9.880
18.8924 9.867
18.9076 9.718
18.9227 9.808
18.9379 9.970
18.9531 10.092
18.9683 10.035
18.9834 10.019
18.9986 10.320
19.0138 10.329
19.0290 9.977
19.0441 10.100
19.0593 10.400
19.0745 10.335
19.0897 10.253
19.1048 10.347
19.1200 10.425
19.1352 10.294
19.1504 10.654
19.1655 10.752
19.1807 10.510
19.1959 10.582
19.2111 10.868
19.2262 10.818
19.2414 10.960
19.2566 11.099
19.2718 10.992
19.2869 10.859
19.3021 10.824
19.3173 10.754
19.3325 10.844
19.3476 11.140
19.3628 11.137
19.3780 10.911
19.3932 11.079
19.4083 11.369
19.4235 11.280
19.4387 11.223
19.4539 11.095
19.4690 11.163
19.4842 11.233
19.4994 11.215
19.5146 11.436
19.5297 11.367
19.5449 11.445
19.5601 11.604
19.5753 11.567
19.5904 11.454
19.6056 11.623
19.6208 11.662
19.6360 11.476
19.6511 11.411
19.6663 11.566
19.6815 11.695
19.6967 11.779
19.7118 11.832
19.7270 11.669
19.7422 11.521
19.7574 11.720
19.7725 11.944
19.7877 11.863
19.8029 11.911
19.8180 12.034
19.8332 12.092
19.8484 12.120
19.8636 12.200
19.8787 12.320
19.8939 12.483
19.9091 12.925
19.9243 13.458
19.9394 13.498
19.9546 13.597
19.9698 14.241
19.9850 14.375
20.0001 14.316
20.0153 14.379
20.0305 14.139
20.0457 13.788
20.0608 13.767
20.0760 13.489
20.0912 13.479
20.1064 13.765
20.1215 13.748
20.1367 13.455
20.1519 13.086
20.1671 12.810
20.1822 12.927
20.1974 12.592
20.2126 12.811
20.2278 13.025
20.2429 12.639
20.2581 12.359
20.2733 11.928
20.2885 11.980
20.3036 12.225
20.3188 11.951
20.3340 11.543
20.3492 11.465
20.3643 11.657
20.3795 11.405
20.3947 10.975
20.4099 10.775
20.4250 10.576
20.4402 10.618
20.4554 10.992
20.4706 11.077
20.4857 11.109
20.5009 11.112
20.5161 10.976
20.5313 10.829
20.5464 10.819
20.5616 10.759
20.5768 10.956
20.5920 10.879
20.6071 10.793
20.6223 10.908
20.6375 10.786
20.6527 11.088
20.6678 10.902
20.6830 11.010
20.6982 11.156
20.7134 11.133
20.7285 10.619
20.7437 10.957
20.7589 10.787
20.7741 10.832
20.7892 10.932
20.8044 10.728
20.8196 10.568
20.8348 10.793
20.8499 10.618
20.8651 10.615
20.8803 10.585
20.8955 10.419
20.9106 10.397
20.9258 10.176
20.9410 10.616
20.9562 10.287
20.9713 10.414
20.9865 10.380
21.0017 10.152
21.0169 10.051
21.0320 10.357
21.0472 10.132
21.0624 9.862
21.0776 10.362
21.0927 10.059
21.1079 10.035
21.1231 10.024
21.1383 10.266
21.1534 10.105
21.1686 9.991
21.1838 9.758
21.1990 9.690
21.2141 9.522
21.2293 9.791
21.2445 9.781
21.2597 9.577
21.2748 9.992
21.2900 9.920
21.3052 9.392
21.3204 9.497
21.3355 9.528
21.3507 9.754
21.3659 9.528
21.3811 9.487
21.3962 9.108
21.4114 9.298
21.4266 9.303
21.4418 9.333
21.4569 9.256
21.4721 9.236
21.4873 9.248
21.5025 9.384
21.5176 9.306
21.5328 9.362
21.5480 9.415
21.5632 9.323
21.5783 9.414
21.5935 9.373
21.6087 9.113
21.6239 9.239
21.6390 9.129
21.6542 9.125
21.6694 9.072
21.6846 8.935
21.6997 8.947
21.7149 9.021
21.7301 8.959
21.7453 9.048
21.7604 8.948
21.7756 8.796
21.7908 8.823
21.8060 9.111
21.8211 9.069
21.8363 8.894
21.8515 8.981
21.8667 9.228
21.8818 9.038
21.8970 8.825
21.9122 8.942
21.9274 9.001
21.9425 9.194
21.9577 9.183
21.9729 8.873
21.9881 8.795
22.0032 8.867
22.0184 8.847
22.0336 8.841
22.0488 8.890
22.0639 8.877
22.0791 8.727
22.0943 8.559
22.1095 8.335
22.1246 8.436
22.1398 8.595
22.1550 8.709
22.1702 8.724
22.1853 8.702
22.2005 8.655
22.2157 8.711
22.2309 8.908
22.2460 8.827
22.2612 8.464
22.2764 8.591
22.2916 8.723
22.3067 8.588
22.3219 8.566
22.3371 8.575
22.3523 8.493
22.3674 8.336
22.3826 8.652
22.3978 8.574
22.4130 8.190
22.4281 8.452
22.4433 8.432
22.4585 8.378
22.4737 8.472
22.4888 8.610
22.5040 8.670
22.5192 8.637
22.5344 8.491
22.5495 8.736
22.5647 8.217
22.5799 8.106
22.5951 8.435
22.6102 8.573
22.6254 8.563
22.6406 8.488
22.6558 8.387
22.6709 8.492
22.6861 8.350
22.7013 8.286
22.7165 8.252
22.7316 6.589
