'Id: "" Comment: "" Operator: "Lab Manager" Anode: "Mo" Scantype: "Still (Eiger2R_500K (1D mode))" TimePerStep: "300" X: "11.8" Y: "9.4" Z: "11.284" 
7.2532 18.569
7.2684 18.943
7.2836 18.542
7.2987 19.177
7.3139 19.216
7.3291 18.870
7.3443 19.364
7.3594 19.019
7.3746 19.387
7.3898 19.078
7.4050 18.875
7.4201 19.290
7.4353 19.368
7.4505 19.483
7.4657 19.535
7.4808 19.408
7.4960 19.216
7.5112 19.674
7.5264 19.726
7.5415 19.882
7.5567 19.586
7.5719 19.742
7.5871 20.361
7.6022 20.132
7.6174 19.860
7.6326 19.935
7.6478 20.329
7.6629 20.247
7.6781 20.190
7.6933 20.399
7.7085 20.303
7.7236 20.512
7.7388 20.553
7.7540 20.066
7.7692 20.493
7.7843 20.869
7.7995 20.850
7.8147 20.878
7.8299 20.869
7.8450 20.908
7.8602 20.834
7.8754 20.992
7.8905 21.033
7.9057 21.025
7.9209 21.219
7.9361 21.246
7.9512 21.392
7.9664 21.250
7.9816 20.863
7.9968 21.180
8.0119 21.456
8.0271 21.033
8.0423 20.914
8.0575 21.225
8.0726 21.400
8.0878 21.086
8.1030 21.050
8.1182 21.300
8.1333 21.421
8.1485 21.800
8.1637 21.498
8.1789 21.446
8.1940 21.459
8.2092 21.400
8.2244 21.016
8.2396 21.720
8.2547 21.778
8.2699 21.767
8.2851 21.515
8.3003 21.747
8.3154 21.388
8.3306 21.655
8.3458 21.884
8.3610 22.033
8.3761 21.718
8.3913 22.193
8.4065 21.886
8.4217 21.977
8.4368 22.057
8.4520 22.058
8.4672 22.211
8.4824 21.627
8.4975 22.289
8.5127 22.809
8.5279 22.287
8.5431 22.272
8.5582 22.361
8.5734 21.905
8.5886 21.900
8.6038 22.661
8.6189 22.748
8.6341 22.516
8.6493 22.813
8.6645 22.484
8.6796 22.790
8.6948 22.673
8.7100 22.780
8.7252 22.604
8.7403 22.902
8.7555 22.687
8.7707 22.949
8.7859 22.539
8.8010 23.406
8.8162 22.884
8.8314 22.527
8.8466 22.935
8.8617 22.735
8.8769 22.740
8.8921 22.713
8.9073 22.803
8.9224 23.151
8.9376 23.174
8.9528 23.055
8.9680 22.916
8.9831 23.043
8.9983 22.556
9.0135 22.721
9.0287 23.144
9.0438 22.747
9.0590 22.693
9.0742 22.930
9.0894 22.836
9.1045 22.536
9.1197 22.609
9.1349 22.862
9.1501 22.875
9.1652 22.934
9.1804 22.875
9.1956 22.907
9.2108 22.985
9.2259 23.169
9.2411 23.373
9.2563 23.460
9.2715 23.007
9.2866 23.192
9.3018 23.332
9.3170 23.336
9.3322 23.180
9.3473 22.982
9.3625 23.247
9.3777 23.401
9.3929 23.439
9.4080 23.528
9.4232 23.268
9.4384 23.363
9.4536 23.240
9.4687 23.070
9.4839 23.394
9.4991 23.354
9.5143 23.281
9.5294 23.204
9.5446 23.120
9.5598 23.232
9.5750 23.669
9.5901 23.607
9.6053 23.460
9.6205 23.229
9.6357 23.352
9.6508 23.843
9.6660 23.543
9.6812 23.725
9.6964 23.942
9.7115 24.042
9.7267 24.048
9.7419 24.156
9.7571 24.145
9.7722 23.700
9.7874 23.776
9.8026 23.808
9.8178 23.798
9.8329 23.787
9.8481 23.653
9.8633 23.240
9.8785 23.059
9.8936 23.236
9.9088 23.273
9.9240 23.337
9.9392 23.475
9.9543 23.423
9.9695 23.375
9.9847 23.626
9.9999 23.365
10.0150 23.496
10.0302 23.693
10.0454 23.578
10.0606 23.585
10.0757 23.682
10.0909 23.363
10.1061 22.995
10.1213 23.477
10.1364 23.902
10.1516 23.730
10.1668 23.331
10.1820 23.397
10.1971 23.927
10.2123 23.940
10.2275 24.162
10.2427 24.242
10.2578 24.138
10.2730 23.777
10.2882 23.552
10.3034 23.447
10.3185 23.101
10.3337 23.264
10.3489 23.000
10.3641 22.959
10.3792 23.073
10.3944 22.840
10.4096 22.605
10.4248 22.720
10.4399 23.011
10.4551 22.904
10.4703 22.868
10.4855 23.196
10.5006 23.087
10.5158 22.767
10.5310 22.865
10.5462 22.900
10.5613 22.534
10.5765 22.272
10.5917 22.804
10.6069 22.828
10.6220 22.830
10.6372 23.142
10.6524 22.720
10.6676 22.665
10.6827 23.025
10.6979 22.744
10.7131 22.486
10.7283 22.554
10.7434 22.817
10.7586 22.533
10.7738 22.541
10.7890 22.459
10.8041 22.449
10.8193 22.532
10.8345 22.346
10.8497 22.395
10.8648 22.196
10.8800 22.174
10.8952 21.889
10.9104 22.096
10.9255 22.095
10.9407 22.146
10.9559 21.972
10.9711 22.397
10.9862 22.575
11.0014 22.147
11.0166 22.102
11.0318 22.372
11.0469 22.164
11.0621 21.935
11.0773 22.185
11.0925 21.904
11.1076 21.914
11.1228 22.159
11.1380 22.078
11.1532 21.862
11.1683 21.843
11.1835 21.789
11.1987 21.815
11.2139 21.909
11.2290 21.726
11.2442 21.709
11.2594 22.133
11.2746 21.979
11.2897 21.675
11.3049 21.763
11.3201 21.821
11.3353 21.535
11.3504 21.672
11.3656 21.759
11.3808 21.858
11.3960 21.296
11.4111 21.279
11.4263 21.501
11.4415 21.558
11.4567 21.538
11.4718 21.472
11.4870 21.214
11.5022 20.974
11.5174 21.046
11.5325 21.149
11.5477 21.090
11.5629 21.112
11.5781 21.173
11.5932 20.851
11.6084 20.680
11.6236 20.831
11.6388 20.789
11.6539 20.658
11.6691 20.680
11.6843 20.612
11.6995 20.398
11.7146 20.371
11.7298 20.461
11.7450 20.560
11.7602 20.493
11.7753 20.484
11.7905 20.312
11.8057 20.069
11.8209 20.111
11.8360 20.307
11.8512 19.835
11.8664 19.856
11.8816 19.832
11.8967 19.829
11.9119 19.834
11.9271 19.691
11.9423 19.565
11.9574 19.436
11.9726 19.554
11.9878 19.469
12.0030 19.263
12.0181 19.315
12.0333 19.394
12.0485 18.975
12.0637 19.111
12.0788 19.197
12.0940 18.769
12.1092 18.837
12.1244 18.867
12.1395 18.652
12.1547 18.580
12.1699 18.180
12.1851 18.330
12.2002 18.632
12.2154 18.333
12.2306 18.465
12.2458 18.302
12.2609 17.992
12.2761 17.738
12.2913 17.821
12.3065 17.902
12.3216 17.751
12.3368 17.671
12.3520 17.693
12.3672 17.684
12.3823 17.530
12.3975 17.534
12.4127 17.349
12.4279 17.467
12.4430 17.095
12.4582 17.149
12.4734 17.194
12.4886 16.895
12.5037 16.703
12.5189 16.588
12.5341 17.012
12.5493 16.810
12.5644 16.467
12.5796 16.328
12.5948 16.229
12.6100 16.385
12.6251 16.273
12.6403 15.914
12.6555 15.947
12.6707 16.133
12.6858 16.088
12.7010 15.876
12.7162 15.883
12.7314 15.754
12.7465 15.567
12.7617 15.458
12.7769 15.437
12.7921 15.476
12.8072 15.461
12.8224 15.393
12.8376 15.401
12.8528 15.335
12.8679 15.005
12.8831 14.672
12.8983 14.748
12.9135 14.862
12.9286 14.736
12.9438 14.889
12.9590 14.828
12.9742 14.542
12.9893 14.644
13.0045 14.685
13.0197 14.566
13.0349 14.540
13.0500 14.275
13.0652 14.152
13.0804 14.172
13.0956 13.886
13.1107 13.712
13.1259 13.740
13.1411 13.798
13.1563 13.834
13.1714 13.823
13.1866 13.649
13.2018 13.387
13.2170 13.610
13.2321 13.513
13.2473 13.234
13.2625 13.283
13.2777 13.078
13.2928 13.249
13.3080 13.286
13.3232 13.085
13.3384 13.242
13.3535 13.242
13.3687 13.227
13.3839 13.187
13.3991 13.019
13.4142 13.077
13.4294 12.826
13.4446 12.783
13.4598 12.587
13.4749 12.541
13.4901 12.904
13.5053 12.667
13.5205 12.747
13.5356 12.485
13.5508 12.393
13.5660 12.518
13.5812 12.476
13.5963 12.376
13.6115 12.388
13.6267 12.297
13.6419 12.287
13.6570 12.112
13.6722 12.016
13.6874 12.097
13.7026 12.189
13.7177 12.068
13.7329 12.217
13.7481 12.285
13.7633 12.125
13.7784 11.957
13.7936 12.242
13.8088 12.178
13.8239 12.217
13.8391 12.375
13.8543 12.326
13.8695 12.293
13.8846 12.214
13.8998 12.436
13.9150 12.092
13.9302 11.905
13.9453 12.075
13.9605 12.136
13.9757 11.764
13.9909 11.373
14.0060 11.665
14.0212 11.727
14.0364 11.599
14.0516 11.437
14.0667 11.556
14.0819 11.537
14.0971 11.391
14.1123 11.538
14.1274 11.677
14.1426 11.699
14.1578 11.573
14.1730 11.831
14.1881 11.741
14.2033 11.791
14.2185 11.792
14.2337 11.745
14.2488 11.633
14.2640 11.693
14.2792 11.818
14.2944 11.716
14.3095 11.997
14.3247 12.293
14.3399 12.627
14.3551 12.557
14.3702 12.651
14.3854 12.693
14.4006 12.618
14.4158 12.977
14.4309 12.478
14.4461 12.389
14.4613 12.312
14.4765 12.192
14.4916 12.026
14.5068 11.506
14.5220 11.265
14.5372 11.486
14.5523 11.348
14.5675 11.237
14.5827 11.234
14.5979 11.331
14.6130 11.067
14.6282 11.032
14.6434 11.277
14.6586 10.918
14.6737 10.965
14.6889 11.095
14.7041 10.836
14.7193 10.912
14.7344 10.859
14.7496 10.834
14.7648 10.598
14.7800 10.428
14.7951 10.791
14.8103 10.555
14.8255 11.025
14.8407 10.594
14.8558 10.522
14.8710 10.512
14.8862 10.615
14.9014 10.653
14.9165 11.095
14.9317 10.624
14.9469 11.037
14.9621 10.728
14.9772 10.795
14.9924 10.400
15.0076 10.449
15.0228 10.641
15.0379 10.577
15.0531 10.900
15.0683 10.267
15.0835 10.565
15.0986 10.750
15.1138 10.814
15.1290 10.853
15.1442 10.613
15.1593 10.782
15.1745 10.445
15.1897 10.368
15.2049 10.308
15.2200 10.353
15.2352 10.481
15.2504 10.138
15.2656 10.508
15.2807 10.395
15.2959 10.369
15.3111 10.171
15.3263 10.457
15.3414 10.605
15.3566 10.190
15.3718 10.570
15.3870 10.520
15.4021 10.536
15.4173 10.748
15.4325 10.752
15.4477 10.832
15.4628 10.516
15.4780 10.471
15.4932 10.880
15.5084 10.375
15.5235 10.228
15.5387 10.330
15.5539 10.449
15.5691 10.264
15.5842 10.127
15.5994 10.245
15.6146 10.106
15.6298 10.255
15.6449 9.945
15.6601 9.838
15.6753 9.953
15.6905 9.820
15.7056 9.842
15.7208 9.712
15.7360 9.849
15.7512 9.936
15.7663 9.618
15.7815 9.941
15.7967 9.939
15.8119 10.061
15.8270 10.060
15.8422 9.851
15.8574 9.990
15.8726 9.860
15.8877 9.696
15.9029 9.888
15.9181 9.964
15.9333 9.814
15.9484 9.822
15.9636 9.917
15.9788 9.718
15.9940 9.847
16.0091 9.917
16.0243 10.030
16.0395 9.901
16.0547 9.787
16.0698 9.899
16.0850 9.826
16.1002 9.738
16.1154 9.824
16.1305 9.752
16.1457 9.820
16.1609 10.141
16.1761 9.691
16.1912 9.935
16.2064 9.781
16.2216 9.932
16.2368 9.693
16.2519 9.825
16.2671 9.971
16.2823 10.019
16.2975 10.029
16.3126 10.172
16.3278 10.009
16.3430 9.873
16.3582 9.932
16.3733 9.758
16.3885 10.251
16.4037 10.185
16.4189 10.079
16.4340 9.883
16.4492 9.655
16.4644 9.765
16.4796 9.739
16.4947 9.768
16.5099 9.886
16.5251 9.864
16.5403 9.697
16.5554 9.754
16.5706 9.848
16.5858 9.799
16.6010 9.617
16.6161 9.626
16.6313 9.836
16.6465 9.832
16.6617 9.855
16.6768 9.874
16.6920 9.915
16.7072 10.123
16.7224 10.120
16.7375 10.083
16.7527 9.891
16.7679 9.819
16.7831 9.903
16.7982 10.047
16.8134 10.041
16.8286 9.844
16.8438 9.899
16.8589 9.888
16.8741 10.047
16.8893 10.012
16.9045 9.859
16.9196 9.962
16.9348 10.058
16.9500 9.941
16.9652 9.824
16.9803 9.724
16.9955 9.898
17.0107 10.100
17.0259 10.159
17.0410 9.961
17.0562 9.854
17.0714 10.130
17.0866 10.312
17.1017 10.421
17.1169 10.892
17.1321 11.040
17.1473 11.216
17.1624 11.923
17.1776 12.712
17.1928 13.255
17.2080 13.722
17.2231 15.035
17.2383 16.470
17.2535 17.513
17.2687 18.851
17.2838 19.384
17.2990 18.571
17.3142 17.417
17.3294 16.663
17.3445 16.360
17.3597 16.145
17.3749 15.802
17.3901 15.421
17.4052 14.246
17.4204 13.188
17.4356 12.608
17.4508 12.118
17.4659 11.949
17.4811 11.862
17.4963 11.682
17.5115 11.242
17.5266 11.063
17.5418 11.038
17.5570 11.411
17.5722 11.452
17.5873 11.384
17.6025 11.431
17.6177 11.418
17.6329 11.470
17.6480 11.371
17.6632 11.131
17.6784 10.877
17.6936 10.916
17.7087 10.752
17.7239 10.628
17.7391 10.386
17.7543 10.278
17.7694 10.385
17.7846 10.384
17.7998 10.315
17.8150 10.208
17.8301 10.247
17.8453 10.053
17.8605 10.011
17.8757 10.325
17.8908 10.456
17.9060 10.443
17.9212 10.330
17.9364 10.054
17.9515 10.083
17.9667 10.276
17.9819 10.535
17.9971 10.438
18.0122 10.201
18.0274 10.243
18.0426 10.299
18.0578 9.919
18.0729 9.935
18.0881 10.298
18.1033 10.299
18.1185 10.148
18.1336 10.218
18.1488 10.299
18.1640 10.173
18.1792 10.116
18.1943 10.138
18.2095 10.038
18.2247 9.874
18.2399 9.887
18.2550 9.931
18.2702 9.631
18.2854 9.723
18.3006 9.860
18.3157 9.882
18.3309 9.994
18.3461 9.864
18.3613 9.836
18.3764 9.674
18.3916 9.703
18.4068 9.790
18.4220 9.823
18.4371 9.831
18.4523 9.965
18.4675 10.078
18.4827 9.825
18.4978 9.680
18.5130 9.585
18.5282 9.658
18.5434 9.621
18.5585 9.815
18.5737 9.940
18.5889 9.836
18.6041 9.831
18.6192 9.816
18.6344 9.841
18.6496 9.806
18.6648 9.739
18.6799 9.604
18.6951 9.904
18.7103 10.018
18.7255 9.851
18.7406 9.808
18.7558 10.068
18.7710 9.778
18.7862 9.850
18.8013 9.974
18.8165 9.655
18.8317 9.628
18.8469 9.826
18.8620 9.912
18.8772 9.835
18.8924 9.831
18.9076 9.875
18.9227 9.982
18.9379 9.872
18.9531 9.826
18.9683 9.913
18.9834 9.965
18.9986 10.010
19.0138 10.261
19.0290 10.188
19.0441 10.173
19.0593 10.274
19.0745 10.144
19.0897 10.178
19.1048 10.246
19.1200 10.254
19.1352 10.372
19.1504 10.616
19.1655 10.464
19.1807 10.460
19.1959 10.950
19.2111 10.744
19.2262 10.643
19.2414 10.793
19.2566 10.835
19.2718 10.847
19.2869 10.693
19.3021 10.871
19.3173 11.006
19.3325 11.118
19.3476 11.106
19.3628 11.016
19.3780 11.143
19.3932 11.297
19.4083 11.172
19.4235 11.160
19.4387 11.399
19.4539 11.338
19.4690 11.369
19.4842 11.320
19.4994 11.269
19.5146 11.441
19.5297 11.649
19.5449 11.806
19.5601 11.730
19.5753 11.710
19.5904 11.749
19.6056 11.632
19.6208 11.572
19.6360 11.632
19.6511 11.639
19.6663 11.625
19.6815 11.788
19.6967 11.989
19.7118 11.676
19.7270 11.526
19.7422 11.644
19.7574 11.636
19.7725 11.718
19.7877 11.947
19.8029 12.115
19.8180 12.035
19.8332 11.966
19.8484 12.249
19.8636 12.318
19.8787 12.600
19.8939 12.938
19.9091 12.945
19.9243 13.263
19.9394 13.665
19.9546 13.829
19.9698 13.958
19.9850 14.344
20.0001 14.424
20.0153 14.169
20.0305 13.895
20.0457 13.852
20.0608 13.847
20.0760 13.936
20.0912 13.846
20.1064 13.525
20.1215 13.461
20.1367 12.998
20.1519 13.049
20.1671 13.223
20.1822 13.007
20.1974 13.069
20.2126 13.023
20.2278 12.964
20.2429 12.771
20.2581 12.586
20.2733 12.301
20.2885 12.087
20.3036 11.862
20.3188 11.659
20.3340 11.576
20.3492 11.816
20.3643 11.756
20.3795 11.336
20.3947 11.174
20.4099 11.100
20.4250 10.881
20.4402 10.813
20.4554 10.579
20.4706 10.654
20.4857 10.848
20.5009 10.822
20.5161 10.767
20.5313 10.686
20.5464 10.592
20.5616 10.437
20.5768 10.707
20.5920 10.774
20.6071 10.657
20.6223 10.867
20.6375 10.811
20.6527 10.314
20.6678 10.251
20.6830 10.572
20.6982 10.696
20.7134 10.592
20.7285 10.463
20.7437 10.469
20.7589 10.556
20.7741 10.771
20.7892 10.345
20.8044 10.457
20.8196 10.819
20.8348 10.334
20.8499 10.429
20.8651 10.671
20.8803 10.363
20.8955 10.390
20.9106 10.205
20.9258 10.313
20.9410 10.057
20.9562 9.908
20.9713 9.774
20.9865 10.153
21.0017 10.188
21.0169 9.927
21.0320 9.868
21.0472 9.778
21.0624 9.844
21.0776 9.627
21.0927 9.612
21.1079 9.524
21.1231 9.755
21.1383 9.819
21.1534 9.714
21.1686 9.747
21.1838 9.597
21.1990 9.811
21.2141 9.901
21.2293 9.845
21.2445 9.607
21.2597 9.861
21.2748 9.457
21.2900 9.503
21.3052 9.803
21.3204 9.764
21.3355 9.478
21.3507 9.651
21.3659 9.722
21.3811 9.458
21.3962 9.573
21.4114 9.398
21.4266 9.351
21.4418 9.344
21.4569 9.638
21.4721 9.648
21.4873 9.328
21.5025 9.566
21.5176 9.543
21.5328 9.381
21.5480 9.525
21.5632 9.371
21.5783 9.185
21.5935 9.239
21.6087 9.109
21.6239 9.162
21.6390 9.194
21.6542 9.351
21.6694 9.077
21.6846 9.106
21.6997 9.003
21.7149 9.264
21.7301 9.330
21.7453 9.203
21.7604 9.263
21.7756 9.233
21.7908 8.996
21.8060 8.991
21.8211 9.088
21.8363 9.014
21.8515 8.975
21.8667 8.911
21.8818 9.050
21.8970 9.204
21.9122 8.928
21.9274 9.205
21.9425 9.145
21.9577 8.937
21.9729 9.011
21.9881 8.945
22.0032 8.834
22.0184 8.942
22.0336 8.989
22.0488 8.742
22.0639 8.782
22.0791 8.855
22.0943 8.695
22.1095 8.562
22.1246 8.602
22.1398 8.544
22.1550 8.532
22.1702 8.734
22.1853 8.890
22.2005 8.819
22.2157 8.714
22.2309 8.900
22.2460 8.465
22.2612 8.561
22.2764 8.665
22.2916 8.811
22.3067 8.537
22.3219 8.652
22.3371 8.658
22.3523 8.357
22.3674 8.457
22.3826 8.695
22.3978 8.685
22.4130 8.238
22.4281 8.364
22.4433 8.331
22.4585 8.415
22.4737 8.218
22.4888 8.701
22.5040 8.564
22.5192 8.697
22.5344 8.645
22.5495 8.341
22.5647 8.337
22.5799 8.382
22.5951 8.503
22.6102 8.269
22.6254 8.433
22.6406 8.520
22.6558 8.448
22.6709 8.597
22.6861 8.329
22.7013 8.229
22.7165 8.050
22.7316 6.495
