'Id: "" Comment: "" Operator: "Lab Manager" Anode: "Mo" Scantype: "Still (Eiger2R_500K (1D mode))" TimePerStep: "300" X: "11.8" Y: "9.4" Z: "11.284" 
7.2532 18.963
7.2684 19.112
7.2836 18.874
7.2987 18.614
7.3139 19.424
7.3291 19.002
7.3443 19.463
7.3594 19.713
7.3746 19.156
7.3898 19.428
7.4050 19.533
7.4201 19.251
7.4353 19.755
7.4505 19.660
7.4657 19.555
7.4808 19.332
7.4960 19.465
7.5112 19.443
7.5264 19.607
7.5415 19.786
7.5567 19.983
7.5719 19.669
7.5871 19.947
7.6022 20.302
7.6174 20.424
7.6326 20.304
7.6478 20.021
7.6629 20.003
7.6781 20.206
7.6933 20.423
7.7085 20.630
7.7236 20.353
7.7388 20.475
7.7540 20.843
7.7692 20.656
7.7843 20.490
7.7995 20.744
7.8147 20.673
7.8299 20.679
7.8450 20.743
7.8602 20.423
7.8754 20.513
7.8905 20.598
7.9057 20.621
7.9209 20.808
7.9361 20.807
7.9512 21.005
7.9664 20.862
7.9816 20.789
7.9968 21.022
8.0119 20.920
8.0271 21.073
8.0423 21.140
8.0575 21.035
8.0726 21.337
8.0878 21.334
8.1030 20.953
8.1182 21.103
8.1333 21.750
8.1485 21.686
8.1637 21.645
8.1789 21.739
8.1940 21.918
8.2092 21.932
8.2244 21.501
8.2396 21.871
8.2547 21.831
8.2699 21.539
8.2851 21.831
8.3003 21.956
8.3154 21.657
8.3306 21.785
8.3458 21.986
8.3610 22.042
8.3761 22.029
8.3913 21.746
8.4065 22.459
8.4217 21.913
8.4368 21.777
8.4520 22.136
8.4672 21.938
8.4824 22.215
8.4975 22.219
8.5127 22.240
8.5279 22.435
8.5431 21.870
8.5582 22.182
8.5734 21.789
8.5886 22.207
8.6038 22.391
8.6189 22.575
8.6341 22.213
8.6493 22.293
8.6645 22.055
8.6796 22.488
8.6948 22.219
8.7100 22.364
8.7252 22.350
8.7403 22.690
8.7555 22.295
8.7707 22.426
8.7859 22.424
8.8010 22.720
8.8162 22.306
8.8314 22.492
8.8466 22.703
8.8617 22.739
8.8769 22.472
8.8921 22.891
8.9073 22.536
8.9224 22.874
8.9376 22.593
8.9528 22.775
8.9680 22.743
8.9831 22.865
8.9983 22.994
9.0135 22.588
9.0287 22.902
9.0438 22.742
9.0590 22.607
9.0742 22.419
9.0894 22.650
9.1045 23.032
9.1197 23.068
9.1349 22.935
9.1501 22.944
9.1652 23.178
9.1804 23.191
9.1956 23.031
9.2108 22.947
9.2259 22.771
9.2411 22.348
9.2563 22.978
9.2715 23.307
9.2866 23.440
9.3018 22.966
9.3170 22.947
9.3322 23.079
9.3473 23.365
9.3625 23.024
9.3777 22.899
9.3929 23.116
9.4080 23.197
9.4232 23.081
9.4384 22.972
9.4536 23.050
9.4687 23.140
9.4839 22.959
9.4991 23.051
9.5143 23.241
9.5294 23.334
9.5446 23.433
9.5598 23.418
9.5750 23.150
9.5901 23.136
9.6053 23.243
9.6205 23.388
9.6357 23.693
9.6508 23.529
9.6660 23.372
9.6812 23.517
9.6964 23.814
9.7115 24.015
9.7267 24.239
9.7419 24.178
9.7571 24.121
9.7722 24.082
9.7874 23.685
9.8026 23.900
9.8178 23.939
9.8329 23.643
9.8481 23.472
9.8633 23.272
9.8785 23.818
9.8936 23.905
9.9088 23.599
9.9240 23.717
9.9392 23.753
9.9543 23.672
9.9695 23.396
9.9847 23.139
9.9999 23.234
10.0150 23.303
10.0302 23.476
10.0454 23.461
10.0606 23.077
10.0757 23.106
10.0909 23.199
10.1061 23.010
10.1213 22.859
10.1364 22.773
10.1516 23.105
10.1668 23.118
10.1820 22.886
10.1971 22.825
10.2123 22.890
10.2275 23.026
10.2427 22.919
10.2578 22.804
10.2730 23.095
10.2882 23.113
10.3034 22.912
10.3185 22.942
10.3337 23.194
10.3489 22.527
10.3641 22.798
10.3792 22.883
10.3944 23.040
10.4096 23.040
10.4248 23.239
10.4399 23.204
10.4551 22.889
10.4703 22.893
10.4855 22.529
10.5006 22.489
10.5158 22.527
10.5310 22.819
10.5462 22.847
10.5613 22.778
10.5765 22.505
10.5917 22.457
10.6069 22.649
10.6220 22.771
10.6372 22.740
10.6524 22.630
10.6676 22.619
10.6827 22.642
10.6979 22.490
10.7131 22.628
10.7283 22.860
10.7434 22.395
10.7586 22.100
10.7738 22.073
10.7890 22.174
10.8041 22.427
10.8193 22.214
10.8345 22.419
10.8497 22.235
10.8648 22.046
10.8800 22.213
10.8952 22.385
10.9104 22.214
10.9255 22.314
10.9407 21.991
10.9559 21.994
10.9711 22.020
10.9862 22.110
11.0014 22.236
11.0166 22.200
11.0318 22.218
11.0469 21.788
11.0621 21.831
11.0773 21.927
11.0925 21.764
11.1076 22.015
11.1228 21.937
11.1380 22.136
11.1532 22.038
11.1683 21.776
11.1835 21.726
11.1987 21.651
11.2139 21.951
11.2290 21.941
11.2442 21.582
11.2594 21.654
11.2746 21.394
11.2897 21.549
11.3049 21.734
11.3201 21.481
11.3353 21.510
11.3504 21.315
11.3656 21.528
11.3808 21.310
11.3960 21.174
11.4111 21.192
11.4263 21.206
11.4415 21.305
11.4567 21.654
11.4718 21.424
11.4870 21.566
11.5022 21.289
11.5174 20.994
11.5325 21.041
11.5477 21.111
11.5629 21.262
11.5781 21.324
11.5932 21.011
11.6084 20.786
11.6236 20.963
11.6388 20.792
11.6539 20.764
11.6691 20.900
11.6843 20.914
11.6995 20.661
11.7146 20.729
11.7298 20.671
11.7450 20.264
11.7602 19.985
11.7753 19.928
11.7905 20.179
11.8057 19.994
11.8209 20.046
11.8360 20.007
11.8512 20.006
11.8664 20.059
11.8816 19.838
11.8967 19.737
11.9119 19.873
11.9271 19.677
11.9423 19.668
11.9574 19.697
11.9726 19.590
11.9878 19.585
12.0030 19.535
12.0181 19.189
12.0333 18.977
12.0485 19.108
12.0637 18.736
12.0788 18.703
12.0940 18.719
12.1092 18.632
12.1244 18.773
12.1395 18.570
12.1547 18.611
12.1699 18.500
12.1851 18.360
12.2002 18.011
12.2154 18.039
12.2306 18.226
12.2458 17.807
12.2609 17.708
12.2761 18.002
12.2913 18.166
12.3065 17.687
12.3216 17.696
12.3368 17.701
12.3520 17.656
12.3672 17.689
12.3823 17.514
12.3975 17.261
12.4127 17.117
12.4279 17.159
12.4430 17.091
12.4582 17.329
12.4734 17.124
12.4886 16.772
12.5037 16.777
12.5189 16.633
12.5341 16.634
12.5493 16.653
12.5644 16.451
12.5796 16.392
12.5948 16.367
12.6100 15.984
12.6251 15.876
12.6403 15.962
12.6555 15.897
12.6707 15.961
12.6858 16.022
12.7010 15.846
12.7162 15.738
12.7314 15.649
12.7465 15.840
12.7617 15.545
12.7769 15.148
12.7921 15.036
12.8072 15.126
12.8224 14.946
12.8376 14.860
12.8528 14.816
12.8679 14.682
12.8831 14.734
12.8983 14.656
12.9135 14.460
12.9286 14.542
12.9438 14.517
12.9590 14.447
12.9742 14.643
12.9893 14.364
13.0045 14.302
13.0197 14.493
13.0349 14.296
13.0500 14.074
13.0652 13.831
13.0804 13.689
13.0956 13.758
13.1107 13.720
13.1259 13.888
13.1411 13.989
13.1563 13.678
13.1714 13.490
13.1866 13.504
13.2018 13.425
13.2170 13.427
13.2321 13.551
13.2473 13.536
13.2625 13.488
13.2777 13.508
13.2928 13.575
13.3080 13.410
13.3232 13.258
13.3384 13.269
13.3535 13.183
13.3687 13.150
13.3839 13.086
13.3991 13.031
13.4142 13.270
13.4294 12.962
13.4446 12.743
13.4598 13.026
13.4749 12.990
13.4901 12.788
13.5053 12.760
13.5205 12.701
13.5356 12.592
13.5508 12.457
13.5660 12.423
13.5812 12.605
13.5963 12.258
13.6115 12.197
13.6267 12.134
13.6419 12.178
13.6570 12.296
13.6722 12.195
13.6874 12.117
13.7026 12.194
13.7177 12.151
13.7329 12.049
13.7481 12.158
13.7633 12.371
13.7784 12.460
13.7936 12.367
13.8088 12.334
13.8239 12.419
13.8391 12.705
13.8543 12.391
13.8695 12.281
13.8846 12.116
13.8998 12.045
13.9150 12.189
13.9302 11.986
13.9453 11.834
13.9605 11.675
13.9757 11.743
13.9909 11.446
14.0060 11.635
14.0212 11.455
14.0364 11.532
14.0516 11.415
14.0667 11.659
14.0819 11.694
14.0971 11.568
14.1123 11.594
14.1274 11.539
14.1426 11.520
14.1578 11.429
14.1730 11.563
14.1881 11.668
14.2033 11.294
14.2185 11.077
14.2337 11.196
14.2488 11.426
14.2640 11.545
14.2792 11.688
14.2944 11.494
14.3095 11.518
14.3247 11.950
14.3399 11.723
14.3551 11.946
14.3702 12.110
14.3854 12.480
14.4006 12.443
14.4158 12.659
14.4309 12.587
14.4461 12.163
14.4613 12.432
14.4765 12.042
14.4916 11.941
14.5068 11.814
14.5220 12.118
14.5372 12.107
14.5523 11.662
14.5675 11.424
14.5827 11.356
14.5979 11.248
14.6130 11.147
14.6282 11.163
14.6434 11.363
14.6586 11.211
14.6737 10.852
14.6889 11.108
14.7041 10.929
14.7193 10.810
14.7344 11.002
14.7496 11.211
14.7648 11.512
14.7800 11.137
14.7951 11.021
14.8103 11.012
14.8255 11.075
14.8407 10.578
14.8558 10.596
14.8710 11.138
14.8862 10.747
14.9014 10.669
14.9165 11.162
14.9317 11.277
14.9469 10.634
14.9621 10.634
14.9772 10.442
14.9924 10.594
15.0076 10.620
15.0228 10.608
15.0379 10.808
15.0531 10.202
15.0683 10.524
15.0835 10.594
15.0986 10.413
15.1138 10.609
15.1290 10.270
15.1442 10.505
15.1593 10.444
15.1745 10.478
15.1897 10.327
15.2049 10.393
15.2200 10.499
15.2352 10.490
15.2504 10.392
15.2656 10.252
15.2807 10.468
15.2959 10.543
15.3111 10.530
15.3263 10.024
15.3414 10.037
15.3566 10.301
15.3718 10.333
15.3870 10.404
15.4021 10.808
15.4173 10.396
15.4325 10.463
15.4477 10.470
15.4628 10.153
15.4780 9.883
15.4932 10.427
15.5084 10.179
15.5235 10.252
15.5387 10.515
15.5539 10.557
15.5691 10.353
15.5842 10.443
15.5994 10.002
15.6146 10.199
15.6298 10.450
15.6449 10.407
15.6601 10.173
15.6753 9.838
15.6905 10.083
15.7056 9.989
15.7208 10.359
15.7360 10.054
15.7512 10.016
15.7663 10.242
15.7815 9.595
15.7967 9.855
15.8119 9.779
15.8270 9.907
15.8422 9.696
15.8574 9.825
15.8726 9.769
15.8877 9.917
15.9029 9.657
15.9181 9.306
15.9333 9.643
15.9484 9.904
15.9636 10.248
15.9788 9.980
15.9940 9.681
16.0091 9.788
16.0243 9.863
16.0395 9.458
16.0547 9.546
16.0698 9.680
16.0850 9.590
16.1002 9.629
16.1154 9.722
16.1305 9.564
16.1457 9.534
16.1609 9.815
16.1761 9.849
16.1912 9.516
16.2064 9.827
16.2216 9.845
16.2368 9.929
16.2519 10.005
16.2671 9.686
16.2823 9.907
16.2975 9.918
16.3126 9.933
16.3278 9.881
16.3430 9.786
16.3582 9.907
16.3733 9.881
16.3885 10.131
16.4037 10.051
16.4189 9.866
16.4340 10.122
16.4492 10.047
16.4644 9.745
16.4796 9.964
16.4947 9.983
16.5099 9.912
16.5251 9.883
16.5403 10.047
16.5554 10.034
16.5706 9.934
16.5858 9.748
16.6010 9.920
16.6161 9.964
16.6313 10.015
16.6465 9.825
16.6617 10.154
16.6768 10.090
16.6920 10.045
16.7072 10.176
16.7224 10.055
16.7375 9.986
16.7527 10.248
16.7679 10.076
16.7831 9.781
16.7982 9.949
16.8134 10.110
16.8286 9.885
16.8438 9.862
16.8589 9.884
16.8741 10.150
16.8893 10.196
16.9045 10.111
16.9196 9.722
16.9348 9.681
16.9500 9.793
16.9652 9.928
16.9803 10.033
16.9955 9.936
17.0107 9.953
17.0259 10.165
17.0410 10.367
17.0562 10.296
17.0714 10.251
17.0866 10.559
17.1017 10.862
17.1169 11.056
17.1321 11.418
17.1473 11.596
17.1624 11.841
17.1776 12.557
17.1928 13.240
17.2080 14.102
17.2231 15.103
17.2383 16.067
17.2535 17.441
17.2687 18.648
17.2838 18.854
17.2990 18.242
17.3142 17.209
17.3294 16.187
17.3445 15.867
17.3597 15.920
17.3749 15.673
17.3901 15.242
17.4052 14.428
17.4204 13.140
17.4356 12.256
17.4508 11.819
17.4659 11.308
17.4811 11.167
17.4963 11.092
17.5115 10.736
17.5266 10.878
17.5418 10.963
17.5570 10.446
17.5722 10.337
17.5873 10.397
17.6025 10.304
17.6177 10.290
17.6329 10.136
17.6480 10.125
17.6632 10.223
17.6784 10.239
17.6936 10.211
17.7087 10.220
17.7239 10.256
17.7391 10.317
17.7543 10.354
17.7694 10.340
17.7846 10.572
17.7998 10.745
17.8150 10.777
17.8301 10.845
17.8453 10.910
17.8605 10.939
17.8757 10.899
17.8908 10.956
17.9060 11.030
17.9212 11.181
17.9364 10.933
17.9515 10.477
17.9667 10.500
17.9819 10.616
17.9971 10.605
18.0122 10.719
18.0274 10.611
18.0426 10.390
18.0578 10.354
18.0729 10.319
18.0881 10.121
18.1033 10.028
18.1185 10.026
18.1336 10.153
18.1488 10.224
18.1640 10.160
18.1792 9.989
18.1943 9.892
18.2095 9.879
18.2247 10.019
18.2399 10.076
18.2550 10.035
18.2702 9.981
18.2854 9.813
18.3006 9.726
18.3157 9.734
18.3309 9.809
18.3461 9.909
18.3613 10.273
18.3764 10.019
18.3916 9.812
18.4068 9.963
18.4220 9.783
18.4371 9.866
18.4523 9.776
18.4675 9.798
18.4827 9.931
18.4978 9.967
18.5130 9.803
18.5282 9.832
18.5434 9.945
18.5585 9.945
18.5737 9.832
18.5889 10.053
18.6041 10.049
18.6192 9.726
18.6344 9.762
18.6496 9.652
18.6648 9.743
18.6799 9.679
18.6951 9.894
18.7103 9.955
18.7255 9.774
18.7406 9.647
18.7558 9.524
18.7710 9.720
18.7862 9.984
18.8013 9.923
18.8165 9.624
18.8317 9.786
18.8469 10.084
18.8620 9.913
18.8772 9.853
18.8924 9.836
18.9076 10.091
18.9227 9.927
18.9379 9.694
18.9531 9.874
18.9683 10.003
18.9834 9.896
18.9986 10.083
19.0138 10.297
19.0290 10.264
19.0441 10.183
19.0593 10.261
19.0745 10.256
19.0897 10.352
19.1048 10.488
19.1200 10.403
19.1352 10.330
19.1504 10.507
19.1655 10.688
19.1807 10.804
19.1959 10.783
19.2111 10.668
19.2262 10.616
19.2414 10.752
19.2566 10.842
19.2718 10.802
19.2869 10.927
19.3021 11.160
19.3173 11.315
19.3325 11.210
19.3476 11.203
19.3628 11.091
19.3780 11.288
19.3932 11.513
19.4083 11.218
19.4235 11.173
19.4387 11.449
19.4539 11.236
19.4690 11.379
19.4842 11.610
19.4994 11.444
19.5146 11.165
19.5297 11.324
19.5449 11.415
19.5601 11.452
19.5753 11.704
19.5904 11.812
19.6056 11.781
19.6208 11.736
19.6360 11.570
19.6511 11.552
19.6663 11.725
19.6815 11.718
19.6967 11.641
19.7118 11.629
19.7270 11.720
19.7422 11.602
19.7574 11.709
19.7725 11.728
19.7877 11.780
19.8029 11.828
19.8180 11.877
19.8332 12.109
19.8484 12.196
19.8636 12.282
19.8787 12.497
19.8939 12.806
19.9091 13.318
19.9243 13.747
19.9394 13.839
19.9546 14.274
19.9698 14.727
19.9850 14.720
20.0001 14.409
20.0153 14.505
20.0305 14.256
20.0457 13.652
20.0608 13.559
20.0760 13.597
20.0912 13.436
20.1064 13.865
20.1215 13.802
20.1367 13.427
20.1519 12.846
20.1671 12.681
20.1822 12.856
20.1974 12.510
20.2126 12.300
20.2278 12.291
20.2429 12.227
20.2581 11.953
20.2733 11.691
20.2885 11.464
20.3036 11.549
20.3188 11.461
20.3340 11.442
20.3492 11.442
20.3643 11.385
20.3795 11.500
20.3947 11.321
20.4099 11.031
20.4250 10.935
20.4402 10.962
20.4554 11.016
20.4706 10.721
20.4857 10.562
20.5009 10.571
20.5161 10.625
20.5313 10.574
20.5464 10.678
20.5616 10.579
20.5768 10.369
20.5920 10.535
20.6071 10.538
20.6223 10.298
20.6375 10.576
20.6527 10.151
20.6678 10.091
20.6830 10.537
20.6982 10.487
20.7134 9.987
20.7285 10.172
20.7437 10.386
20.7589 10.087
20.7741 10.104
20.7892 10.132
20.8044 10.334
20.8196 10.258
20.8348 10.148
20.8499 10.288
20.8651 10.306
20.8803 10.631
20.8955 10.379
20.9106 10.496
20.9258 10.588
20.9410 10.665
20.9562 10.461
20.9713 10.393
20.9865 10.424
21.0017 10.502
21.0169 10.581
21.0320 10.309
21.0472 10.578
21.0624 10.026
21.0776 10.595
21.0927 10.374
21.1079 10.255
21.1231 9.962
21.1383 10.025
21.1534 10.206
21.1686 9.903
21.1838 9.829
21.1990 9.631
21.2141 9.454
21.2293 9.554
21.2445 9.642
21.2597 9.664
21.2748 9.593
21.2900 9.603
21.3052 9.767
21.3204 9.503
21.3355 9.363
21.3507 9.604
21.3659 9.579
21.3811 9.630
21.3962 9.625
21.4114 9.276
21.4266 9.448
21.4418 9.400
21.4569 9.320
21.4721 9.333
21.4873 9.374
21.5025 9.281
21.5176 9.397
21.5328 9.142
21.5480 9.606
21.5632 9.553
21.5783 9.272
21.5935 9.284
21.6087 9.289
21.6239 9.086
21.6390 9.351
21.6542 9.281
21.6694 9.095
21.6846 9.117
21.6997 9.101
21.7149 9.054
21.7301 9.040
21.7453 9.152
21.7604 8.975
21.7756 9.188
21.7908 8.990
21.8060 9.011
21.8211 8.952
21.8363 8.841
21.8515 8.829
21.8667 8.989
21.8818 9.092
21.8970 9.053
21.9122 9.111
21.9274 9.005
21.9425 8.977
21.9577 8.767
21.9729 8.787
21.9881 8.806
22.0032 8.770
22.0184 8.869
22.0336 8.950
22.0488 8.934
22.0639 8.888
22.0791 8.894
22.0943 8.868
22.1095 8.905
22.1246 8.725
22.1398 8.872
22.1550 8.818
22.1702 8.717
22.1853 8.808
22.2005 8.854
22.2157 8.784
22.2309 8.476
22.2460 8.542
22.2612 8.480
22.2764 8.407
22.2916 8.231
22.3067 8.605
22.3219 8.634
22.3371 8.950
22.3523 8.888
22.3674 8.946
22.3826 8.775
22.3978 8.672
22.4130 8.629
22.4281 8.689
22.4433 8.551
22.4585 8.567
22.4737 8.498
22.4888 8.366
22.5040 8.498
22.5192 8.468
22.5344 8.368
22.5495 8.554
22.5647 8.604
22.5799 8.607
22.5951 8.653
22.6102 8.561
22.6254 8.430
22.6406 8.307
22.6558 8.307
22.6709 8.415
22.6861 8.813
22.7013 8.450
22.7165 8.128
22.7316 6.365
