'Id: "" Comment: "" Operator: "Lab Manager" Anode: "Mo" Scantype: "Still (Eiger2R_500K (1D mode))" TimePerStep: "300" X: "11.8" Y: "9.4" Z: "11.284" 
7.2532 18.664
7.2684 18.862
7.2836 18.927
7.2987 18.866
7.3139 19.347
7.3291 18.773
7.3443 19.615
7.3594 19.214
7.3746 19.562
7.3898 19.016
7.4050 19.700
7.4201 19.906
7.4353 19.594
7.4505 19.678
7.4657 19.361
7.4808 19.696
7.4960 19.554
7.5112 19.627
7.5264 19.828
7.5415 19.979
7.5567 19.788
7.5719 19.691
7.5871 19.718
7.6022 20.078
7.6174 20.080
7.6326 20.411
7.6478 20.378
7.6629 20.001
7.6781 20.002
7.6933 20.234
7.7085 20.320
7.7236 20.280
7.7388 20.304
7.7540 20.322
7.7692 20.340
7.7843 20.154
7.7995 20.509
7.8147 20.562
7.8299 20.414
7.8450 20.649
7.8602 20.830
7.8754 20.909
7.8905 20.962
7.9057 20.748
7.9209 20.862
7.9361 20.910
7.9512 21.006
7.9664 20.937
7.9816 21.137
7.9968 21.374
8.0119 21.160
8.0271 21.246
8.0423 21.013
8.0575 21.046
8.0726 20.980
8.0878 21.489
8.1030 21.672
8.1182 21.483
8.1333 21.580
8.1485 21.443
8.1637 21.736
8.1789 21.555
8.1940 21.978
8.2092 21.786
8.2244 21.440
8.2396 21.562
8.2547 22.019
8.2699 21.904
8.2851 21.929
8.3003 21.625
8.3154 21.848
8.3306 21.350
8.3458 21.765
8.3610 21.860
8.3761 22.065
8.3913 21.762
8.4065 21.926
8.4217 21.768
8.4368 22.329
8.4520 21.951
8.4672 22.353
8.4824 21.785
8.4975 22.644
8.5127 22.284
8.5279 22.614
8.5431 22.109
8.5582 22.264
8.5734 22.363
8.5886 22.273
8.6038 22.300
8.6189 22.297
8.6341 22.122
8.6493 22.365
8.6645 22.232
8.6796 22.062
8.6948 22.643
8.7100 22.260
8.7252 22.512
8.7403 22.419
8.7555 22.643
8.7707 22.353
8.7859 22.448
8.8010 22.315
8.8162 22.306
8.8314 22.768
8.8466 22.451
8.8617 22.594
8.8769 22.601
8.8921 22.599
8.9073 22.300
8.9224 22.723
8.9376 22.805
8.9528 23.028
8.9680 22.735
8.9831 22.799
8.9983 22.645
9.0135 23.320
9.0287 22.935
9.0438 22.905
9.0590 22.485
9.0742 22.775
9.0894 22.991
9.1045 22.936
9.1197 22.841
9.1349 22.490
9.1501 22.806
9.1652 22.977
9.1804 23.015
9.1956 23.085
9.2108 23.004
9.2259 22.563
9.2411 22.615
9.2563 22.678
9.2715 23.010
9.2866 23.069
9.3018 23.043
9.3170 23.133
9.3322 23.158
9.3473 22.961
9.3625 22.914
9.3777 23.162
9.3929 23.180
9.4080 23.286
9.4232 23.346
9.4384 22.930
9.4536 23.154
9.4687 23.399
9.4839 23.298
9.4991 23.502
9.5143 23.243
9.5294 23.073
9.5446 23.194
9.5598 23.551
9.5750 23.670
9.5901 23.251
9.6053 23.325
9.6205 23.876
9.6357 23.795
9.6508 23.722
9.6660 23.508
9.6812 23.548
9.6964 23.969
9.7115 23.976
9.7267 23.847
9.7419 23.803
9.7571 23.856
9.7722 23.997
9.7874 24.049
9.8026 23.775
9.8178 23.731
9.8329 23.757
9.8481 23.409
9.8633 23.501
9.8785 23.661
9.8936 23.528
9.9088 23.732
9.9240 23.833
9.9392 23.765
9.9543 23.857
9.9695 23.470
9.9847 23.521
9.9999 23.552
10.0150 23.270
10.0302 23.342
10.0454 23.382
10.0606 23.224
10.0757 23.236
10.0909 23.173
10.1061 23.137
10.1213 23.135
10.1364 23.395
10.1516 23.390
10.1668 23.219
10.1820 22.738
10.1971 22.647
10.2123 22.828
10.2275 23.274
10.2427 23.581
10.2578 22.978
10.2730 23.036
10.2882 23.266
10.3034 23.148
10.3185 22.802
10.3337 23.016
10.3489 23.273
10.3641 23.212
10.3792 23.570
10.3944 23.520
10.4096 22.854
10.4248 22.427
10.4399 22.441
10.4551 22.799
10.4703 23.098
10.4855 22.973
10.5006 22.637
10.5158 22.510
10.5310 22.816
10.5462 23.071
10.5613 23.008
10.5765 22.854
10.5917 22.777
10.6069 22.999
10.6220 22.830
10.6372 22.427
10.6524 22.673
10.6676 22.550
10.6827 22.659
10.6979 22.578
10.7131 22.373
10.7283 22.278
10.7434 22.234
10.7586 22.067
10.7738 22.615
10.7890 22.544
10.8041 22.350
10.8193 22.334
10.8345 22.342
10.8497 22.303
10.8648 22.394
10.8800 22.072
10.8952 21.958
10.9104 22.035
10.9255 22.324
10.9407 22.445
10.9559 21.922
10.9711 22.045
10.9862 22.479
11.0014 22.106
11.0166 22.120
11.0318 22.161
11.0469 21.858
11.0621 21.685
11.0773 21.490
11.0925 21.852
11.1076 21.859
11.1228 21.774
11.1380 21.682
11.1532 21.706
11.1683 21.860
11.1835 21.526
11.1987 21.789
11.2139 21.934
11.2290 21.724
11.2442 21.785
11.2594 21.829
11.2746 21.778
11.2897 21.489
11.3049 21.116
11.3201 21.586
11.3353 21.455
11.3504 21.297
11.3656 21.258
11.3808 21.400
11.3960 21.168
11.4111 21.427
11.4263 21.280
11.4415 21.331
11.4567 21.323
11.4718 21.235
11.4870 21.282
11.5022 21.115
11.5174 21.267
11.5325 21.490
11.5477 20.753
11.5629 21.050
11.5781 21.306
11.5932 21.354
11.6084 21.264
11.6236 21.197
11.6388 21.119
11.6539 20.889
11.6691 20.640
11.6843 20.647
11.6995 20.607
11.7146 20.474
11.7298 20.218
11.7450 20.084
11.7602 20.609
11.7753 20.484
11.7905 20.389
11.8057 20.225
11.8209 19.764
11.8360 19.938
11.8512 20.233
11.8664 20.142
11.8816 19.779
11.8967 19.651
11.9119 19.977
11.9271 19.821
11.9423 19.811
11.9574 19.522
11.9726 19.608
11.9878 19.129
12.0030 19.000
12.0181 18.872
12.0333 19.250
12.0485 19.063
12.0637 19.219
12.0788 19.044
12.0940 18.681
12.1092 18.438
12.1244 18.648
12.1395 19.003
12.1547 18.697
12.1699 18.385
12.1851 18.617
12.2002 18.297
12.2154 18.179
12.2306 18.202
12.2458 17.961
12.2609 17.826
12.2761 17.895
12.2913 17.670
12.3065 17.640
12.3216 17.894
12.3368 17.753
12.3520 17.661
12.3672 17.408
12.3823 17.430
12.3975 17.611
12.4127 17.321
12.4279 17.295
12.4430 17.053
12.4582 16.791
12.4734 16.981
12.4886 16.785
12.5037 16.898
12.5189 16.937
12.5341 16.805
12.5493 16.671
12.5644 16.156
12.5796 16.031
12.5948 16.094
12.6100 16.062
12.6251 16.408
12.6403 16.614
12.6555 16.236
12.6707 15.780
12.6858 15.721
12.7010 15.743
12.7162 15.498
12.7314 15.453
12.7465 15.526
12.7617 15.393
12.7769 15.321
12.7921 15.374
12.8072 15.348
12.8224 15.229
12.8376 15.011
12.8528 14.992
12.8679 14.795
12.8831 14.763
12.8983 14.898
12.9135 15.117
12.9286 14.987
12.9438 14.530
12.9590 14.633
12.9742 14.438
12.9893 14.146
13.0045 14.432
13.0197 14.434
13.0349 14.169
13.0500 13.970
13.0652 14.156
13.0804 14.107
13.0956 13.811
13.1107 13.959
13.1259 13.845
13.1411 13.806
13.1563 13.810
13.1714 13.653
13.1866 13.663
13.2018 13.644
13.2170 13.501
13.2321 13.482
13.2473 13.487
13.2625 13.380
13.2777 13.570
13.2928 13.463
13.3080 13.353
13.3232 13.310
13.3384 13.010
13.3535 13.169
13.3687 13.458
13.3839 13.291
13.3991 12.990
13.4142 12.911
13.4294 12.994
13.4446 13.029
13.4598 12.784
13.4749 12.675
13.4901 12.618
13.5053 12.733
13.5205 12.625
13.5356 12.517
13.5508 12.487
13.5660 12.297
13.5812 12.379
13.5963 12.351
13.6115 12.228
13.6267 12.064
13.6419 12.160
13.6570 12.242
13.6722 12.256
13.6874 12.229
13.7026 12.221
13.7177 12.151
13.7329 12.039
13.7481 12.178
13.7633 12.207
13.7784 12.131
13.7936 12.064
13.8088 12.128
13.8239 12.106
13.8391 12.221
13.8543 12.234
13.8695 12.324
13.8846 12.164
13.8998 12.204
13.9150 12.029
13.9302 11.940
13.9453 12.005
13.9605 11.936
13.9757 11.671
13.9909 11.610
14.0060 11.753
14.0212 11.848
14.0364 11.670
14.0516 11.927
14.0667 11.776
14.0819 11.800
14.0971 11.725
14.1123 11.601
14.1274 11.595
14.1426 11.443
14.1578 11.656
14.1730 11.433
14.1881 11.475
14.2033 11.339
14.2185 11.081
14.2337 11.449
14.2488 11.501
14.2640 11.286
14.2792 11.422
14.2944 11.695
14.3095 11.665
14.3247 11.761
14.3399 11.822
14.3551 11.932
14.3702 12.279
14.3854 12.326
14.4006 12.282
14.4158 12.438
14.4309 12.392
14.4461 12.429
14.4613 12.197
14.4765 12.339
14.4916 12.147
14.5068 12.089
14.5220 11.544
14.5372 11.763
14.5523 11.841
14.5675 11.556
14.5827 11.355
14.5979 11.149
14.6130 11.099
14.6282 11.275
14.6434 11.014
14.6586 11.017
14.6737 11.094
14.6889 10.980
14.7041 11.097
14.7193 11.166
14.7344 11.561
14.7496 11.427
14.7648 11.418
14.7800 11.296
14.7951 11.041
14.8103 10.902
14.8255 10.813
14.8407 11.247
14.8558 10.898
14.8710 10.978
14.8862 11.004
14.9014 10.781
14.9165 11.145
14.9317 11.146
14.9469 10.678
14.9621 10.567
14.9772 10.575
14.9924 10.755
15.0076 10.941
15.0228 10.736
15.0379 10.634
15.0531 10.734
15.0683 10.572
15.0835 10.478
15.0986 10.726
15.1138 10.232
15.1290 10.405
15.1442 10.709
15.1593 10.895
15.1745 10.155
15.1897 10.637
15.2049 10.770
15.2200 10.713
15.2352 10.537
15.2504 10.460
15.2656 10.178
15.2807 10.272
15.2959 10.632
15.3111 10.232
15.3263 10.291
15.3414 10.122
15.3566 10.007
15.3718 10.334
15.3870 10.359
15.4021 10.437
15.4173 10.546
15.4325 10.603
15.4477 10.497
15.4628 10.666
15.4780 10.129
15.4932 10.482
15.5084 10.373
15.5235 10.200
15.5387 9.947
15.5539 10.539
15.5691 10.464
15.5842 10.407
15.5994 10.192
15.6146 10.212
15.6298 10.349
15.6449 10.244
15.6601 10.318
15.6753 10.112
15.6905 10.107
15.7056 9.948
15.7208 10.001
15.7360 9.812
15.7512 9.975
15.7663 10.114
15.7815 10.023
15.7967 9.863
15.8119 9.919
15.8270 9.939
15.8422 9.982
15.8574 9.971
15.8726 9.821
15.8877 9.654
15.9029 9.531
15.9181 9.533
15.9333 9.529
15.9484 10.008
15.9636 9.960
15.9788 9.893
15.9940 9.581
16.0091 10.070
16.0243 10.088
16.0395 9.688
16.0547 9.810
16.0698 9.797
16.0850 9.771
16.1002 9.920
16.1154 9.695
16.1305 9.609
16.1457 9.899
16.1609 9.828
16.1761 9.815
16.1912 10.045
16.2064 9.894
16.2216 10.102
16.2368 9.912
16.2519 10.153
16.2671 10.227
16.2823 10.280
16.2975 9.964
16.3126 9.997
16.3278 9.905
16.3430 9.794
16.3582 10.201
16.3733 10.152
16.3885 10.008
16.4037 9.933
16.4189 9.974
16.4340 9.908
16.4492 10.010
16.4644 10.020
16.4796 9.870
16.4947 9.846
16.5099 9.888
16.5251 9.732
16.5403 9.751
16.5554 9.815
16.5706 9.635
16.5858 9.737
16.6010 9.808
16.6161 9.806
16.6313 9.989
16.6465 9.858
16.6617 9.860
16.6768 9.827
16.6920 9.909
16.7072 9.950
16.7224 10.219
16.7375 10.244
16.7527 10.398
16.7679 10.092
16.7831 10.083
16.7982 10.289
16.8134 10.233
16.8286 9.917
16.8438 9.806
16.8589 9.845
16.8741 9.843
16.8893 9.643
16.9045 9.810
16.9196 9.973
16.9348 9.735
16.9500 9.789
16.9652 9.941
16.9803 9.850
16.9955 9.967
17.0107 10.065
17.0259 10.124
17.0410 9.975
17.0562 10.250
17.0714 10.610
17.0866 10.727
17.1017 10.783
17.1169 10.995
17.1321 11.316
17.1473 11.450
17.1624 11.795
17.1776 12.470
17.1928 13.355
17.2080 14.429
17.2231 15.451
17.2383 16.487
17.2535 17.740
17.2687 18.417
17.2838 18.604
17.2990 18.016
17.3142 16.794
17.3294 16.147
17.3445 16.067
17.3597 16.423
17.3749 16.329
17.3901 15.493
17.4052 14.434
17.4204 13.294
17.4356 12.318
17.4508 11.596
17.4659 11.371
17.4811 11.291
17.4963 11.209
17.5115 11.056
17.5266 10.668
17.5418 10.552
17.5570 10.542
17.5722 10.486
17.5873 10.291
17.6025 10.137
17.6177 10.399
17.6329 10.362
17.6480 10.106
17.6632 10.266
17.6784 10.280
17.6936 10.235
17.7087 10.236
17.7239 10.165
17.7391 10.263
17.7543 10.174
17.7694 10.231
17.7846 10.407
17.7998 10.305
17.8150 10.285
17.8301 10.645
17.8453 10.749
17.8605 10.768
17.8757 11.051
17.8908 11.218
17.9060 11.059
17.9212 11.040
17.9364 10.872
17.9515 10.637
17.9667 10.663
17.9819 10.734
17.9971 10.680
18.0122 10.402
18.0274 10.393
18.0426 10.559
18.0578 10.308
18.0729 10.191
18.0881 10.201
18.1033 10.135
18.1185 10.017
18.1336 9.900
18.1488 9.733
18.1640 9.988
18.1792 10.109
18.1943 10.057
18.2095 10.069
18.2247 10.035
18.2399 10.142
18.2550 9.917
18.2702 9.814
18.2854 9.824
18.3006 9.999
18.3157 10.028
18.3309 9.927
18.3461 9.785
18.3613 9.965
18.3764 9.816
18.3916 10.061
18.4068 9.968
18.4220 9.832
18.4371 9.892
18.4523 9.675
18.4675 9.592
18.4827 9.713
18.4978 9.886
18.5130 10.089
18.5282 10.034
18.5434 9.896
18.5585 9.799
18.5737 9.727
18.5889 9.720
18.6041 9.856
18.6192 9.861
18.6344 9.658
18.6496 9.826
18.6648 9.898
18.6799 9.787
18.6951 9.883
18.7103 9.929
18.7255 9.627
18.7406 9.752
18.7558 10.058
18.7710 9.939
18.7862 9.812
18.8013 9.624
18.8165 9.670
18.8317 9.864
18.8469 9.982
18.8620 9.994
18.8772 9.985
18.8924 10.012
18.9076 10.075
18.9227 10.105
18.9379 9.865
18.9531 9.766
18.9683 9.734
18.9834 9.770
18.9986 9.958
19.0138 9.881
19.0290 9.903
19.0441 10.062
19.0593 10.186
19.0745 10.180
19.0897 10.321
19.1048 10.591
19.1200 10.618
19.1352 10.418
19.1504 10.366
19.1655 10.544
19.1807 10.638
19.1959 10.633
19.2111 10.745
19.2262 10.667
19.2414 10.863
19.2566 11.008
19.2718 10.967
19.2869 11.013
19.3021 10.990
19.3173 11.028
19.3325 11.075
19.3476 11.021
19.3628 11.196
19.3780 11.173
19.3932 11.127
19.4083 11.100
19.4235 11.094
19.4387 11.217
19.4539 11.027
19.4690 11.110
19.4842 11.649
19.4994 11.696
19.5146 11.646
19.5297 11.559
19.5449 11.447
19.5601 11.601
19.5753 11.713
19.5904 11.850
19.6056 11.814
19.6208 11.574
19.6360 11.575
19.6511 11.665
19.6663 11.689
19.6815 11.817
19.6967 11.615
19.7118 11.602
19.7270 11.654
19.7422 11.749
19.7574 11.798
19.7725 11.786
19.7877 11.746
19.8029 11.759
19.8180 11.850
19.8332 11.971
19.8484 12.131
19.8636 12.214
19.8787 12.542
19.8939 12.637
19.9091 12.885
19.9243 13.488
19.9394 13.692
19.9546 13.992
19.9698 14.288
19.9850 14.593
20.0001 14.671
20.0153 14.366
20.0305 14.180
20.0457 14.059
20.0608 14.070
20.0760 13.993
20.0912 13.762
20.1064 13.746
20.1215 13.429
20.1367 13.129
20.1519 13.086
20.1671 12.622
20.1822 12.627
20.1974 12.889
20.2126 12.724
20.2278 12.548
20.2429 12.458
20.2581 12.160
20.2733 11.840
20.2885 11.832
20.3036 11.981
20.3188 11.864
20.3340 11.656
20.3492 11.595
20.3643 11.399
20.3795 11.077
20.3947 10.962
20.4099 10.759
20.4250 10.778
20.4402 10.856
20.4554 10.683
20.4706 10.856
20.4857 10.815
20.5009 10.689
20.5161 10.673
20.5313 10.699
20.5464 10.797
20.5616 10.453
20.5768 10.539
20.5920 10.541
20.6071 10.528
20.6223 10.436
20.6375 10.387
20.6527 10.481
20.6678 10.559
20.6830 10.435
20.6982 10.579
20.7134 10.541
20.7285 10.406
20.7437 10.213
20.7589 10.351
20.7741 10.353
20.7892 10.445
20.8044 10.161
20.8196 10.126
20.8348 10.136
20.8499 10.359
20.8651 10.221
20.8803 10.281
20.8955 10.356
20.9106 10.184
20.9258 10.477
20.9410 10.422
20.9562 10.164
20.9713 10.168
20.9865 10.142
21.0017 10.094
21.0169 10.274
21.0320 10.329
21.0472 10.105
21.0624 10.402
21.0776 10.399
21.0927 10.280
21.1079 9.769
21.1231 9.988
21.1383 9.964
21.1534 10.093
21.1686 10.082
21.1838 9.592
21.1990 9.932
21.2141 9.764
21.2293 9.908
21.2445 9.840
21.2597 9.808
21.2748 9.283
21.2900 9.525
21.3052 9.651
21.3204 9.673
21.3355 9.393
21.3507 9.444
21.3659 9.325
21.3811 9.381
21.3962 9.351
21.4114 9.511
21.4266 9.518
21.4418 9.673
21.4569 9.219
21.4721 9.328
21.4873 9.414
21.5025 9.332
21.5176 9.178
21.5328 9.203
21.5480 9.397
21.5632 9.374
21.5783 9.340
21.5935 9.291
21.6087 9.398
21.6239 9.475
21.6390 9.181
21.6542 9.180
21.6694 9.282
21.6846 9.211
21.6997 9.134
21.7149 9.116
21.7301 8.973
21.7453 8.759
21.7604 8.838
21.7756 8.784
21.7908 8.969
21.8060 9.129
21.8211 9.130
21.8363 9.029
21.8515 9.009
21.8667 9.160
21.8818 9.182
21.8970 9.271
21.9122 8.887
21.9274 8.780
21.9425 8.864
21.9577 8.882
21.9729 8.953
21.9881 8.938
22.0032 8.764
22.0184 8.812
22.0336 8.989
22.0488 9.041
22.0639 8.889
22.0791 8.634
22.0943 8.553
22.1095 8.643
22.1246 8.788
22.1398 8.719
22.1550 8.608
22.1702 8.616
22.1853 8.739
22.2005 8.768
22.2157 8.597
22.2309 8.750
22.2460 8.540
22.2612 8.500
22.2764 8.780
22.2916 8.684
22.3067 8.604
22.3219 8.692
22.3371 8.648
22.3523 8.669
22.3674 8.465
22.3826 8.512
22.3978 8.515
22.4130 8.650
22.4281 8.523
22.4433 8.624
22.4585 8.790
22.4737 8.569
22.4888 8.493
22.5040 8.192
22.5192 8.579
22.5344 8.366
22.5495 8.396
22.5647 8.623
22.5799 8.709
22.5951 8.325
22.6102 8.529
22.6254 8.566
22.6406 8.369
22.6558 9.101
22.6709 8.439
22.6861 8.474
22.7013 8.250
22.7165 8.006
22.7316 6.269
