'Id: "" Comment: "" Operator: "Lab Manager" Anode: "Mo" Scantype: "Still (Eiger2R_500K (1D mode))" TimePerStep: "300" X: "11.8" Y: "9.4" Z: "11.284" 
7.2532 19.018
7.2684 19.268
7.2836 19.111
7.2987 18.867
7.3139 18.878
7.3291 19.031
7.3443 19.348
7.3594 19.303
7.3746 19.210
7.3898 19.508
7.4050 19.433
7.4201 19.037
7.4353 19.807
7.4505 19.595
7.4657 19.253
7.4808 19.394
7.4960 19.713
7.5112 19.548
7.5264 20.078
7.5415 19.924
7.5567 20.107
7.5719 19.846
7.5871 19.737
7.6022 19.827
7.6174 20.047
7.6326 19.974
7.6478 19.813
7.6629 19.896
7.6781 19.997
7.6933 20.431
7.7085 20.259
7.7236 20.305
7.7388 20.362
7.7540 20.424
7.7692 20.727
7.7843 20.646
7.7995 20.724
7.8147 20.665
7.8299 20.467
7.8450 20.775
7.8602 20.989
7.8754 20.774
7.8905 20.714
7.9057 20.941
7.9209 20.861
7.9361 20.903
7.9512 21.147
7.9664 21.032
7.9816 21.155
7.9968 21.213
8.0119 21.201
8.0271 21.201
8.0423 21.009
8.0575 21.025
8.0726 21.187
8.0878 21.650
8.1030 21.568
8.1182 21.420
8.1333 21.359
8.1485 21.547
8.1637 21.641
8.1789 21.602
8.1940 21.474
8.2092 21.492
8.2244 21.682
8.2396 21.556
8.2547 21.374
8.2699 21.551
8.2851 21.602
8.3003 22.246
8.3154 21.521
8.3306 22.230
8.3458 21.588
8.3610 21.711
8.3761 21.930
8.3913 22.069
8.4065 21.748
8.4217 21.549
8.4368 21.734
8.4520 21.902
8.4672 21.697
8.4824 22.179
8.4975 22.417
8.5127 22.383
8.5279 22.217
8.5431 22.145
8.5582 21.661
8.5734 22.058
8.5886 22.226
8.6038 22.048
8.6189 22.216
8.6341 22.194
8.6493 22.140
8.6645 22.396
8.6796 22.393
8.6948 22.672
8.7100 22.486
8.7252 23.138
8.7403 23.073
8.7555 22.769
8.7707 22.509
8.7859 22.475
8.8010 22.086
8.8162 22.421
8.8314 22.576
8.8466 22.445
8.8617 22.271
8.8769 22.372
8.8921 22.691
8.9073 22.724
8.9224 22.229
8.9376 21.999
8.9528 22.756
8.9680 22.951
8.9831 22.750
8.9983 22.616
9.0135 23.413
9.0287 23.205
9.0438 22.737
9.0590 22.860
9.0742 22.400
9.0894 22.832
9.1045 22.512
9.1197 22.605
9.1349 22.570
9.1501 23.293
9.1652 23.026
9.1804 22.912
9.1956 23.074
9.2108 22.984
9.2259 22.992
9.2411 22.929
9.2563 23.224
9.2715 23.181
9.2866 22.972
9.3018 22.970
9.3170 23.276
9.3322 23.499
9.3473 23.448
9.3625 23.186
9.3777 23.089
9.3929 23.308
9.4080 23.011
9.4232 22.889
9.4384 23.213
9.4536 23.089
9.4687 23.465
9.4839 23.370
9.4991 23.468
9.5143 23.288
9.5294 23.184
9.5446 23.242
9.5598 23.629
9.5750 23.447
9.5901 23.166
9.6053 23.458
9.6205 23.335
9.6357 23.419
9.6508 23.513
9.6660 23.681
9.6812 23.896
9.6964 23.841
9.7115 23.843
9.7267 24.061
9.7419 24.396
9.7571 24.194
9.7722 24.060
9.7874 23.922
9.8026 23.878
9.8178 23.872
9.8329 23.882
9.8481 23.842
9.8633 23.636
9.8785 23.328
9.8936 23.290
9.9088 23.522
9.9240 23.115
9.9392 23.181
9.9543 23.853
9.9695 23.987
9.9847 23.413
9.9999 23.365
10.0150 24.097
10.0302 23.861
10.0454 23.705
10.0606 23.606
10.0757 23.386
10.0909 23.345
10.1061 23.514
10.1213 23.676
10.1364 23.797
10.1516 24.021
10.1668 23.898
10.1820 24.257
10.1971 24.391
10.2123 24.297
10.2275 24.181
10.2427 23.951
10.2578 24.031
10.2730 23.743
10.2882 23.409
10.3034 23.609
10.3185 23.447
10.3337 23.171
10.3489 23.267
10.3641 23.227
10.3792 23.141
10.3944 23.246
10.4096 22.944
10.4248 22.795
10.4399 22.940
10.4551 22.988
10.4703 22.784
10.4855 22.307
10.5006 22.413
10.5158 22.658
10.5310 22.777
10.5462 22.771
10.5613 22.703
10.5765 22.584
10.5917 22.588
10.6069 22.420
10.6220 22.506
10.6372 22.103
10.6524 22.269
10.6676 22.490
10.6827 22.579
10.6979 22.609
10.7131 22.171
10.7283 22.580
10.7434 22.632
10.7586 22.626
10.7738 22.239
10.7890 21.998
10.8041 22.047
10.8193 22.483
10.8345 22.361
10.8497 22.103
10.8648 22.075
10.8800 22.093
10.8952 22.033
10.9104 22.193
10.9255 22.398
10.9407 22.057
10.9559 21.753
10.9711 21.746
10.9862 22.055
11.0014 22.354
11.0166 22.615
11.0318 22.714
11.0469 22.271
11.0621 21.996
11.0773 21.792
11.0925 21.632
11.1076 21.763
11.1228 21.642
11.1380 21.263
11.1532 21.401
11.1683 21.668
11.1835 21.800
11.1987 22.336
11.2139 22.162
11.2290 22.230
11.2442 21.861
11.2594 21.958
11.2746 21.683
11.2897 21.846
11.3049 22.094
11.3201 21.641
11.3353 21.567
11.3504 21.696
11.3656 21.457
11.3808 21.419
11.3960 21.356
11.4111 21.438
11.4263 21.496
11.4415 21.505
11.4567 21.213
11.4718 21.299
11.4870 21.231
11.5022 20.973
11.5174 20.957
11.5325 20.494
11.5477 20.657
11.5629 20.892
11.5781 20.602
11.5932 20.579
11.6084 20.596
11.6236 20.721
11.6388 20.634
11.6539 20.674
11.6691 20.861
11.6843 20.963
11.6995 20.731
11.7146 20.589
11.7298 20.335
11.7450 20.104
11.7602 20.184
11.7753 20.359
11.7905 20.223
11.8057 20.328
11.8209 20.408
11.8360 20.095
11.8512 20.172
11.8664 19.868
11.8816 19.603
11.8967 19.889
11.9119 19.697
11.9271 19.125
11.9423 19.258
11.9574 19.358
11.9726 19.057
11.9878 19.233
12.0030 19.237
12.0181 19.019
12.0333 18.934
12.0485 18.857
12.0637 18.997
12.0788 18.970
12.0940 18.950
12.1092 18.546
12.1244 18.439
12.1395 18.403
12.1547 18.388
12.1699 18.259
12.1851 18.290
12.2002 17.921
12.2154 17.761
12.2306 18.097
12.2458 18.068
12.2609 17.886
12.2761 17.894
12.2913 17.570
12.3065 17.417
12.3216 17.521
12.3368 17.517
12.3520 17.472
12.3672 17.620
12.3823 17.375
12.3975 17.507
12.4127 17.573
12.4279 17.136
12.4430 17.028
12.4582 17.203
12.4734 17.133
12.4886 17.028
12.5037 16.895
12.5189 16.422
12.5341 16.444
12.5493 16.725
12.5644 16.553
12.5796 16.577
12.5948 16.399
12.6100 16.134
12.6251 15.866
12.6403 15.754
12.6555 15.771
12.6707 15.826
12.6858 15.801
12.7010 15.617
12.7162 15.526
12.7314 15.452
12.7465 15.436
12.7617 15.388
12.7769 15.295
12.7921 15.406
12.8072 15.359
12.8224 14.982
12.8376 15.135
12.8528 15.354
12.8679 15.197
12.8831 14.995
12.8983 14.913
12.9135 14.721
12.9286 14.654
12.9438 14.571
12.9590 14.317
12.9742 14.432
12.9893 14.466
13.0045 14.549
13.0197 14.531
13.0349 14.274
13.0500 14.225
13.0652 14.174
13.0804 14.128
13.0956 14.228
13.1107 13.930
13.1259 13.530
13.1411 13.610
13.1563 13.742
13.1714 13.739
13.1866 13.577
13.2018 13.533
13.2170 13.543
13.2321 13.410
13.2473 13.160
13.2625 13.300
13.2777 13.393
13.2928 13.050
13.3080 13.086
13.3232 13.061
13.3384 12.950
13.3535 12.894
13.3687 12.890
13.3839 12.915
13.3991 12.958
13.4142 12.989
13.4294 13.154
13.4446 13.193
13.4598 12.674
13.4749 12.616
13.4901 12.864
13.5053 12.454
13.5205 12.494
13.5356 12.558
13.5508 12.383
13.5660 12.327
13.5812 12.102
13.5963 12.102
13.6115 12.120
13.6267 12.201
13.6419 12.174
13.6570 11.813
13.6722 11.974
13.6874 12.067
13.7026 11.920
13.7177 12.167
13.7329 12.118
13.7481 12.194
13.7633 12.153
13.7784 11.971
13.7936 12.070
13.8088 12.104
13.8239 11.992
13.8391 12.174
13.8543 12.302
13.8695 12.316
13.8846 12.130
13.8998 12.020
13.9150 12.092
13.9302 12.128
13.9453 12.261
13.9605 12.040
13.9757 11.697
13.9909 11.719
14.0060 11.598
14.0212 11.559
14.0364 11.467
14.0516 11.557
14.0667 11.392
14.0819 11.415
14.0971 11.234
14.1123 11.301
14.1274 11.271
14.1426 11.455
14.1578 11.384
14.1730 11.482
14.1881 11.709
14.2033 11.663
14.2185 11.919
14.2337 11.726
14.2488 12.144
14.2640 12.232
14.2792 11.903
14.2944 12.005
14.3095 12.186
14.3247 12.331
14.3399 12.372
14.3551 12.622
14.3702 12.890
14.3854 13.184
14.4006 13.435
14.4158 13.090
14.4309 13.021
14.4461 12.577
14.4613 13.163
14.4765 12.626
14.4916 12.406
14.5068 12.465
14.5220 11.765
14.5372 11.899
14.5523 11.626
14.5675 11.514
14.5827 11.635
14.5979 11.396
14.6130 11.494
14.6282 11.598
14.6434 11.150
14.6586 11.176
14.6737 10.637
14.6889 11.287
14.7041 10.926
14.7193 10.838
14.7344 11.030
14.7496 11.263
14.7648 11.060
14.7800 11.117
14.7951 10.482
14.8103 10.626
14.8255 10.698
14.8407 11.002
14.8558 10.791
14.8710 10.558
14.8862 10.336
14.9014 10.673
14.9165 11.004
14.9317 10.925
14.9469 10.624
14.9621 10.615
14.9772 10.580
14.9924 10.469
15.0076 10.212
15.0228 10.747
15.0379 10.524
15.0531 10.648
15.0683 10.451
15.0835 10.478
15.0986 10.400
15.1138 10.779
15.1290 10.813
15.1442 10.670
15.1593 10.362
15.1745 10.442
15.1897 10.090
15.2049 10.427
15.2200 10.418
15.2352 10.263
15.2504 10.141
15.2656 10.480
15.2807 10.297
15.2959 10.016
15.3111 10.187
15.3263 10.220
15.3414 10.312
15.3566 10.498
15.3718 10.124
15.3870 10.061
15.4021 10.420
15.4173 10.773
15.4325 10.206
15.4477 10.628
15.4628 10.238
15.4780 10.467
15.4932 10.154
15.5084 10.429
15.5235 10.350
15.5387 10.404
15.5539 10.090
15.5691 10.423
15.5842 10.281
15.5994 9.969
15.6146 10.013
15.6298 9.945
15.6449 10.135
15.6601 10.163
15.6753 10.081
15.6905 10.428
15.7056 10.016
15.7208 10.011
15.7360 10.005
15.7512 9.731
15.7663 9.949
15.7815 9.859
15.7967 9.650
15.8119 9.781
15.8270 10.035
15.8422 10.074
15.8574 9.850
15.8726 9.818
15.8877 9.940
15.9029 9.999
15.9181 9.958
15.9333 9.682
15.9484 9.821
15.9636 9.981
15.9788 9.785
15.9940 9.985
16.0091 9.852
16.0243 10.135
16.0395 9.853
16.0547 9.817
16.0698 9.636
16.0850 9.649
16.1002 9.947
16.1154 9.748
16.1305 9.490
16.1457 9.420
16.1609 9.673
16.1761 9.670
16.1912 9.760
16.2064 9.759
16.2216 9.488
16.2368 9.857
16.2519 10.135
16.2671 10.065
16.2823 10.123
16.2975 10.209
16.3126 10.114
16.3278 10.034
16.3430 10.045
16.3582 10.284
16.3733 10.302
16.3885 9.983
16.4037 9.907
16.4189 9.991
16.4340 10.040
16.4492 10.213
16.4644 10.059
16.4796 9.790
16.4947 9.607
16.5099 9.927
16.5251 9.809
16.5403 9.769
16.5554 9.632
16.5706 9.439
16.5858 9.372
16.6010 9.705
16.6161 9.653
16.6313 9.519
16.6465 9.739
16.6617 9.920
16.6768 9.912
16.6920 10.029
16.7072 10.065
16.7224 10.104
16.7375 10.055
16.7527 9.868
16.7679 9.611
16.7831 9.727
16.7982 10.073
16.8134 10.200
16.8286 10.007
16.8438 9.931
16.8589 9.939
16.8741 9.900
16.8893 9.984
16.9045 9.994
16.9196 9.937
16.9348 9.812
16.9500 9.787
16.9652 9.743
16.9803 9.698
16.9955 9.932
17.0107 9.922
17.0259 10.072
17.0410 10.180
17.0562 10.027
17.0714 10.162
17.0866 10.485
17.1017 10.612
17.1169 10.887
17.1321 11.201
17.1473 11.461
17.1624 11.830
17.1776 12.076
17.1928 12.809
17.2080 13.857
17.2231 14.900
17.2383 16.223
17.2535 17.505
17.2687 18.330
17.2838 18.566
17.2990 18.039
17.3142 16.945
17.3294 16.309
17.3445 16.036
17.3597 15.797
17.3749 15.555
17.3901 15.096
17.4052 14.222
17.4204 13.426
17.4356 12.898
17.4508 12.444
17.4659 12.152
17.4811 11.895
17.4963 11.747
17.5115 11.305
17.5266 11.128
17.5418 11.333
17.5570 11.382
17.5722 11.401
17.5873 11.608
17.6025 11.582
17.6177 11.416
17.6329 11.432
17.6480 11.072
17.6632 11.008
17.6784 11.247
17.6936 11.235
17.7087 11.048
17.7239 10.821
17.7391 10.797
17.7543 10.644
17.7694 10.412
17.7846 10.605
17.7998 10.804
17.8150 10.701
17.8301 10.533
17.8453 10.374
17.8605 10.369
17.8757 10.711
17.8908 10.968
17.9060 10.953
17.9212 10.717
17.9364 10.675
17.9515 10.485
17.9667 10.442
17.9819 10.509
17.9971 10.556
18.0122 10.419
18.0274 10.363
18.0426 10.357
18.0578 10.331
18.0729 10.326
18.0881 10.248
18.1033 9.996
18.1185 10.012
18.1336 10.182
18.1488 9.978
18.1640 9.911
18.1792 9.962
18.1943 10.007
18.2095 10.075
18.2247 9.971
18.2399 9.831
18.2550 9.881
18.2702 9.919
18.2854 9.789
18.3006 9.808
18.3157 10.039
18.3309 9.855
18.3461 9.823
18.3613 9.653
18.3764 9.607
18.3916 9.699
18.4068 9.934
18.4220 9.833
18.4371 9.812
18.4523 9.951
18.4675 9.907
18.4827 9.764
18.4978 9.569
18.5130 9.710
18.5282 9.712
18.5434 9.832
18.5585 9.975
18.5737 9.894
18.5889 9.893
18.6041 9.906
18.6192 9.936
18.6344 9.803
18.6496 9.568
18.6648 9.634
18.6799 9.709
18.6951 9.554
18.7103 9.594
18.7255 9.719
18.7406 9.590
18.7558 9.744
18.7710 9.903
18.7862 9.866
18.8013 9.910
18.8165 9.699
18.8317 9.857
18.8469 10.056
18.8620 10.099
18.8772 10.188
18.8924 10.114
18.9076 9.815
18.9227 9.735
18.9379 9.848
18.9531 10.023
18.9683 10.037
18.9834 10.064
18.9986 10.307
19.0138 10.312
19.0290 10.279
19.0441 10.287
19.0593 10.089
19.0745 10.162
19.0897 10.348
19.1048 10.444
19.1200 10.305
19.1352 10.106
19.1504 10.360
19.1655 10.547
19.1807 10.633
19.1959 10.855
19.2111 10.871
19.2262 10.691
19.2414 10.723
19.2566 10.707
19.2718 10.654
19.2869 10.712
19.3021 10.737
19.3173 11.031
19.3325 11.046
19.3476 10.857
19.3628 10.922
19.3780 11.123
19.3932 11.250
19.4083 11.309
19.4235 11.227
19.4387 11.223
19.4539 11.356
19.4690 11.444
19.4842 11.333
19.4994 11.105
19.5146 11.332
19.5297 11.469
19.5449 11.459
19.5601 11.643
19.5753 11.462
19.5904 11.534
19.6056 11.848
19.6208 11.810
19.6360 11.717
19.6511 11.792
19.6663 11.647
19.6815 11.557
19.6967 11.779
19.7118 11.509
19.7270 11.317
19.7422 11.527
19.7574 11.693
19.7725 12.031
19.7877 12.115
19.8029 11.828
19.8180 11.749
19.8332 11.872
19.8484 11.859
19.8636 12.183
19.8787 12.555
19.8939 12.506
19.9091 12.878
19.9243 13.383
19.9394 13.681
19.9546 14.070
19.9698 14.367
19.9850 14.331
20.0001 14.498
20.0153 14.181
20.0305 13.763
20.0457 13.923
20.0608 13.616
20.0760 13.388
20.0912 13.842
20.1064 13.835
20.1215 13.604
20.1367 13.373
20.1519 13.216
20.1671 13.202
20.1822 12.796
20.1974 12.951
20.2126 13.030
20.2278 13.071
20.2429 12.807
20.2581 12.644
20.2733 12.161
20.2885 11.821
20.3036 12.102
20.3188 12.207
20.3340 11.882
20.3492 11.927
20.3643 11.750
20.3795 11.364
20.3947 10.973
20.4099 11.145
20.4250 10.990
20.4402 10.876
20.4554 11.054
20.4706 10.878
20.4857 10.645
20.5009 10.769
20.5161 10.572
20.5313 10.844
20.5464 10.853
20.5616 11.044
20.5768 10.979
20.5920 10.712
20.6071 10.796
20.6223 10.707
20.6375 10.646
20.6527 10.582
20.6678 10.852
20.6830 10.628
20.6982 10.575
20.7134 10.775
20.7285 10.604
20.7437 10.858
20.7589 10.593
20.7741 10.470
20.7892 10.721
20.8044 10.244
20.8196 10.349
20.8348 10.639
20.8499 10.425
20.8651 10.579
20.8803 10.452
20.8955 10.217
20.9106 10.206
20.9258 10.077
20.9410 10.324
20.9562 10.174
20.9713 10.008
20.9865 9.849
21.0017 10.084
21.0169 10.157
21.0320 10.003
21.0472 10.043
21.0624 9.661
21.0776 10.019
21.0927 9.949
21.1079 9.741
21.1231 9.692
21.1383 9.410
21.1534 9.974
21.1686 10.008
21.1838 9.632
21.1990 9.700
21.2141 9.978
21.2293 9.569
21.2445 9.611
21.2597 9.811
21.2748 9.432
21.2900 9.447
21.3052 9.545
21.3204 9.845
21.3355 9.551
21.3507 9.551
21.3659 9.481
21.3811 9.738
21.3962 9.469
21.4114 9.635
21.4266 9.804
21.4418 9.405
21.4569 9.085
21.4721 9.365
21.4873 9.266
21.5025 9.273
21.5176 9.480
21.5328 9.243
21.5480 9.077
21.5632 9.069
21.5783 9.206
21.5935 9.265
21.6087 9.254
21.6239 9.214
21.6390 9.307
21.6542 8.988
21.6694 8.980
21.6846 9.170
21.6997 9.208
21.7149 9.121
21.7301 8.982
21.7453 8.916
21.7604 9.124
21.7756 8.900
21.7908 8.947
21.8060 8.901
21.8211 9.076
21.8363 9.060
21.8515 9.220
21.8667 9.105
21.8818 9.010
21.8970 9.212
21.9122 9.049
21.9274 8.959
21.9425 8.884
21.9577 8.847
21.9729 8.843
21.9881 8.809
22.0032 8.617
22.0184 8.691
22.0336 8.968
22.0488 8.907
22.0639 8.737
22.0791 8.731
22.0943 8.668
22.1095 8.659
22.1246 8.856
22.1398 8.662
22.1550 8.609
22.1702 8.811
22.1853 8.729
22.2005 8.707
22.2157 8.830
22.2309 9.083
22.2460 8.846
22.2612 8.530
22.2764 8.583
22.2916 8.624
22.3067 8.859
22.3219 8.627
22.3371 8.513
22.3523 8.656
22.3674 8.655
22.3826 8.584
22.3978 8.303
22.4130 8.466
22.4281 8.581
22.4433 8.466
22.4585 8.568
22.4737 8.748
22.4888 8.565
22.5040 8.582
22.5192 8.453
22.5344 8.184
22.5495 8.659
22.5647 8.401
22.5799 8.368
22.5951 8.506
22.6102 8.471
22.6254 8.596
22.6406 8.248
22.6558 8.692
22.6709 8.474
22.6861 8.377
22.7013 8.551
22.7165 8.042
22.7316 6.398
