'Id: "" Comment: "" Operator: "Lab Manager" Anode: "Mo" Scantype: "Still (Eiger2R_500K (1D mode))" TimePerStep: "300" X: "11.8" Y: "9.4" Z: "11.284" 
7.2532 18.700
7.2684 18.565
7.2836 18.428
7.2987 18.594
7.3139 18.774
7.3291 19.054
7.3443 18.865
7.3594 18.658
7.3746 18.939
7.3898 19.395
7.4050 19.627
7.4201 19.463
7.4353 19.319
7.4505 19.249
7.4657 19.572
7.4808 19.632
7.4960 19.675
7.5112 19.332
7.5264 19.615
7.5415 19.869
7.5567 19.386
7.5719 19.540
7.5871 19.713
7.6022 19.753
7.6174 19.980
7.6326 19.652
7.6478 20.083
7.6629 20.411
7.6781 19.950
7.6933 19.822
7.7085 19.996
7.7236 20.173
7.7388 19.999
7.7540 20.283
7.7692 20.303
7.7843 20.481
7.7995 20.847
7.8147 20.497
7.8299 20.334
7.8450 20.492
7.8602 20.526
7.8754 20.524
7.8905 20.808
7.9057 20.856
7.9209 20.640
7.9361 20.914
7.9512 21.118
7.9664 20.989
7.9816 20.917
7.9968 20.891
8.0119 20.912
8.0271 20.811
8.0423 20.610
8.0575 20.898
8.0726 21.090
8.0878 20.964
8.1030 20.925
8.1182 21.060
8.1333 21.445
8.1485 21.562
8.1637 21.313
8.1789 21.085
8.1940 21.211
8.2092 21.312
8.2244 21.190
8.2396 21.260
8.2547 20.983
8.2699 21.236
8.2851 21.705
8.3003 21.540
8.3154 20.980
8.3306 21.613
8.3458 21.511
8.3610 21.252
8.3761 21.901
8.3913 20.940
8.4065 21.920
8.4217 21.515
8.4368 21.234
8.4520 21.527
8.4672 21.915
8.4824 22.071
8.4975 22.275
8.5127 21.874
8.5279 22.238
8.5431 21.995
8.5582 22.085
8.5734 21.349
8.5886 21.906
8.6038 22.220
8.6189 21.943
8.6341 22.304
8.6493 21.781
8.6645 22.279
8.6796 22.308
8.6948 22.120
8.7100 21.970
8.7252 22.322
8.7403 22.276
8.7555 22.285
8.7707 21.981
8.7859 22.249
8.8010 22.270
8.8162 21.986
8.8314 22.504
8.8466 21.991
8.8617 22.451
8.8769 22.039
8.8921 22.212
8.9073 22.237
8.9224 21.959
8.9376 22.322
8.9528 22.323
8.9680 22.373
8.9831 22.415
8.9983 22.188
9.0135 22.683
9.0287 22.756
9.0438 22.442
9.0590 22.205
9.0742 22.490
9.0894 22.516
9.1045 22.636
9.1197 22.491
9.1349 22.873
9.1501 22.724
9.1652 22.789
9.1804 22.658
9.1956 22.779
9.2108 22.533
9.2259 22.673
9.2411 22.816
9.2563 22.457
9.2715 22.641
9.2866 22.723
9.3018 22.789
9.3170 22.752
9.3322 23.166
9.3473 22.870
9.3625 22.693
9.3777 22.624
9.3929 23.242
9.4080 23.020
9.4232 22.769
9.4384 22.657
9.4536 23.052
9.4687 22.751
9.4839 22.568
9.4991 22.865
9.5143 22.884
9.5294 23.203
9.5446 23.168
9.5598 23.069
9.5750 22.928
9.5901 23.003
9.6053 23.351
9.6205 23.525
9.6357 23.159
9.6508 23.440
9.6660 23.663
9.6812 23.496
9.6964 23.409
9.7115 23.747
9.7267 24.174
9.7419 24.207
9.7571 23.986
9.7722 23.707
9.7874 23.824
9.8026 23.557
9.8178 23.107
9.8329 23.074
9.8481 23.189
9.8633 23.609
9.8785 23.595
9.8936 23.143
9.9088 22.970
9.9240 22.929
9.9392 23.068
9.9543 23.300
9.9695 23.288
9.9847 23.154
9.9999 23.333
10.0150 23.425
10.0302 23.219
10.0454 23.152
10.0606 23.093
10.0757 23.012
10.0909 23.006
10.1061 23.086
10.1213 23.303
10.1364 23.416
10.1516 23.250
10.1668 23.141
10.1820 23.254
10.1971 23.117
10.2123 22.752
10.2275 22.788
10.2427 22.875
10.2578 22.893
10.2730 22.675
10.2882 22.865
10.3034 22.936
10.3185 22.643
10.3337 22.773
10.3489 22.773
10.3641 22.520
10.3792 22.527
10.3944 22.564
10.4096 22.602
10.4248 22.484
10.4399 22.674
10.4551 22.754
10.4703 22.483
10.4855 22.490
10.5006 22.518
10.5158 22.377
10.5310 22.287
10.5462 22.508
10.5613 22.572
10.5765 22.599
10.5917 22.507
10.6069 22.639
10.6220 22.417
10.6372 22.682
10.6524 22.463
10.6676 22.482
10.6827 22.632
10.6979 22.181
10.7131 22.453
10.7283 22.147
10.7434 21.993
10.7586 22.424
10.7738 22.324
10.7890 22.246
10.8041 22.375
10.8193 22.247
10.8345 22.170
10.8497 22.308
10.8648 22.395
10.8800 22.272
10.8952 22.124
10.9104 22.113
10.9255 21.706
10.9407 21.807
10.9559 21.801
10.9711 21.742
10.9862 22.121
11.0014 22.269
11.0166 22.189
11.0318 22.248
11.0469 21.964
11.0621 21.897
11.0773 21.863
11.0925 21.994
11.1076 22.125
11.1228 21.813
11.1380 21.518
11.1532 21.528
11.1683 21.767
11.1835 21.937
11.1987 21.624
11.2139 21.249
11.2290 21.810
11.2442 21.728
11.2594 21.773
11.2746 21.790
11.2897 21.609
11.3049 21.700
11.3201 21.357
11.3353 21.179
11.3504 20.800
11.3656 20.754
11.3808 21.068
11.3960 21.016
11.4111 20.921
11.4263 21.196
11.4415 21.184
11.4567 21.359
11.4718 21.366
11.4870 20.985
11.5022 21.176
11.5174 21.016
11.5325 21.016
11.5477 20.825
11.5629 20.845
11.5781 20.500
11.5932 20.580
11.6084 20.979
11.6236 20.703
11.6388 20.521
11.6539 20.598
11.6691 20.575
11.6843 20.384
11.6995 20.419
11.7146 20.360
11.7298 20.591
11.7450 20.242
11.7602 20.166
11.7753 20.327
11.7905 20.183
11.8057 20.321
11.8209 20.133
11.8360 19.869
11.8512 20.021
11.8664 19.667
11.8816 19.999
11.8967 19.817
11.9119 19.822
11.9271 19.523
11.9423 19.472
11.9574 19.232
11.9726 19.488
11.9878 19.416
12.0030 19.638
12.0181 19.463
12.0333 19.318
12.0485 18.758
12.0637 18.758
12.0788 18.935
12.0940 18.759
12.1092 18.483
12.1244 18.110
12.1395 18.389
12.1547 18.549
12.1699 18.547
12.1851 18.674
12.2002 18.601
12.2154 18.305
12.2306 18.072
12.2458 17.980
12.2609 17.831
12.2761 17.528
12.2913 17.550
12.3065 17.446
12.3216 17.513
12.3368 17.625
12.3520 17.342
12.3672 17.736
12.3823 17.398
12.3975 17.034
12.4127 16.858
12.4279 16.903
12.4430 17.022
12.4582 16.869
12.4734 17.183
12.4886 16.941
12.5037 16.784
12.5189 16.722
12.5341 16.386
12.5493 16.174
12.5644 15.922
12.5796 16.047
12.5948 16.224
12.6100 16.328
12.6251 16.203
12.6403 15.867
12.6555 16.080
12.6707 16.345
12.6858 15.679
12.7010 15.472
12.7162 15.480
12.7314 15.445
12.7465 15.523
12.7617 15.676
12.7769 15.363
12.7921 15.082
12.8072 15.133
12.8224 15.194
12.8376 15.069
12.8528 14.784
12.8679 14.665
12.8831 14.785
12.8983 14.898
12.9135 14.757
12.9286 14.384
12.9438 14.229
12.9590 14.234
12.9742 14.319
12.9893 14.244
13.0045 14.168
13.0197 14.249
13.0349 14.288
13.0500 14.160
13.0652 14.022
13.0804 14.027
13.0956 13.897
13.1107 13.872
13.1259 13.732
13.1411 13.678
13.1563 13.867
13.1714 13.673
13.1866 13.507
13.2018 13.527
13.2170 13.353
13.2321 13.193
13.2473 13.244
13.2625 13.198
13.2777 13.120
13.2928 13.354
13.3080 13.474
13.3232 13.341
13.3384 13.417
13.3535 13.418
13.3687 13.260
13.3839 13.187
13.3991 13.180
13.4142 13.060
13.4294 12.799
13.4446 12.806
13.4598 12.834
13.4749 12.828
13.4901 12.862
13.5053 12.725
13.5205 12.467
13.5356 12.368
13.5508 12.488
13.5660 12.445
13.5812 12.239
13.5963 12.388
13.6115 12.278
13.6267 12.194
13.6419 12.105
13.6570 12.142
13.6722 12.114
13.6874 12.227
13.7026 12.372
13.7177 12.552
13.7329 12.229
13.7481 11.997
13.7633 11.940
13.7784 11.913
13.7936 12.030
13.8088 12.388
13.8239 12.376
13.8391 12.165
13.8543 12.193
13.8695 12.104
13.8846 12.356
13.8998 12.515
13.9150 12.349
13.9302 12.073
13.9453 12.224
13.9605 12.184
13.9757 11.928
13.9909 11.704
14.0060 11.896
14.0212 12.003
14.0364 11.752
14.0516 11.805
14.0667 11.810
14.0819 11.214
14.0971 11.415
14.1123 11.990
14.1274 11.729
14.1426 11.660
14.1578 11.666
14.1730 11.451
14.1881 11.511
14.2033 11.749
14.2185 11.925
14.2337 11.835
14.2488 11.678
14.2640 11.621
14.2792 11.861
14.2944 11.748
14.3095 12.215
14.3247 12.475
14.3399 12.444
14.3551 12.433
14.3702 12.370
14.3854 12.914
14.4006 13.054
14.4158 13.018
14.4309 12.796
14.4461 12.529
14.4613 12.348
14.4765 12.414
14.4916 11.944
14.5068 11.961
14.5220 11.849
14.5372 11.709
14.5523 11.348
14.5675 10.839
14.5827 11.310
14.5979 11.154
14.6130 10.797
14.6282 10.577
14.6434 10.715
14.6586 10.939
14.6737 10.753
14.6889 10.786
14.7041 10.615
14.7193 10.623
14.7344 10.756
14.7496 10.671
14.7648 10.523
14.7800 10.532
14.7951 10.304
14.8103 10.415
14.8255 10.318
14.8407 10.699
14.8558 10.690
14.8710 10.485
14.8862 10.472
14.9014 10.395
14.9165 10.833
14.9317 10.711
14.9469 10.333
14.9621 10.352
14.9772 10.201
14.9924 10.283
15.0076 10.075
15.0228 10.517
15.0379 10.249
15.0531 10.329
15.0683 10.175
15.0835 10.061
15.0986 10.210
15.1138 10.373
15.1290 10.253
15.1442 10.126
15.1593 10.269
15.1745 10.369
15.1897 9.900
15.2049 10.060
15.2200 10.219
15.2352 10.180
15.2504 10.378
15.2656 10.025
15.2807 9.845
15.2959 10.223
15.3111 9.970
15.3263 9.854
15.3414 10.088
15.3566 10.037
15.3718 10.195
15.3870 9.853
15.4021 9.807
15.4173 9.852
15.4325 10.276
15.4477 9.952
15.4628 9.810
15.4780 9.803
15.4932 9.847
15.5084 9.773
15.5235 9.833
15.5387 9.801
15.5539 9.584
15.5691 9.686
15.5842 9.614
15.5994 10.019
15.6146 9.881
15.6298 9.438
15.6449 9.551
15.6601 9.459
15.6753 9.787
15.6905 9.704
15.7056 9.355
15.7208 9.645
15.7360 9.797
15.7512 9.366
15.7663 9.551
15.7815 9.781
15.7967 9.788
15.8119 9.915
15.8270 9.552
15.8422 9.540
15.8574 9.556
15.8726 9.516
15.8877 9.393
15.9029 9.376
15.9181 9.465
15.9333 9.604
15.9484 9.764
15.9636 9.474
15.9788 9.604
15.9940 9.568
16.0091 9.918
16.0243 9.761
16.0395 9.662
16.0547 9.514
16.0698 9.791
16.0850 9.891
16.1002 9.775
16.1154 9.507
16.1305 9.513
16.1457 9.619
16.1609 9.743
16.1761 9.428
16.1912 9.608
16.2064 9.777
16.2216 9.805
16.2368 9.650
16.2519 9.525
16.2671 9.718
16.2823 9.763
16.2975 9.515
16.3126 9.876
16.3278 9.901
16.3430 9.956
16.3582 10.144
16.3733 9.769
16.3885 9.645
16.4037 9.935
16.4189 9.783
16.4340 9.598
16.4492 9.681
16.4644 9.515
16.4796 9.530
16.4947 9.526
16.5099 9.824
16.5251 9.787
16.5403 9.496
16.5554 9.676
16.5706 9.675
16.5858 9.623
16.6010 9.681
16.6161 9.599
16.6313 9.629
16.6465 9.676
16.6617 9.660
16.6768 9.553
16.6920 9.652
16.7072 9.768
16.7224 9.783
16.7375 9.833
16.7527 9.781
16.7679 9.583
16.7831 9.674
16.7982 9.761
16.8134 9.721
16.8286 9.787
16.8438 9.612
16.8589 9.641
16.8741 9.711
16.8893 9.649
16.9045 9.756
16.9196 9.854
16.9348 9.638
16.9500 9.591
16.9652 9.677
16.9803 9.811
16.9955 10.091
17.0107 10.023
17.0259 9.930
17.0410 9.984
17.0562 9.960
17.0714 10.039
17.0866 10.118
17.1017 10.129
17.1169 10.684
17.1321 11.223
17.1473 11.373
17.1624 11.780
17.1776 12.371
17.1928 13.102
17.2080 13.984
17.2231 14.894
17.2383 15.928
17.2535 17.487
17.2687 18.653
17.2838 18.661
17.2990 18.101
17.3142 16.999
17.3294 16.121
17.3445 16.174
17.3597 16.132
17.3749 15.730
17.3901 15.011
17.4052 14.025
17.4204 13.132
17.4356 12.508
17.4508 12.048
17.4659 11.769
17.4811 11.681
17.4963 11.519
17.5115 11.441
17.5266 11.162
17.5418 10.988
17.5570 11.055
17.5722 11.056
17.5873 10.888
17.6025 10.789
17.6177 11.103
17.6329 11.238
17.6480 11.309
17.6632 11.509
17.6784 11.447
17.6936 11.353
17.7087 11.280
17.7239 11.096
17.7391 11.098
17.7543 11.135
17.7694 10.871
17.7846 10.852
17.7998 10.805
17.8150 10.652
17.8301 10.546
17.8453 10.418
17.8605 10.307
17.8757 10.279
17.8908 10.293
17.9060 10.276
17.9212 10.181
17.9364 10.022
17.9515 9.995
17.9667 10.052
17.9819 10.073
17.9971 10.176
18.0122 10.325
18.0274 10.144
18.0426 10.150
18.0578 10.161
18.0729 10.112
18.0881 9.966
18.1033 9.928
18.1185 10.000
18.1336 10.099
18.1488 10.074
18.1640 10.069
18.1792 9.894
18.1943 9.711
18.2095 9.803
18.2247 9.959
18.2399 9.626
18.2550 9.894
18.2702 9.944
18.2854 9.646
18.3006 9.868
18.3157 9.777
18.3309 9.699
18.3461 9.879
18.3613 9.970
18.3764 10.040
18.3916 9.889
18.4068 9.688
18.4220 9.616
18.4371 9.662
18.4523 9.872
18.4675 9.750
18.4827 9.667
18.4978 9.888
18.5130 9.820
18.5282 9.806
18.5434 9.948
18.5585 9.934
18.5737 9.916
18.5889 9.760
18.6041 9.831
18.6192 9.760
18.6344 9.685
18.6496 9.775
18.6648 9.900
18.6799 9.918
18.6951 9.909
18.7103 9.952
18.7255 9.619
18.7406 9.580
18.7558 9.890
18.7710 10.071
18.7862 9.944
18.8013 9.650
18.8165 9.469
18.8317 9.567
18.8469 9.686
18.8620 9.664
18.8772 9.889
18.8924 10.027
18.9076 9.885
18.9227 9.906
18.9379 9.913
18.9531 9.841
18.9683 9.895
18.9834 9.854
18.9986 9.906
19.0138 9.974
19.0290 10.104
19.0441 10.222
19.0593 10.312
19.0745 10.247
19.0897 10.099
19.1048 10.279
19.1200 10.406
19.1352 10.624
19.1504 10.652
19.1655 10.449
19.1807 10.645
19.1959 10.710
19.2111 10.601
19.2262 10.661
19.2414 10.886
19.2566 10.824
19.2718 10.864
19.2869 11.104
19.3021 10.986
19.3173 11.026
19.3325 11.041
19.3476 11.008
19.3628 11.164
19.3780 11.147
19.3932 11.071
19.4083 11.058
19.4235 11.313
19.4387 11.324
19.4539 11.132
19.4690 11.326
19.4842 11.424
19.4994 11.517
19.5146 11.457
19.5297 11.616
19.5449 11.815
19.5601 11.734
19.5753 11.607
19.5904 11.598
19.6056 11.509
19.6208 11.426
19.6360 11.480
19.6511 11.589
19.6663 11.823
19.6815 11.916
19.6967 11.999
19.7118 12.071
19.7270 12.016
19.7422 12.033
19.7574 11.956
19.7725 11.870
19.7877 12.030
19.8029 12.183
19.8180 12.186
19.8332 12.208
19.8484 12.320
19.8636 12.379
19.8787 12.781
19.8939 12.915
19.9091 13.052
19.9243 13.704
19.9394 14.040
19.9546 14.193
19.9698 14.562
19.9850 14.663
20.0001 14.410
20.0153 14.266
20.0305 14.200
20.0457 14.001
20.0608 13.731
20.0760 13.695
20.0912 13.646
20.1064 13.665
20.1215 13.664
20.1367 13.521
20.1519 13.342
20.1671 13.268
20.1822 12.944
20.1974 12.861
20.2126 13.168
20.2278 13.087
20.2429 12.950
20.2581 12.668
20.2733 12.462
20.2885 12.343
20.3036 12.094
20.3188 12.032
20.3340 12.028
20.3492 12.050
20.3643 12.080
20.3795 11.990
20.3947 11.910
20.4099 11.813
20.4250 11.854
20.4402 11.844
20.4554 12.066
20.4706 11.890
20.4857 11.552
20.5009 11.553
20.5161 11.731
20.5313 11.215
20.5464 11.472
20.5616 11.354
20.5768 11.424
20.5920 11.423
20.6071 10.851
20.6223 11.087
20.6375 11.151
20.6527 10.668
20.6678 10.966
20.6830 10.698
20.6982 10.645
20.7134 10.755
20.7285 10.684
20.7437 10.928
20.7589 10.773
20.7741 10.523
20.7892 10.682
20.8044 10.317
20.8196 10.283
20.8348 10.461
20.8499 10.208
20.8651 10.275
20.8803 10.315
20.8955 10.187
20.9106 10.263
20.9258 10.443
20.9410 10.229
20.9562 10.450
20.9713 10.077
20.9865 10.263
21.0017 10.260
21.0169 9.731
21.0320 9.886
21.0472 10.329
21.0624 9.794
21.0776 9.974
21.0927 9.757
21.1079 9.610
21.1231 10.018
21.1383 10.211
21.1534 9.609
21.1686 10.043
21.1838 9.824
21.1990 9.913
21.2141 9.630
21.2293 9.538
21.2445 9.778
21.2597 9.969
21.2748 9.899
21.2900 9.667
21.3052 10.044
21.3204 9.733
21.3355 9.802
21.3507 9.645
21.3659 9.521
21.3811 9.897
21.3962 9.407
21.4114 9.337
21.4266 9.365
21.4418 9.362
21.4569 9.535
21.4721 9.317
21.4873 9.373
21.5025 9.368
21.5176 9.050
21.5328 9.499
21.5480 9.297
21.5632 9.115
21.5783 9.120
21.5935 9.194
21.6087 9.149
21.6239 9.068
21.6390 9.053
21.6542 9.321
21.6694 9.020
21.6846 9.332
21.6997 9.216
21.7149 9.025
21.7301 8.949
21.7453 8.882
21.7604 9.115
21.7756 9.049
21.7908 9.220
21.8060 9.243
21.8211 9.015
21.8363 8.884
21.8515 8.967
21.8667 9.122
21.8818 9.133
21.8970 9.079
21.9122 9.156
21.9274 9.265
21.9425 9.129
21.9577 8.951
21.9729 9.088
21.9881 8.906
22.0032 8.626
22.0184 8.696
22.0336 8.780
22.0488 8.692
22.0639 8.729
22.0791 8.740
22.0943 8.753
22.1095 8.626
22.1246 8.596
22.1398 8.664
22.1550 8.553
22.1702 8.556
22.1853 8.749
22.2005 8.823
22.2157 8.569
22.2309 8.362
22.2460 8.405
22.2612 8.749
22.2764 8.513
22.2916 8.636
22.3067 8.601
22.3219 8.518
22.3371 8.540
22.3523 8.464
22.3674 8.651
22.3826 8.578
22.3978 8.602
22.4130 8.605
22.4281 8.320
22.4433 8.522
22.4585 8.311
22.4737 8.476
22.4888 8.428
22.5040 8.327
22.5192 8.615
22.5344 8.241
22.5495 8.479
22.5647 8.381
22.5799 8.853
22.5951 8.263
22.6102 8.482
22.6254 8.043
22.6406 8.169
22.6558 8.508
22.6709 8.084
22.6861 8.511
22.7013 8.230
22.7165 7.868
22.7316 6.537
