'Id: "" Comment: "" Operator: "Lab Manager" Anode: "Mo" Scantype: "Still (Eiger2R_500K (1D mode))" TimePerStep: "300" X: "11.8" Y: "9.4" Z: "11.284" 
7.2532 18.674
7.2684 19.254
7.2836 19.179
7.2987 19.281
7.3139 19.275
7.3291 19.507
7.3443 19.707
7.3594 19.784
7.3746 19.095
7.3898 19.931
7.4050 19.638
7.4201 19.742
7.4353 19.690
7.4505 19.793
7.4657 19.763
7.4808 19.944
7.4960 19.645
7.5112 19.885
7.5264 20.058
7.5415 20.364
7.5567 20.205
7.5719 19.798
7.5871 19.750
7.6022 20.175
7.6174 19.908
7.6326 20.108
7.6478 20.243
7.6629 20.145
7.6781 20.237
7.6933 20.420
7.7085 20.479
7.7236 20.605
7.7388 20.518
7.7540 20.841
7.7692 20.697
7.7843 20.702
7.7995 20.784
7.8147 20.765
7.8299 20.981
7.8450 20.774
7.8602 20.462
7.8754 20.613
7.8905 21.090
7.9057 21.229
7.9209 21.013
7.9361 21.129
7.9512 21.195
7.9664 20.884
7.9816 21.020
7.9968 21.015
8.0119 20.984
8.0271 21.309
8.0423 21.286
8.0575 21.322
8.0726 21.351
8.0878 21.409
8.1030 21.513
8.1182 21.210
8.1333 21.525
8.1485 21.970
8.1637 21.997
8.1789 21.891
8.1940 21.886
8.2092 21.743
8.2244 21.598
8.2396 21.286
8.2547 21.802
8.2699 21.893
8.2851 21.760
8.3003 21.642
8.3154 21.650
8.3306 22.177
8.3458 22.076
8.3610 21.868
8.3761 21.917
8.3913 22.104
8.4065 22.039
8.4217 22.423
8.4368 21.962
8.4520 22.297
8.4672 21.863
8.4824 21.915
8.4975 22.282
8.5127 22.113
8.5279 22.188
8.5431 22.114
8.5582 22.191
8.5734 22.421
8.5886 22.336
8.6038 22.056
8.6189 22.541
8.6341 22.243
8.6493 22.682
8.6645 22.375
8.6796 22.445
8.6948 22.403
8.7100 22.570
8.7252 22.451
8.7403 22.984
8.7555 23.076
8.7707 22.517
8.7859 22.746
8.8010 22.288
8.8162 22.658
8.8314 22.580
8.8466 22.649
8.8617 22.500
8.8769 22.615
8.8921 22.454
8.9073 22.231
8.9224 22.168
8.9376 22.389
8.9528 22.786
8.9680 22.891
8.9831 22.570
8.9983 22.844
9.0135 22.413
9.0287 22.528
9.0438 23.012
9.0590 23.287
9.0742 23.333
9.0894 22.983
9.1045 22.848
9.1197 22.811
9.1349 22.910
9.1501 23.044
9.1652 23.080
9.1804 22.499
9.1956 22.679
9.2108 22.776
9.2259 22.757
9.2411 23.012
9.2563 22.910
9.2715 22.816
9.2866 23.032
9.3018 23.009
9.3170 22.910
9.3322 23.145
9.3473 23.415
9.3625 23.091
9.3777 23.105
9.3929 23.064
9.4080 23.160
9.4232 23.063
9.4384 23.234
9.4536 23.300
9.4687 23.123
9.4839 23.220
9.4991 23.120
9.5143 23.412
9.5294 23.490
9.5446 22.945
9.5598 22.829
9.5750 23.331
9.5901 23.485
9.6053 23.446
9.6205 23.311
9.6357 23.339
9.6508 23.399
9.6660 23.253
9.6812 23.695
9.6964 24.242
9.7115 24.603
9.7267 24.442
9.7419 24.126
9.7571 23.921
9.7722 23.695
9.7874 24.067
9.8026 24.466
9.8178 24.669
9.8329 24.461
9.8481 24.077
9.8633 23.871
9.8785 23.946
9.8936 23.894
9.9088 24.141
9.9240 24.622
9.9392 24.591
9.9543 24.264
9.9695 24.113
9.9847 24.048
9.9999 23.866
10.0150 23.667
10.0302 23.548
10.0454 23.581
10.0606 23.559
10.0757 23.344
10.0909 23.684
10.1061 23.779
10.1213 23.630
10.1364 23.544
10.1516 23.459
10.1668 23.578
10.1820 23.525
10.1971 23.681
10.2123 23.886
10.2275 24.522
10.2427 24.102
10.2578 23.790
10.2730 23.592
10.2882 23.781
10.3034 23.863
10.3185 23.604
10.3337 23.401
10.3489 23.621
10.3641 23.702
10.3792 23.557
10.3944 23.409
10.4096 23.576
10.4248 23.464
10.4399 22.929
10.4551 22.969
10.4703 23.216
10.4855 22.950
10.5006 22.663
10.5158 22.668
10.5310 22.815
10.5462 23.211
10.5613 23.208
10.5765 22.807
10.5917 22.362
10.6069 22.753
10.6220 22.914
10.6372 22.904
10.6524 22.681
10.6676 22.482
10.6827 22.462
10.6979 22.549
10.7131 22.190
10.7283 22.163
10.7434 22.498
10.7586 22.395
10.7738 22.540
10.7890 22.620
10.8041 22.123
10.8193 22.131
10.8345 22.171
10.8497 22.173
10.8648 22.092
10.8800 22.197
10.8952 22.347
10.9104 22.362
10.9255 22.180
10.9407 22.359
10.9559 22.387
10.9711 22.324
10.9862 22.208
11.0014 22.205
11.0166 21.989
11.0318 22.374
11.0469 22.239
11.0621 22.274
11.0773 22.413
11.0925 21.976
11.1076 21.767
11.1228 21.940
11.1380 22.117
11.1532 21.871
11.1683 22.005
11.1835 21.577
11.1987 21.680
11.2139 21.549
11.2290 21.460
11.2442 21.827
11.2594 21.657
11.2746 21.684
11.2897 21.571
11.3049 21.719
11.3201 22.057
11.3353 21.536
11.3504 21.354
11.3656 21.346
11.3808 21.511
11.3960 21.633
11.4111 21.510
11.4263 21.161
11.4415 21.654
11.4567 21.660
11.4718 21.153
11.4870 21.298
11.5022 21.150
11.5174 21.034
11.5325 21.374
11.5477 21.262
11.5629 21.387
11.5781 21.171
11.5932 20.928
11.6084 20.941
11.6236 21.330
11.6388 21.226
11.6539 20.909
11.6691 20.632
11.6843 20.610
11.6995 20.492
11.7146 20.461
11.7298 20.472
11.7450 20.307
11.7602 20.434
11.7753 20.509
11.7905 20.272
11.8057 20.341
11.8209 20.342
11.8360 19.755
11.8512 19.833
11.8664 19.823
11.8816 19.712
11.8967 19.735
11.9119 19.568
11.9271 19.449
11.9423 19.479
11.9574 19.838
11.9726 19.638
11.9878 19.171
12.0030 19.370
12.0181 19.505
12.0333 19.433
12.0485 18.970
12.0637 18.365
12.0788 18.751
12.0940 18.909
12.1092 18.744
12.1244 18.459
12.1395 18.298
12.1547 18.437
12.1699 18.583
12.1851 18.312
12.2002 18.167
12.2154 18.241
12.2306 18.170
12.2458 17.997
12.2609 17.921
12.2761 17.872
12.2913 17.757
12.3065 17.618
12.3216 17.624
12.3368 17.597
12.3520 17.434
12.3672 17.400
12.3823 17.515
12.3975 16.982
12.4127 16.909
12.4279 17.154
12.4430 17.045
12.4582 16.774
12.4734 16.762
12.4886 16.516
12.5037 16.344
12.5189 16.504
12.5341 16.576
12.5493 16.383
12.5644 16.262
12.5796 16.141
12.5948 16.310
12.6100 16.355
12.6251 16.092
12.6403 15.768
12.6555 15.577
12.6707 15.661
12.6858 15.641
12.7010 15.648
12.7162 15.694
12.7314 15.554
12.7465 15.235
12.7617 15.293
12.7769 15.178
12.7921 14.933
12.8072 14.811
12.8224 14.718
12.8376 14.800
12.8528 14.909
12.8679 14.875
12.8831 14.604
12.8983 14.472
12.9135 14.637
12.9286 14.639
12.9438 14.458
12.9590 14.534
12.9742 14.675
12.9893 14.430
13.0045 14.375
13.0197 14.309
13.0349 14.213
13.0500 14.070
13.0652 13.898
13.0804 13.730
13.0956 13.859
13.1107 13.977
13.1259 13.725
13.1411 13.657
13.1563 13.540
13.1714 13.489
13.1866 13.376
13.2018 13.304
13.2170 13.394
13.2321 13.074
13.2473 13.231
13.2625 13.464
13.2777 13.228
13.2928 13.312
13.3080 13.153
13.3232 13.015
13.3384 12.971
13.3535 13.025
13.3687 13.120
13.3839 12.775
13.3991 12.822
13.4142 13.127
13.4294 12.904
13.4446 12.725
13.4598 12.650
13.4749 12.816
13.4901 12.763
13.5053 12.435
13.5205 12.471
13.5356 12.381
13.5508 12.264
13.5660 12.233
13.5812 12.343
13.5963 12.168
13.6115 12.037
13.6267 12.027
13.6419 12.129
13.6570 12.024
13.6722 11.899
13.6874 11.835
13.7026 11.907
13.7177 12.088
13.7329 11.922
13.7481 12.121
13.7633 11.960
13.7784 11.723
13.7936 11.930
13.8088 12.071
13.8239 12.044
13.8391 12.236
13.8543 12.201
13.8695 12.250
13.8846 12.172
13.8998 12.288
13.9150 12.265
13.9302 12.126
13.9453 12.127
13.9605 11.937
13.9757 11.695
13.9909 11.285
14.0060 11.487
14.0212 11.558
14.0364 11.581
14.0516 11.458
14.0667 11.321
14.0819 11.129
14.0971 11.093
14.1123 11.206
14.1274 11.092
14.1426 11.390
14.1578 11.251
14.1730 11.122
14.1881 11.349
14.2033 11.345
14.2185 11.422
14.2337 11.456
14.2488 11.426
14.2640 11.649
14.2792 11.272
14.2944 11.236
14.3095 11.739
14.3247 11.707
14.3399 11.888
14.3551 12.096
14.3702 12.043
14.3854 12.588
14.4006 13.317
14.4158 13.596
14.4309 13.498
14.4461 13.653
14.4613 13.298
14.4765 13.088
14.4916 13.338
14.5068 13.707
14.5220 13.532
14.5372 13.200
14.5523 13.125
14.5675 12.714
14.5827 12.492
14.5979 12.060
14.6130 12.387
14.6282 11.965
14.6434 12.099
14.6586 11.826
14.6737 11.537
14.6889 11.131
14.7041 11.357
14.7193 11.482
14.7344 11.545
14.7496 11.560
14.7648 11.372
14.7800 11.084
14.7951 11.607
14.8103 11.358
14.8255 11.229
14.8407 11.041
14.8558 11.410
14.8710 11.182
14.8862 10.895
14.9014 11.049
14.9165 11.258
14.9317 11.123
14.9469 10.767
14.9621 10.717
14.9772 10.694
14.9924 10.841
15.0076 10.481
15.0228 10.734
15.0379 10.802
15.0531 10.723
15.0683 10.656
15.0835 10.295
15.0986 10.510
15.1138 10.550
15.1290 10.622
15.1442 10.676
15.1593 10.581
15.1745 10.718
15.1897 10.397
15.2049 10.328
15.2200 10.402
15.2352 10.796
15.2504 10.432
15.2656 10.403
15.2807 10.541
15.2959 10.501
15.3111 10.486
15.3263 10.263
15.3414 10.344
15.3566 10.309
15.3718 10.331
15.3870 10.548
15.4021 10.484
15.4173 10.478
15.4325 10.271
15.4477 10.374
15.4628 10.387
15.4780 10.637
15.4932 10.065
15.5084 10.138
15.5235 10.271
15.5387 10.392
15.5539 10.480
15.5691 10.138
15.5842 10.165
15.5994 10.373
15.6146 10.132
15.6298 10.202
15.6449 10.363
15.6601 10.022
15.6753 10.286
15.6905 10.344
15.7056 10.210
15.7208 10.069
15.7360 9.950
15.7512 9.974
15.7663 10.011
15.7815 9.969
15.7967 10.120
15.8119 9.748
15.8270 10.090
15.8422 9.983
15.8574 9.799
15.8726 10.126
15.8877 9.707
15.9029 9.657
15.9181 9.478
15.9333 9.786
15.9484 9.939
15.9636 9.741
15.9788 9.756
15.9940 9.917
16.0091 9.770
16.0243 9.974
16.0395 9.937
16.0547 9.818
16.0698 10.071
16.0850 9.754
16.1002 9.875
16.1154 9.801
16.1305 9.771
16.1457 9.651
16.1609 9.580
16.1761 9.573
16.1912 9.754
16.2064 9.898
16.2216 9.946
16.2368 10.100
16.2519 9.870
16.2671 9.732
16.2823 10.273
16.2975 10.298
16.3126 10.107
16.3278 10.485
16.3430 10.278
16.3582 10.053
16.3733 10.118
16.3885 10.333
16.4037 10.324
16.4189 10.018
16.4340 10.046
16.4492 9.964
16.4644 9.867
16.4796 9.776
16.4947 10.066
16.5099 10.106
16.5251 10.104
16.5403 10.074
16.5554 9.748
16.5706 9.847
16.5858 10.021
16.6010 10.121
16.6161 10.089
16.6313 10.074
16.6465 9.923
16.6617 10.062
16.6768 9.782
16.6920 9.840
16.7072 10.091
16.7224 10.143
16.7375 9.917
16.7527 10.084
16.7679 9.780
16.7831 9.955
16.7982 10.023
16.8134 9.946
16.8286 9.992
16.8438 9.884
16.8589 10.135
16.8741 10.097
16.8893 9.720
16.9045 9.626
16.9196 9.669
16.9348 9.971
16.9500 10.151
16.9652 9.908
16.9803 9.671
16.9955 9.907
17.0107 10.110
17.0259 10.237
17.0410 10.248
17.0562 10.123
17.0714 10.200
17.0866 10.387
17.1017 10.569
17.1169 10.660
17.1321 11.136
17.1473 11.604
17.1624 11.772
17.1776 12.128
17.1928 13.014
17.2080 13.953
17.2231 14.889
17.2383 16.021
17.2535 17.419
17.2687 18.536
17.2838 18.819
17.2990 17.972
17.3142 16.750
17.3294 15.974
17.3445 15.926
17.3597 16.067
17.3749 16.001
17.3901 15.543
17.4052 14.234
17.4204 13.003
17.4356 12.400
17.4508 11.915
17.4659 11.538
17.4811 11.240
17.4963 10.914
17.5115 10.714
17.5266 10.497
17.5418 10.348
17.5570 10.288
17.5722 10.297
17.5873 10.380
17.6025 10.755
17.6177 10.658
17.6329 10.264
17.6480 10.290
17.6632 10.310
17.6784 10.214
17.6936 10.266
17.7087 10.390
17.7239 10.488
17.7391 10.575
17.7543 10.699
17.7694 10.870
17.7846 11.210
17.7998 11.464
17.8150 11.687
17.8301 12.074
17.8453 12.247
17.8605 12.509
17.8757 12.616
17.8908 12.517
17.9060 12.653
17.9212 12.413
17.9364 11.754
17.9515 11.658
17.9667 11.610
17.9819 11.637
17.9971 11.376
18.0122 11.164
18.0274 10.948
18.0426 10.800
18.0578 10.635
18.0729 10.681
18.0881 10.422
18.1033 10.046
18.1185 10.042
18.1336 10.166
18.1488 10.119
18.1640 10.153
18.1792 10.153
18.1943 10.009
18.2095 10.116
18.2247 10.266
18.2399 10.034
18.2550 9.899
18.2702 10.059
18.2854 10.113
18.3006 10.173
18.3157 10.100
18.3309 10.232
18.3461 10.081
18.3613 9.828
18.3764 9.986
18.3916 10.056
18.4068 9.844
18.4220 9.800
18.4371 9.869
18.4523 9.705
18.4675 9.536
18.4827 9.622
18.4978 9.863
18.5130 9.951
18.5282 9.871
18.5434 9.843
18.5585 9.808
18.5737 10.023
18.5889 10.082
18.6041 9.947
18.6192 9.632
18.6344 9.616
18.6496 9.779
18.6648 9.957
18.6799 9.924
18.6951 9.730
18.7103 9.783
18.7255 9.802
18.7406 9.870
18.7558 9.884
18.7710 10.078
18.7862 9.988
18.8013 9.653
18.8165 9.656
18.8317 10.173
18.8469 10.172
18.8620 9.874
18.8772 9.838
18.8924 9.978
18.9076 9.916
18.9227 10.107
18.9379 10.193
18.9531 10.049
18.9683 10.066
18.9834 10.032
18.9986 9.965
19.0138 10.118
19.0290 10.389
19.0441 10.361
19.0593 10.280
19.0745 10.316
19.0897 10.314
19.1048 10.300
19.1200 10.523
19.1352 10.425
19.1504 10.542
19.1655 10.847
19.1807 10.768
19.1959 10.629
19.2111 10.635
19.2262 10.687
19.2414 10.841
19.2566 10.913
19.2718 10.875
19.2869 11.057
19.3021 11.041
19.3173 11.073
19.3325 11.280
19.3476 11.208
19.3628 11.168
19.3780 11.116
19.3932 11.111
19.4083 11.177
19.4235 11.240
19.4387 11.482
19.4539 11.511
19.4690 11.365
19.4842 11.234
19.4994 11.267
19.5146 11.274
19.5297 11.276
19.5449 11.512
19.5601 11.656
19.5753 11.848
19.5904 11.652
19.6056 11.285
19.6208 11.391
19.6360 11.803
19.6511 11.766
19.6663 11.542
19.6815 11.662
19.6967 11.579
19.7118 11.327
19.7270 11.587
19.7422 11.740
19.7574 11.671
19.7725 11.727
19.7877 11.684
19.8029 11.755
19.8180 11.750
19.8332 12.009
19.8484 12.193
19.8636 12.211
19.8787 12.560
19.8939 12.931
19.9091 13.107
19.9243 13.155
19.9394 13.504
19.9546 13.867
19.9698 14.249
19.9850 14.653
20.0001 14.483
20.0153 14.345
20.0305 14.257
20.0457 14.085
20.0608 14.157
20.0760 13.881
20.0912 13.659
20.1064 13.944
20.1215 13.687
20.1367 13.090
20.1519 12.984
20.1671 12.801
20.1822 12.559
20.1974 12.746
20.2126 12.748
20.2278 12.677
20.2429 12.583
20.2581 12.242
20.2733 11.905
20.2885 11.718
20.3036 11.370
20.3188 11.386
20.3340 11.563
20.3492 11.636
20.3643 11.413
20.3795 11.518
20.3947 11.374
20.4099 11.283
20.4250 10.875
20.4402 10.749
20.4554 10.703
20.4706 10.797
20.4857 10.962
20.5009 11.010
20.5161 10.743
20.5313 10.625
20.5464 10.961
20.5616 10.811
20.5768 10.775
20.5920 10.997
20.6071 11.106
20.6223 11.109
20.6375 10.843
20.6527 10.691
20.6678 10.919
20.6830 10.767
20.6982 10.426
20.7134 10.731
20.7285 10.880
20.7437 10.795
20.7589 10.441
20.7741 10.506
20.7892 10.847
20.8044 10.786
20.8196 10.743
20.8348 10.649
20.8499 10.497
20.8651 10.318
20.8803 10.430
20.8955 10.668
20.9106 10.508
20.9258 10.759
20.9410 10.857
20.9562 10.554
20.9713 10.721
20.9865 10.692
21.0017 10.600
21.0169 10.604
21.0320 10.624
21.0472 10.350
21.0624 10.553
21.0776 10.387
21.0927 10.304
21.1079 9.927
21.1231 10.202
21.1383 9.847
21.1534 9.862
21.1686 9.681
21.1838 10.496
21.1990 9.568
21.2141 9.412
21.2293 9.711
21.2445 10.115
21.2597 9.803
21.2748 9.635
21.2900 9.496
21.3052 9.685
21.3204 9.753
21.3355 9.526
21.3507 9.422
21.3659 9.491
21.3811 9.546
21.3962 9.515
21.4114 9.405
21.4266 9.650
21.4418 9.687
21.4569 9.495
21.4721 9.537
21.4873 9.207
21.5025 9.448
21.5176 9.482
21.5328 9.597
21.5480 9.426
21.5632 9.202
21.5783 9.402
21.5935 9.326
21.6087 9.532
21.6239 9.307
21.6390 8.962
21.6542 9.098
21.6694 9.075
21.6846 9.148
21.6997 9.230
21.7149 9.238
21.7301 8.903
21.7453 8.899
21.7604 9.266
21.7756 9.183
21.7908 9.322
21.8060 9.089
21.8211 9.040
21.8363 8.923
21.8515 9.112
21.8667 9.152
21.8818 8.949
21.8970 8.779
21.9122 8.802
21.9274 8.977
21.9425 9.021
21.9577 9.031
21.9729 8.874
21.9881 8.645
22.0032 8.682
22.0184 8.866
22.0336 8.855
22.0488 8.692
22.0639 8.590
22.0791 8.639
22.0943 8.884
22.1095 8.939
22.1246 8.756
22.1398 8.944
22.1550 8.816
22.1702 8.726
22.1853 8.712
22.2005 8.484
22.2157 8.556
22.2309 8.569
22.2460 8.493
22.2612 8.579
22.2764 8.350
22.2916 8.521
22.3067 8.381
22.3219 8.310
22.3371 8.556
22.3523 8.569
22.3674 8.612
22.3826 8.694
22.3978 8.573
22.4130 8.640
22.4281 8.606
22.4433 8.546
22.4585 8.432
22.4737 8.292
22.4888 8.690
22.5040 8.224
22.5192 8.665
22.5344 8.340
22.5495 8.506
22.5647 8.115
22.5799 8.361
22.5951 8.499
22.6102 8.436
22.6254 8.537
22.6406 8.679
22.6558 8.604
22.6709 8.454
22.6861 8.235
22.7013 8.383
22.7165 8.090
22.7316 6.412
