'Id: "" Comment: "" Operator: "Lab Manager" Anode: "Mo" Scantype: "Still (Eiger2R_500K (1D mode))" TimePerStep: "300" X: "11.8" Y: "9.4" Z: "11.284" 
7.2532 18.566
7.2684 19.036
7.2836 18.854
7.2987 19.122
7.3139 18.848
7.3291 18.802
7.3443 19.013
7.3594 18.995
7.3746 19.031
7.3898 19.501
7.4050 19.532
7.4201 19.614
7.4353 19.112
7.4505 19.386
7.4657 19.879
7.4808 19.757
7.4960 19.614
7.5112 19.682
7.5264 19.761
7.5415 20.130
7.5567 19.834
7.5719 19.837
7.5871 19.828
7.6022 19.841
7.6174 19.976
7.6326 20.165
7.6478 20.023
7.6629 19.958
7.6781 20.054
7.6933 19.872
7.7085 20.164
7.7236 20.191
7.7388 20.153
7.7540 20.154
7.7692 20.463
7.7843 20.496
7.7995 20.293
7.8147 20.715
7.8299 20.609
7.8450 20.482
7.8602 20.658
7.8754 20.831
7.8905 20.782
7.9057 20.689
7.9209 20.727
7.9361 20.882
7.9512 21.138
7.9664 21.127
7.9816 20.922
7.9968 20.835
8.0119 21.152
8.0271 20.970
8.0423 20.803
8.0575 21.139
8.0726 21.205
8.0878 21.007
8.1030 21.184
8.1182 21.228
8.1333 21.047
8.1485 21.483
8.1637 21.302
8.1789 21.396
8.1940 21.741
8.2092 21.657
8.2244 21.473
8.2396 21.604
8.2547 21.319
8.2699 21.427
8.2851 21.428
8.3003 21.454
8.3154 21.511
8.3306 21.779
8.3458 22.380
8.3610 21.566
8.3761 21.611
8.3913 21.873
8.4065 22.157
8.4217 22.080
8.4368 22.246
8.4520 21.934
8.4672 21.915
8.4824 21.781
8.4975 22.154
8.5127 21.823
8.5279 22.154
8.5431 21.916
8.5582 22.260
8.5734 22.001
8.5886 22.437
8.6038 22.456
8.6189 22.672
8.6341 21.715
8.6493 22.704
8.6645 22.379
8.6796 22.324
8.6948 21.801
8.7100 22.137
8.7252 22.253
8.7403 22.048
8.7555 22.195
8.7707 22.374
8.7859 22.434
8.8010 22.316
8.8162 22.141
8.8314 22.502
8.8466 22.337
8.8617 22.002
8.8769 22.259
8.8921 22.386
8.9073 22.209
8.9224 22.260
8.9376 22.377
8.9528 22.492
8.9680 22.621
8.9831 22.279
8.9983 23.042
9.0135 22.444
9.0287 22.617
9.0438 22.490
9.0590 22.607
9.0742 22.781
9.0894 22.688
9.1045 22.777
9.1197 22.678
9.1349 22.799
9.1501 22.870
9.1652 22.790
9.1804 22.736
9.1956 22.568
9.2108 22.622
9.2259 22.890
9.2411 23.011
9.2563 23.312
9.2715 23.225
9.2866 22.863
9.3018 23.247
9.3170 23.156
9.3322 23.207
9.3473 23.010
9.3625 22.566
9.3777 22.732
9.3929 23.133
9.4080 23.071
9.4232 23.067
9.4384 23.094
9.4536 23.076
9.4687 22.859
9.4839 22.925
9.4991 23.227
9.5143 23.232
9.5294 23.394
9.5446 23.284
9.5598 23.072
9.5750 23.290
9.5901 23.346
9.6053 23.230
9.6205 23.155
9.6357 23.128
9.6508 23.264
9.6660 23.350
9.6812 23.514
9.6964 23.671
9.7115 23.709
9.7267 24.000
9.7419 24.105
9.7571 23.952
9.7722 23.849
9.7874 23.671
9.8026 23.715
9.8178 23.644
9.8329 23.277
9.8481 23.280
9.8633 23.361
9.8785 23.368
9.8936 23.173
9.9088 22.937
9.9240 23.412
9.9392 23.347
9.9543 22.843
9.9695 23.239
9.9847 23.366
9.9999 23.268
10.0150 23.650
10.0302 23.534
10.0454 23.045
10.0606 22.953
10.0757 23.228
10.0909 23.408
10.1061 23.243
10.1213 23.571
10.1364 23.759
10.1516 23.649
10.1668 23.714
10.1820 23.499
10.1971 23.372
10.2123 23.084
10.2275 23.135
10.2427 23.213
10.2578 23.094
10.2730 22.777
10.2882 22.630
10.3034 22.800
10.3185 23.070
10.3337 22.800
10.3489 23.006
10.3641 23.493
10.3792 22.877
10.3944 22.632
10.4096 22.521
10.4248 22.913
10.4399 23.029
10.4551 22.502
10.4703 22.505
10.4855 22.522
10.5006 22.425
10.5158 22.531
10.5310 22.680
10.5462 22.490
10.5613 22.500
10.5765 22.693
10.5917 22.682
10.6069 22.753
10.6220 22.492
10.6372 22.547
10.6524 22.664
10.6676 22.564
10.6827 22.600
10.6979 22.579
10.7131 22.341
10.7283 22.567
10.7434 22.669
10.7586 22.288
10.7738 22.240
10.7890 22.093
10.8041 22.405
10.8193 22.577
10.8345 22.314
10.8497 22.211
10.8648 21.993
10.8800 22.346
10.8952 22.192
10.9104 22.002
10.9255 22.061
10.9407 22.294
10.9559 22.146
10.9711 21.823
10.9862 21.991
11.0014 21.765
11.0166 21.835
11.0318 22.370
11.0469 22.319
11.0621 21.904
11.0773 22.244
11.0925 22.030
11.1076 21.420
11.1228 21.466
11.1380 21.599
11.1532 21.807
11.1683 22.018
11.1835 21.764
11.1987 21.406
11.2139 21.578
11.2290 21.927
11.2442 21.981
11.2594 21.796
11.2746 21.850
11.2897 22.031
11.3049 21.382
11.3201 21.397
11.3353 21.486
11.3504 21.225
11.3656 21.324
11.3808 21.603
11.3960 21.413
11.4111 21.122
11.4263 21.150
11.4415 21.379
11.4567 21.115
11.4718 21.227
11.4870 21.224
11.5022 21.117
11.5174 21.177
11.5325 20.986
11.5477 20.910
11.5629 21.323
11.5781 21.005
11.5932 20.777
11.6084 21.055
11.6236 20.612
11.6388 20.588
11.6539 20.465
11.6691 20.569
11.6843 20.524
11.6995 20.441
11.7146 20.488
11.7298 20.532
11.7450 20.335
11.7602 20.319
11.7753 20.358
11.7905 20.318
11.8057 20.431
11.8209 20.240
11.8360 19.958
11.8512 19.843
11.8664 20.009
11.8816 20.175
11.8967 19.704
11.9119 19.506
11.9271 19.533
11.9423 19.313
11.9574 19.018
11.9726 19.052
11.9878 19.255
12.0030 19.201
12.0181 19.108
12.0333 18.918
12.0485 19.056
12.0637 18.610
12.0788 18.478
12.0940 18.711
12.1092 18.809
12.1244 18.669
12.1395 18.566
12.1547 18.535
12.1699 18.563
12.1851 18.174
12.2002 18.359
12.2154 18.444
12.2306 17.993
12.2458 17.954
12.2609 17.955
12.2761 17.913
12.2913 17.604
12.3065 17.493
12.3216 17.553
12.3368 17.366
12.3520 17.576
12.3672 17.398
12.3823 17.580
12.3975 17.187
12.4127 16.920
12.4279 16.811
12.4430 16.890
12.4582 16.760
12.4734 16.696
12.4886 16.654
12.5037 16.546
12.5189 16.681
12.5341 16.443
12.5493 16.502
12.5644 16.424
12.5796 16.102
12.5948 16.076
12.6100 16.008
12.6251 16.284
12.6403 16.321
12.6555 15.911
12.6707 15.830
12.6858 15.651
12.7010 15.669
12.7162 15.797
12.7314 15.423
12.7465 15.115
12.7617 15.412
12.7769 15.223
12.7921 14.955
12.8072 14.967
12.8224 14.827
12.8376 14.951
12.8528 14.947
12.8679 14.803
12.8831 14.796
12.8983 14.691
12.9135 14.574
12.9286 14.642
12.9438 14.688
12.9590 14.648
12.9742 14.440
12.9893 14.374
13.0045 14.342
13.0197 14.153
13.0349 14.032
13.0500 13.965
13.0652 13.899
13.0804 13.951
13.0956 13.904
13.1107 13.874
13.1259 13.835
13.1411 13.843
13.1563 13.740
13.1714 13.698
13.1866 13.759
13.2018 13.479
13.2170 13.439
13.2321 13.266
13.2473 13.328
13.2625 13.584
13.2777 13.278
13.2928 13.061
13.3080 13.006
13.3232 13.138
13.3384 13.110
13.3535 12.902
13.3687 13.039
13.3839 13.065
13.3991 12.960
13.4142 13.021
13.4294 12.872
13.4446 12.784
13.4598 12.913
13.4749 12.675
13.4901 12.534
13.5053 12.456
13.5205 12.532
13.5356 12.573
13.5508 12.348
13.5660 12.122
13.5812 12.259
13.5963 12.280
13.6115 12.341
13.6267 12.359
13.6419 11.962
13.6570 12.029
13.6722 12.240
13.6874 12.178
13.7026 12.097
13.7177 11.996
13.7329 11.953
13.7481 11.906
13.7633 12.012
13.7784 12.117
13.7936 12.296
13.8088 12.320
13.8239 12.144
13.8391 12.319
13.8543 12.504
13.8695 12.381
13.8846 12.446
13.8998 12.321
13.9150 11.977
13.9302 11.629
13.9453 11.884
13.9605 12.061
13.9757 11.864
13.9909 11.670
14.0060 11.851
14.0212 11.909
14.0364 11.624
14.0516 11.574
14.0667 11.421
14.0819 11.556
14.0971 11.709
14.1123 11.522
14.1274 11.338
14.1426 11.323
14.1578 11.503
14.1730 11.703
14.1881 11.624
14.2033 11.320
14.2185 11.405
14.2337 11.570
14.2488 11.696
14.2640 12.200
14.2792 11.832
14.2944 12.014
14.3095 12.011
14.3247 12.278
14.3399 12.315
14.3551 12.606
14.3702 12.887
14.3854 12.755
14.4006 13.606
14.4158 13.848
14.4309 13.570
14.4461 13.295
14.4613 12.863
14.4765 12.677
14.4916 12.795
14.5068 12.285
14.5220 12.139
14.5372 12.162
14.5523 11.552
14.5675 11.246
14.5827 11.173
14.5979 10.988
14.6130 10.845
14.6282 10.553
14.6434 10.757
14.6586 10.691
14.6737 10.935
14.6889 10.649
14.7041 10.491
14.7193 10.512
14.7344 10.534
14.7496 10.907
14.7648 10.609
14.7800 10.758
14.7951 10.533
14.8103 10.518
14.8255 10.587
14.8407 10.451
14.8558 10.185
14.8710 10.696
14.8862 10.354
14.9014 10.380
14.9165 10.416
14.9317 10.528
14.9469 10.382
14.9621 10.513
14.9772 10.328
14.9924 10.253
15.0076 10.332
15.0228 10.357
15.0379 10.428
15.0531 10.699
15.0683 10.555
15.0835 10.325
15.0986 9.935
15.1138 10.232
15.1290 10.699
15.1442 10.532
15.1593 10.293
15.1745 9.893
15.1897 10.312
15.2049 10.265
15.2200 10.217
15.2352 10.146
15.2504 9.950
15.2656 10.139
15.2807 9.904
15.2959 9.943
15.3111 10.121
15.3263 10.167
15.3414 9.957
15.3566 10.001
15.3718 10.154
15.3870 10.147
15.4021 10.431
15.4173 10.204
15.4325 10.499
15.4477 10.254
15.4628 10.066
15.4780 10.073
15.4932 10.133
15.5084 10.130
15.5235 10.202
15.5387 10.369
15.5539 10.219
15.5691 9.987
15.5842 9.743
15.5994 9.600
15.6146 9.645
15.6298 9.838
15.6449 9.887
15.6601 10.086
15.6753 9.683
15.6905 9.525
15.7056 9.364
15.7208 9.688
15.7360 9.662
15.7512 9.743
15.7663 9.867
15.7815 9.709
15.7967 9.567
15.8119 9.719
15.8270 9.602
15.8422 9.708
15.8574 9.638
15.8726 9.697
15.8877 9.588
15.9029 9.308
15.9181 9.600
15.9333 9.502
15.9484 9.689
15.9636 9.525
15.9788 9.370
15.9940 9.502
16.0091 9.687
16.0243 9.705
16.0395 9.476
16.0547 9.215
16.0698 9.870
16.0850 9.600
16.1002 9.716
16.1154 9.653
16.1305 9.385
16.1457 9.554
16.1609 9.509
16.1761 9.569
16.1912 9.534
16.2064 9.835
16.2216 9.861
16.2368 9.898
16.2519 9.807
16.2671 9.630
16.2823 9.802
16.2975 10.022
16.3126 9.802
16.3278 9.654
16.3430 9.718
16.3582 9.945
16.3733 10.014
16.3885 10.131
16.4037 9.941
16.4189 9.434
16.4340 9.553
16.4492 9.715
16.4644 9.714
16.4796 9.563
16.4947 9.658
16.5099 9.569
16.5251 9.804
16.5403 9.731
16.5554 9.777
16.5706 9.637
16.5858 9.454
16.6010 9.483
16.6161 9.596
16.6313 9.732
16.6465 9.760
16.6617 9.659
16.6768 9.754
16.6920 9.867
16.7072 9.898
16.7224 9.932
16.7375 9.870
16.7527 9.895
16.7679 9.912
16.7831 9.838
16.7982 9.727
16.8134 9.796
16.8286 9.974
16.8438 9.825
16.8589 9.738
16.8741 9.791
16.8893 9.864
16.9045 9.818
16.9196 9.582
16.9348 9.625
16.9500 9.608
16.9652 9.648
16.9803 9.695
16.9955 9.886
17.0107 9.820
17.0259 9.692
17.0410 9.910
17.0562 9.991
17.0714 10.016
17.0866 10.338
17.1017 10.505
17.1169 10.607
17.1321 10.955
17.1473 11.284
17.1624 11.531
17.1776 12.136
17.1928 12.853
17.2080 13.811
17.2231 14.913
17.2383 16.160
17.2535 17.451
17.2687 18.246
17.2838 18.594
17.2990 17.907
17.3142 16.797
17.3294 16.200
17.3445 15.791
17.3597 15.867
17.3749 15.950
17.3901 15.042
17.4052 13.812
17.4204 12.971
17.4356 12.341
17.4508 11.949
17.4659 11.580
17.4811 11.334
17.4963 11.192
17.5115 10.933
17.5266 10.827
17.5418 10.864
17.5570 10.823
17.5722 10.744
17.5873 10.903
17.6025 11.146
17.6177 11.134
17.6329 11.016
17.6480 11.170
17.6632 11.634
17.6784 12.058
17.6936 12.136
17.7087 12.167
17.7239 12.115
17.7391 11.976
17.7543 11.638
17.7694 11.383
17.7846 11.363
17.7998 11.465
17.8150 11.434
17.8301 11.205
17.8453 10.859
17.8605 10.653
17.8757 10.602
17.8908 10.615
17.9060 10.402
17.9212 10.258
17.9364 10.164
17.9515 10.084
17.9667 10.096
17.9819 10.002
17.9971 10.299
18.0122 10.437
18.0274 10.261
18.0426 10.175
18.0578 10.014
18.0729 10.043
18.0881 10.041
18.1033 9.974
18.1185 10.202
18.1336 10.011
18.1488 9.668
18.1640 9.761
18.1792 9.924
18.1943 10.099
18.2095 10.041
18.2247 9.663
18.2399 9.880
18.2550 10.074
18.2702 9.962
18.2854 9.958
18.3006 9.782
18.3157 9.721
18.3309 9.940
18.3461 10.004
18.3613 9.722
18.3764 9.953
18.3916 10.097
18.4068 9.878
18.4220 9.882
18.4371 10.012
18.4523 9.802
18.4675 9.530
18.4827 9.640
18.4978 10.048
18.5130 9.812
18.5282 9.647
18.5434 9.767
18.5585 9.828
18.5737 9.992
18.5889 9.764
18.6041 9.566
18.6192 9.673
18.6344 9.733
18.6496 9.788
18.6648 9.701
18.6799 9.765
18.6951 9.849
18.7103 9.721
18.7255 9.652
18.7406 9.653
18.7558 9.816
18.7710 9.759
18.7862 9.658
18.8013 9.695
18.8165 9.822
18.8317 9.846
18.8469 9.878
18.8620 9.831
18.8772 9.989
18.8924 9.950
18.9076 10.001
18.9227 9.900
18.9379 9.972
18.9531 9.945
18.9683 9.995
18.9834 10.186
18.9986 10.188
19.0138 10.066
19.0290 10.297
19.0441 10.117
19.0593 10.035
19.0745 10.061
19.0897 10.151
19.1048 10.237
19.1200 10.109
19.1352 10.133
19.1504 10.277
19.1655 10.391
19.1807 10.338
19.1959 10.632
19.2111 10.868
19.2262 10.813
19.2414 10.673
19.2566 10.724
19.2718 10.930
19.2869 11.018
19.3021 11.089
19.3173 11.076
19.3325 11.064
19.3476 11.108
19.3628 11.131
19.3780 11.296
19.3932 11.320
19.4083 11.165
19.4235 10.901
19.4387 10.934
19.4539 11.163
19.4690 11.388
19.4842 11.361
19.4994 11.321
19.5146 11.162
19.5297 11.294
19.5449 11.709
19.5601 11.599
19.5753 11.665
19.5904 11.845
19.6056 11.646
19.6208 11.447
19.6360 11.491
19.6511 11.612
19.6663 11.766
19.6815 11.819
19.6967 11.721
19.7118 11.753
19.7270 11.913
19.7422 11.888
19.7574 11.715
19.7725 11.808
19.7877 12.012
19.8029 11.930
19.8180 11.699
19.8332 11.852
19.8484 11.987
19.8636 12.281
19.8787 12.775
19.8939 13.034
19.9091 13.086
19.9243 13.407
19.9394 13.785
19.9546 13.956
19.9698 14.287
19.9850 14.626
20.0001 14.477
20.0153 14.189
20.0305 14.001
20.0457 13.748
20.0608 13.834
20.0760 13.815
20.0912 13.495
20.1064 13.532
20.1215 13.722
20.1367 13.480
20.1519 13.182
20.1671 13.013
20.1822 12.950
20.1974 12.903
20.2126 12.817
20.2278 12.602
20.2429 12.364
20.2581 12.273
20.2733 12.346
20.2885 12.372
20.3036 12.068
20.3188 11.960
20.3340 12.052
20.3492 11.805
20.3643 11.790
20.3795 11.571
20.3947 11.638
20.4099 12.098
20.4250 11.955
20.4402 11.819
20.4554 11.805
20.4706 11.858
20.4857 12.115
20.5009 12.145
20.5161 11.935
20.5313 11.734
20.5464 11.649
20.5616 11.487
20.5768 11.564
20.5920 11.427
20.6071 11.392
20.6223 11.070
20.6375 10.835
20.6527 10.992
20.6678 10.836
20.6830 10.701
20.6982 10.769
20.7134 10.759
20.7285 10.618
20.7437 10.600
20.7589 10.671
20.7741 10.419
20.7892 10.549
20.8044 10.408
20.8196 10.339
20.8348 10.223
20.8499 10.281
20.8651 10.371
20.8803 10.107
20.8955 10.028
20.9106 10.214
20.9258 10.101
20.9410 10.197
20.9562 10.073
20.9713 10.286
20.9865 10.166
21.0017 10.133
21.0169 9.670
21.0320 10.096
21.0472 9.691
21.0624 10.035
21.0776 10.123
21.0927 10.049
21.1079 9.787
21.1231 9.753
21.1383 9.833
21.1534 10.021
21.1686 9.670
21.1838 9.591
21.1990 9.791
21.2141 9.492
21.2293 10.002
21.2445 9.611
21.2597 9.793
21.2748 9.362
21.2900 9.457
21.3052 9.517
21.3204 9.287
21.3355 9.277
21.3507 9.545
21.3659 9.589
21.3811 9.631
21.3962 9.356
21.4114 9.094
21.4266 9.075
21.4418 9.242
21.4569 9.539
21.4721 9.736
21.4873 9.289
21.5025 9.244
21.5176 9.330
21.5328 9.571
21.5480 9.133
21.5632 9.412
21.5783 9.520
21.5935 9.372
21.6087 9.479
21.6239 9.255
21.6390 9.264
21.6542 9.169
21.6694 9.286
21.6846 9.405
21.6997 9.371
21.7149 9.166
21.7301 8.985
21.7453 9.104
21.7604 9.140
21.7756 9.030
21.7908 9.034
21.8060 8.821
21.8211 8.934
21.8363 9.168
21.8515 9.037
21.8667 8.990
21.8818 8.948
21.8970 8.934
21.9122 8.931
21.9274 8.773
21.9425 8.913
21.9577 8.890
21.9729 8.676
21.9881 8.759
22.0032 8.857
22.0184 8.888
22.0336 8.827
22.0488 8.745
22.0639 8.745
22.0791 8.765
22.0943 8.525
22.1095 8.429
22.1246 8.617
22.1398 8.864
22.1550 8.974
22.1702 8.655
22.1853 8.620
22.2005 8.805
22.2157 8.660
22.2309 8.583
22.2460 8.579
22.2612 8.550
22.2764 8.388
22.2916 8.487
22.3067 8.467
22.3219 8.461
22.3371 8.316
22.3523 8.429
22.3674 8.479
22.3826 8.672
22.3978 8.390
22.4130 8.478
22.4281 8.500
22.4433 8.491
22.4585 8.808
22.4737 8.503
22.4888 8.476
22.5040 8.402
22.5192 8.602
22.5344 8.192
22.5495 8.230
22.5647 8.607
22.5799 8.289
22.5951 8.249
22.6102 8.636
22.6254 8.550
22.6406 8.338
22.6558 8.345
22.6709 8.155
22.6861 8.222
22.7013 8.295
22.7165 8.050
22.7316 6.488
