'Id: "" Comment: "" Operator: "Lab Manager" Anode: "Mo" Scantype: "Still (Eiger2R_500K (1D mode))" TimePerStep: "300" X: "11.8" Y: "9.4" Z: "11.284" 
7.2532 18.800
7.2684 19.156
7.2836 19.010
7.2987 19.221
7.3139 19.401
7.3291 19.453
7.3443 19.874
7.3594 19.521
7.3746 19.693
7.3898 19.887
7.4050 19.728
7.4201 19.740
7.4353 19.815
7.4505 19.530
7.4657 19.731
7.4808 19.455
7.4960 19.816
7.5112 19.919
7.5264 20.099
7.5415 19.854
7.5567 19.796
7.5719 20.070
7.5871 20.232
7.6022 20.374
7.6174 20.184
7.6326 19.846
7.6478 20.434
7.6629 20.679
7.6781 20.462
7.6933 20.670
7.7085 20.470
7.7236 20.351
7.7388 20.529
7.7540 20.647
7.7692 20.538
7.7843 20.866
7.7995 21.140
7.8147 21.094
7.8299 21.033
7.8450 20.971
7.8602 20.976
7.8754 21.030
7.8905 21.122
7.9057 20.881
7.9209 20.821
7.9361 21.201
7.9512 21.273
7.9664 21.353
7.9816 21.436
7.9968 21.691
8.0119 21.480
8.0271 21.278
8.0423 21.203
8.0575 21.293
8.0726 21.782
8.0878 21.463
8.1030 21.258
8.1182 21.523
8.1333 21.677
8.1485 21.591
8.1637 21.758
8.1789 21.634
8.1940 21.646
8.2092 22.123
8.2244 22.303
8.2396 21.945
8.2547 22.181
8.2699 21.537
8.2851 22.278
8.3003 21.960
8.3154 21.721
8.3306 21.342
8.3458 21.772
8.3610 22.098
8.3761 22.557
8.3913 21.973
8.4065 21.952
8.4217 22.187
8.4368 22.222
8.4520 22.038
8.4672 22.990
8.4824 22.361
8.4975 21.837
8.5127 22.245
8.5279 22.143
8.5431 22.760
8.5582 22.774
8.5734 22.262
8.5886 22.687
8.6038 22.591
8.6189 22.138
8.6341 22.566
8.6493 22.764
8.6645 22.652
8.6796 22.582
8.6948 22.517
8.7100 22.866
8.7252 22.391
8.7403 22.282
8.7555 22.579
8.7707 23.036
8.7859 22.315
8.8010 22.299
8.8162 22.261
8.8314 22.436
8.8466 22.984
8.8617 22.667
8.8769 22.727
8.8921 22.455
8.9073 22.731
8.9224 23.084
8.9376 22.871
8.9528 22.989
8.9680 22.802
8.9831 22.696
8.9983 22.783
9.0135 22.701
9.0287 22.994
9.0438 23.055
9.0590 23.203
9.0742 23.049
9.0894 23.172
9.1045 22.928
9.1197 22.972
9.1349 23.408
9.1501 23.481
9.1652 23.253
9.1804 23.089
9.1956 23.057
9.2108 23.233
9.2259 23.439
9.2411 23.247
9.2563 23.177
9.2715 23.096
9.2866 23.483
9.3018 23.022
9.3170 23.153
9.3322 23.359
9.3473 23.472
9.3625 23.407
9.3777 23.571
9.3929 23.248
9.4080 23.346
9.4232 23.647
9.4384 24.040
9.4536 23.935
9.4687 23.472
9.4839 23.482
9.4991 23.621
9.5143 23.629
9.5294 23.482
9.5446 23.521
9.5598 23.744
9.5750 23.606
9.5901 23.469
9.6053 23.744
9.6205 23.684
9.6357 23.807
9.6508 23.914
9.6660 23.862
9.6812 23.946
9.6964 24.131
9.7115 24.492
9.7267 24.450
9.7419 24.178
9.7571 24.168
9.7722 24.157
9.7874 24.467
9.8026 24.492
9.8178 24.076
9.8329 23.974
9.8481 23.906
9.8633 23.860
9.8785 24.336
9.8936 24.647
9.9088 24.627
9.9240 24.675
9.9392 24.116
9.9543 23.908
9.9695 24.219
9.9847 24.326
9.9999 24.543
10.0150 24.169
10.0302 23.719
10.0454 23.621
10.0606 23.443
10.0757 23.845
10.0909 23.875
10.1061 23.658
10.1213 24.016
10.1364 23.820
10.1516 23.946
10.1668 24.225
10.1820 24.376
10.1971 24.173
10.2123 23.933
10.2275 23.638
10.2427 23.756
10.2578 23.903
10.2730 23.637
10.2882 23.380
10.3034 23.418
10.3185 23.385
10.3337 23.361
10.3489 23.343
10.3641 23.364
10.3792 23.217
10.3944 23.509
10.4096 23.779
10.4248 23.609
10.4399 23.429
10.4551 23.324
10.4703 23.598
10.4855 23.008
10.5006 22.882
10.5158 22.674
10.5310 22.933
10.5462 23.170
10.5613 23.367
10.5765 23.456
10.5917 23.086
10.6069 22.666
10.6220 22.722
10.6372 22.848
10.6524 22.829
10.6676 22.913
10.6827 22.965
10.6979 22.815
10.7131 22.536
10.7283 22.867
10.7434 22.436
10.7586 22.588
10.7738 22.780
10.7890 22.828
10.8041 22.933
10.8193 22.882
10.8345 22.289
10.8497 22.243
10.8648 22.300
10.8800 22.620
10.8952 22.372
10.9104 22.515
10.9255 22.670
10.9407 22.296
10.9559 22.452
10.9711 22.800
10.9862 22.393
11.0014 22.576
11.0166 22.819
11.0318 22.560
11.0469 22.371
11.0621 21.976
11.0773 22.053
11.0925 22.097
11.1076 21.989
11.1228 22.184
11.1380 22.126
11.1532 22.077
11.1683 22.030
11.1835 21.803
11.1987 22.004
11.2139 22.015
11.2290 21.759
11.2442 22.272
11.2594 22.061
11.2746 21.697
11.2897 21.686
11.3049 21.866
11.3201 21.897
11.3353 21.622
11.3504 21.648
11.3656 21.696
11.3808 21.587
11.3960 21.671
11.4111 21.868
11.4263 22.036
11.4415 21.733
11.4567 21.635
11.4718 21.453
11.4870 21.590
11.5022 21.808
11.5174 21.603
11.5325 21.519
11.5477 21.197
11.5629 21.014
11.5781 21.125
11.5932 21.208
11.6084 21.082
11.6236 21.146
11.6388 21.042
11.6539 20.848
11.6691 20.699
11.6843 20.762
11.6995 20.458
11.7146 20.785
11.7298 21.447
11.7450 20.791
11.7602 20.440
11.7753 20.227
11.7905 20.599
11.8057 20.490
11.8209 20.111
11.8360 20.206
11.8512 20.360
11.8664 20.156
11.8816 19.952
11.8967 19.842
11.9119 19.802
11.9271 19.803
11.9423 19.762
11.9574 19.671
11.9726 19.682
11.9878 19.894
12.0030 19.313
12.0181 19.116
12.0333 19.140
12.0485 19.352
12.0637 19.148
12.0788 19.070
12.0940 18.675
12.1092 18.793
12.1244 19.000
12.1395 18.870
12.1547 19.006
12.1699 18.683
12.1851 18.214
12.2002 18.313
12.2154 18.545
12.2306 18.424
12.2458 17.888
12.2609 17.847
12.2761 18.036
12.2913 17.829
12.3065 17.652
12.3216 17.441
12.3368 17.456
12.3520 17.483
12.3672 17.315
12.3823 17.163
12.3975 17.278
12.4127 17.403
12.4279 17.101
12.4430 16.823
12.4582 17.076
12.4734 17.242
12.4886 16.926
12.5037 16.947
12.5189 16.917
12.5341 16.620
12.5493 16.415
12.5644 16.226
12.5796 16.262
12.5948 16.261
12.6100 16.099
12.6251 15.977
12.6403 15.579
12.6555 15.755
12.6707 15.808
12.6858 15.523
12.7010 15.645
12.7162 15.963
12.7314 15.878
12.7465 15.285
12.7617 15.196
12.7769 15.261
12.7921 15.024
12.8072 15.155
12.8224 15.027
12.8376 14.967
12.8528 15.058
12.8679 14.943
12.8831 14.999
12.8983 15.010
12.9135 14.739
12.9286 14.675
12.9438 14.595
12.9590 14.399
12.9742 14.234
12.9893 14.401
13.0045 14.621
13.0197 14.358
13.0349 14.265
13.0500 14.304
13.0652 14.082
13.0804 13.875
13.0956 13.701
13.1107 13.720
13.1259 13.802
13.1411 13.715
13.1563 13.634
13.1714 13.597
13.1866 13.451
13.2018 13.340
13.2170 13.254
13.2321 13.318
13.2473 13.254
13.2625 13.018
13.2777 13.206
13.2928 13.383
13.3080 13.168
13.3232 13.156
13.3384 13.163
13.3535 12.784
13.3687 13.045
13.3839 13.161
13.3991 13.156
13.4142 13.307
13.4294 13.111
13.4446 12.840
13.4598 12.579
13.4749 12.625
13.4901 12.517
13.5053 12.422
13.5205 12.574
13.5356 12.444
13.5508 12.481
13.5660 12.581
13.5812 12.461
13.5963 12.529
13.6115 12.495
13.6267 12.273
13.6419 12.278
13.6570 12.320
13.6722 12.300
13.6874 12.190
13.7026 11.948
13.7177 12.068
13.7329 11.954
13.7481 11.885
13.7633 12.083
13.7784 12.234
13.7936 12.024
13.8088 11.890
13.8239 12.174
13.8391 12.421
13.8543 12.452
13.8695 12.324
13.8846 12.110
13.8998 12.039
13.9150 12.101
13.9302 12.038
13.9453 11.977
13.9605 11.806
13.9757 11.865
13.9909 11.458
14.0060 11.485
14.0212 11.501
14.0364 11.774
14.0516 11.591
14.0667 11.415
14.0819 11.624
14.0971 11.575
14.1123 11.639
14.1274 11.540
14.1426 11.413
14.1578 11.325
14.1730 11.553
14.1881 11.398
14.2033 11.254
14.2185 11.516
14.2337 11.646
14.2488 11.644
14.2640 11.553
14.2792 11.425
14.2944 11.635
14.3095 11.862
14.3247 12.095
14.3399 12.487
14.3551 12.529
14.3702 12.945
14.3854 13.584
14.4006 14.218
14.4158 14.558
14.4309 14.817
14.4461 14.976
14.4613 14.719
14.4765 14.297
14.4916 13.905
14.5068 13.865
14.5220 13.912
14.5372 13.201
14.5523 12.444
14.5675 12.246
14.5827 11.786
14.5979 11.423
14.6130 11.269
14.6282 10.850
14.6434 11.069
14.6586 10.831
14.6737 11.309
14.6889 10.842
14.7041 11.180
14.7193 11.406
14.7344 11.514
14.7496 11.161
14.7648 11.160
14.7800 11.333
14.7951 11.304
14.8103 10.942
14.8255 10.991
14.8407 11.421
14.8558 11.098
14.8710 11.103
14.8862 11.053
14.9014 10.979
14.9165 11.065
14.9317 11.464
14.9469 10.852
14.9621 11.047
14.9772 10.735
14.9924 10.901
15.0076 10.893
15.0228 10.882
15.0379 10.808
15.0531 10.800
15.0683 10.495
15.0835 10.862
15.0986 10.494
15.1138 10.734
15.1290 10.323
15.1442 10.664
15.1593 10.601
15.1745 10.272
15.1897 10.513
15.2049 10.292
15.2200 10.696
15.2352 10.640
15.2504 10.506
15.2656 10.815
15.2807 10.248
15.2959 10.296
15.3111 10.209
15.3263 10.198
15.3414 10.627
15.3566 10.444
15.3718 10.334
15.3870 10.600
15.4021 10.618
15.4173 10.406
15.4325 10.591
15.4477 10.672
15.4628 10.446
15.4780 10.425
15.4932 10.426
15.5084 10.297
15.5235 10.585
15.5387 10.337
15.5539 10.333
15.5691 10.358
15.5842 10.361
15.5994 10.179
15.6146 10.012
15.6298 9.899
15.6449 10.141
15.6601 10.231
15.6753 10.121
15.6905 10.266
15.7056 9.752
15.7208 9.988
15.7360 9.966
15.7512 9.836
15.7663 9.972
15.7815 9.996
15.7967 9.992
15.8119 9.610
15.8270 9.925
15.8422 9.921
15.8574 10.145
15.8726 10.033
15.8877 9.860
15.9029 9.530
15.9181 9.873
15.9333 10.163
15.9484 9.892
15.9636 9.814
15.9788 9.677
15.9940 9.821
16.0091 9.758
16.0243 9.566
16.0395 9.792
16.0547 9.726
16.0698 9.899
16.0850 9.767
16.1002 9.772
16.1154 9.678
16.1305 9.850
16.1457 9.841
16.1609 9.902
16.1761 9.694
16.1912 9.909
16.2064 9.940
16.2216 9.848
16.2368 10.028
16.2519 9.948
16.2671 10.063
16.2823 10.332
16.2975 10.415
16.3126 10.187
16.3278 10.109
16.3430 9.979
16.3582 9.933
16.3733 10.215
16.3885 10.336
16.4037 10.169
16.4189 10.229
16.4340 10.227
16.4492 10.073
16.4644 9.989
16.4796 10.081
16.4947 9.990
16.5099 9.949
16.5251 9.781
16.5403 9.984
16.5554 9.938
16.5706 9.635
16.5858 9.840
16.6010 9.936
16.6161 9.772
16.6313 9.930
16.6465 10.016
16.6617 10.245
16.6768 10.116
16.6920 10.138
16.7072 10.160
16.7224 10.207
16.7375 10.215
16.7527 10.117
16.7679 10.139
16.7831 10.074
16.7982 10.030
16.8134 10.052
16.8286 9.962
16.8438 9.908
16.8589 10.114
16.8741 10.172
16.8893 10.102
16.9045 9.949
16.9196 10.000
16.9348 10.113
16.9500 9.949
16.9652 9.836
16.9803 10.053
16.9955 10.213
17.0107 10.190
17.0259 10.191
17.0410 10.137
17.0562 10.152
17.0714 10.394
17.0866 10.559
17.1017 10.552
17.1169 10.833
17.1321 11.174
17.1473 11.526
17.1624 11.999
17.1776 12.591
17.1928 13.158
17.2080 13.815
17.2231 15.222
17.2383 16.777
17.2535 17.940
17.2687 18.729
17.2838 18.910
17.2990 18.275
17.3142 17.215
17.3294 16.458
17.3445 16.216
17.3597 16.192
17.3749 16.008
17.3901 15.560
17.4052 14.483
17.4204 13.236
17.4356 12.467
17.4508 11.955
17.4659 11.642
17.4811 11.462
17.4963 11.400
17.5115 11.172
17.5266 10.777
17.5418 10.754
17.5570 10.611
17.5722 10.574
17.5873 10.916
17.6025 10.908
17.6177 10.955
17.6329 10.899
17.6480 10.721
17.6632 11.032
17.6784 11.407
17.6936 11.785
17.7087 12.297
17.7239 12.540
17.7391 12.554
17.7543 12.407
17.7694 12.284
17.7846 12.404
17.7998 12.638
17.8150 12.808
17.8301 12.613
17.8453 12.506
17.8605 12.469
17.8757 12.224
17.8908 12.103
17.9060 11.794
17.9212 11.674
17.9364 11.493
17.9515 11.156
17.9667 10.939
17.9819 11.251
17.9971 11.153
18.0122 10.847
18.0274 10.737
18.0426 10.622
18.0578 10.568
18.0729 10.367
18.0881 10.202
18.1033 9.972
18.1185 9.912
18.1336 10.251
18.1488 10.111
18.1640 9.974
18.1792 10.209
18.1943 10.257
18.2095 10.154
18.2247 10.113
18.2399 10.073
18.2550 10.011
18.2702 10.168
18.2854 10.256
18.3006 10.199
18.3157 10.050
18.3309 9.999
18.3461 9.992
18.3613 10.025
18.3764 10.023
18.3916 9.867
18.4068 9.803
18.4220 9.921
18.4371 10.099
18.4523 10.231
18.4675 10.316
18.4827 10.094
18.4978 9.956
18.5130 9.984
18.5282 9.969
18.5434 9.913
18.5585 9.804
18.5737 9.977
18.5889 9.816
18.6041 9.823
18.6192 10.006
18.6344 10.007
18.6496 9.968
18.6648 9.908
18.6799 9.911
18.6951 9.769
18.7103 9.821
18.7255 10.012
18.7406 9.637
18.7558 9.660
18.7710 9.948
18.7862 9.941
18.8013 9.677
18.8165 9.527
18.8317 9.800
18.8469 9.885
18.8620 9.930
18.8772 10.029
18.8924 10.318
18.9076 10.352
18.9227 10.093
18.9379 10.099
18.9531 10.394
18.9683 10.407
18.9834 10.383
18.9986 10.304
19.0138 10.266
19.0290 10.234
19.0441 10.172
19.0593 10.088
19.0745 10.304
19.0897 10.425
19.1048 10.394
19.1200 10.553
19.1352 10.566
19.1504 10.607
19.1655 10.834
19.1807 10.616
19.1959 10.498
19.2111 10.732
19.2262 10.742
19.2414 10.751
19.2566 10.832
19.2718 10.874
19.2869 11.010
19.3021 11.142
19.3173 10.965
19.3325 11.065
19.3476 11.277
19.3628 11.223
19.3780 11.211
19.3932 11.343
19.4083 11.376
19.4235 11.535
19.4387 11.552
19.4539 11.491
19.4690 11.423
19.4842 11.295
19.4994 11.255
19.5146 11.514
19.5297 11.742
19.5449 11.619
19.5601 11.504
19.5753 11.567
19.5904 11.725
19.6056 11.565
19.6208 11.672
19.6360 11.797
19.6511 11.559
19.6663 11.501
19.6815 11.485
19.6967 11.828
19.7118 12.018
19.7270 11.928
19.7422 11.877
19.7574 11.834
19.7725 12.073
19.7877 12.083
19.8029 11.846
19.8180 11.936
19.8332 12.061
19.8484 12.256
19.8636 12.639
19.8787 12.724
19.8939 12.908
19.9091 13.290
19.9243 13.546
19.9394 13.751
19.9546 14.021
19.9698 14.536
19.9850 14.889
20.0001 14.781
20.0153 14.309
20.0305 14.077
20.0457 13.837
20.0608 13.803
20.0760 13.797
20.0912 13.645
20.1064 13.626
20.1215 13.621
20.1367 13.446
20.1519 13.014
20.1671 12.768
20.1822 12.678
20.1974 12.886
20.2126 12.706
20.2278 12.587
20.2429 12.474
20.2581 12.224
20.2733 11.843
20.2885 11.575
20.3036 11.488
20.3188 11.524
20.3340 11.613
20.3492 11.578
20.3643 11.570
20.3795 11.207
20.3947 11.155
20.4099 11.125
20.4250 11.322
20.4402 11.497
20.4554 11.658
20.4706 12.026
20.4857 12.056
20.5009 12.126
20.5161 12.065
20.5313 11.607
20.5464 11.364
20.5616 11.484
20.5768 11.607
20.5920 11.607
20.6071 11.785
20.6223 11.526
20.6375 11.582
20.6527 11.130
20.6678 11.271
20.6830 11.030
20.6982 10.977
20.7134 10.629
20.7285 10.501
20.7437 10.466
20.7589 10.827
20.7741 10.582
20.7892 10.537
20.8044 10.440
20.8196 10.476
20.8348 10.528
20.8499 10.773
20.8651 10.400
20.8803 10.225
20.8955 10.125
20.9106 10.708
20.9258 10.504
20.9410 10.502
20.9562 10.596
20.9713 10.582
20.9865 10.727
21.0017 10.772
21.0169 10.853
21.0320 10.588
21.0472 10.389
21.0624 10.441
21.0776 10.524
21.0927 10.455
21.1079 10.488
21.1231 10.295
21.1383 10.388
21.1534 10.182
21.1686 9.885
21.1838 9.768
21.1990 9.966
21.2141 9.843
21.2293 9.657
21.2445 9.591
21.2597 9.815
21.2748 9.947
21.2900 9.524
21.3052 9.628
21.3204 9.989
21.3355 9.582
21.3507 9.760
21.3659 9.658
21.3811 9.556
21.3962 9.741
21.4114 9.769
21.4266 9.447
21.4418 9.799
21.4569 9.708
21.4721 9.129
21.4873 9.337
21.5025 9.399
21.5176 9.582
21.5328 9.456
21.5480 9.224
21.5632 9.419
21.5783 9.198
21.5935 9.366
21.6087 9.304
21.6239 9.204
21.6390 9.135
21.6542 9.275
21.6694 9.412
21.6846 9.300
21.6997 9.202
21.7149 9.347
21.7301 9.195
21.7453 8.927
21.7604 8.877
21.7756 9.049
21.7908 8.988
21.8060 9.115
21.8211 9.247
21.8363 8.896
21.8515 9.087
21.8667 9.201
21.8818 9.116
21.8970 9.126
21.9122 9.175
21.9274 9.186
21.9425 9.001
21.9577 8.959
21.9729 9.109
21.9881 9.029
22.0032 8.880
22.0184 8.968
22.0336 9.025
22.0488 8.975
22.0639 8.891
22.0791 8.842
22.0943 8.810
22.1095 8.865
22.1246 8.899
22.1398 8.805
22.1550 8.708
22.1702 8.725
22.1853 8.591
22.2005 8.662
22.2157 8.628
22.2309 8.535
22.2460 8.693
22.2612 8.669
22.2764 8.795
22.2916 8.790
22.3067 8.674
22.3219 8.558
22.3371 8.722
22.3523 8.602
22.3674 8.385
22.3826 8.588
22.3978 8.740
22.4130 8.469
22.4281 8.339
22.4433 8.653
22.4585 8.581
22.4737 8.516
22.4888 8.403
22.5040 8.564
22.5192 8.664
22.5344 8.706
22.5495 8.418
22.5647 8.415
22.5799 8.144
22.5951 8.400
22.6102 8.401
22.6254 8.397
22.6406 8.754
22.6558 8.453
22.6709 8.571
22.6861 8.318
22.7013 8.432
22.7165 8.109
22.7316 6.289
