'Id: "" Comment: "" Operator: "Lab Manager" Anode: "Mo" Scantype: "Still (Eiger2R_500K (1D mode))" TimePerStep: "300" X: "11.8" Y: "9.4" Z: "11.284" 
7.2532 19.067
7.2684 18.768
7.2836 18.892
7.2987 19.012
7.3139 18.842
7.3291 19.052
7.3443 18.983
7.3594 19.158
7.3746 19.287
7.3898 19.431
7.4050 19.095
7.4201 19.177
7.4353 19.542
7.4505 19.484
7.4657 19.686
7.4808 19.616
7.4960 19.276
7.5112 19.879
7.5264 20.071
7.5415 19.715
7.5567 19.396
7.5719 19.686
7.5871 19.906
7.6022 19.809
7.6174 20.086
7.6326 20.524
7.6478 20.046
7.6629 19.880
7.6781 20.082
7.6933 20.081
7.7085 20.011
7.7236 20.264
7.7388 20.254
7.7540 20.194
7.7692 20.437
7.7843 20.397
7.7995 20.209
7.8147 20.348
7.8299 20.387
7.8450 20.522
7.8602 20.642
7.8754 20.562
7.8905 20.502
7.9057 20.532
7.9209 20.722
7.9361 20.773
7.9512 20.717
7.9664 20.423
7.9816 20.652
7.9968 20.747
8.0119 20.735
8.0271 20.871
8.0423 21.173
8.0575 21.128
8.0726 21.264
8.0878 21.281
8.1030 21.347
8.1182 21.195
8.1333 21.180
8.1485 21.215
8.1637 21.338
8.1789 21.523
8.1940 21.196
8.2092 21.219
8.2244 21.516
8.2396 21.722
8.2547 21.712
8.2699 21.732
8.2851 21.962
8.3003 22.031
8.3154 22.146
8.3306 21.581
8.3458 21.231
8.3610 21.502
8.3761 21.443
8.3913 21.737
8.4065 21.713
8.4217 21.578
8.4368 21.883
8.4520 22.092
8.4672 21.906
8.4824 21.626
8.4975 22.267
8.5127 21.898
8.5279 22.161
8.5431 21.521
8.5582 21.979
8.5734 21.901
8.5886 22.002
8.6038 22.207
8.6189 22.260
8.6341 22.121
8.6493 21.885
8.6645 21.910
8.6796 21.861
8.6948 22.756
8.7100 22.190
8.7252 22.383
8.7403 22.638
8.7555 22.542
8.7707 22.308
8.7859 22.504
8.8010 22.147
8.8162 22.465
8.8314 22.421
8.8466 22.605
8.8617 22.464
8.8769 22.553
8.8921 22.191
8.9073 22.519
8.9224 22.900
8.9376 22.780
8.9528 23.016
8.9680 22.177
8.9831 22.630
8.9983 22.833
9.0135 22.656
9.0287 22.815
9.0438 22.472
9.0590 22.472
9.0742 22.389
9.0894 22.535
9.1045 22.487
9.1197 22.457
9.1349 22.678
9.1501 23.192
9.1652 23.037
9.1804 22.891
9.1956 22.907
9.2108 23.223
9.2259 23.178
9.2411 22.784
9.2563 22.582
9.2715 22.481
9.2866 22.747
9.3018 22.837
9.3170 22.895
9.3322 22.930
9.3473 22.787
9.3625 23.002
9.3777 23.123
9.3929 23.215
9.4080 23.315
9.4232 23.143
9.4384 23.093
9.4536 23.314
9.4687 23.351
9.4839 23.094
9.4991 23.020
9.5143 23.046
9.5294 23.174
9.5446 23.209
9.5598 23.220
9.5750 23.201
9.5901 23.046
9.6053 23.159
9.6205 23.527
9.6357 23.208
9.6508 23.202
9.6660 23.551
9.6812 23.550
9.6964 23.543
9.7115 23.553
9.7267 23.900
9.7419 24.057
9.7571 23.792
9.7722 23.621
9.7874 23.529
9.8026 23.319
9.8178 22.940
9.8329 23.083
9.8481 23.185
9.8633 23.331
9.8785 23.443
9.8936 23.402
9.9088 23.176
9.9240 22.760
9.9392 22.873
9.9543 23.221
9.9695 23.520
9.9847 23.578
9.9999 23.466
10.0150 22.898
10.0302 22.779
10.0454 23.345
10.0606 23.127
10.0757 22.862
10.0909 23.241
10.1061 23.192
10.1213 23.170
10.1364 23.633
10.1516 23.676
10.1668 23.422
10.1820 23.437
10.1971 23.576
10.2123 23.453
10.2275 23.226
10.2427 23.156
10.2578 23.404
10.2730 23.378
10.2882 23.049
10.3034 22.873
10.3185 22.959
10.3337 22.779
10.3489 22.901
10.3641 22.830
10.3792 22.811
10.3944 23.014
10.4096 22.834
10.4248 22.825
10.4399 23.142
10.4551 22.694
10.4703 22.637
10.4855 22.437
10.5006 22.262
10.5158 22.357
10.5310 22.726
10.5462 22.375
10.5613 22.227
10.5765 22.380
10.5917 22.504
10.6069 22.707
10.6220 22.755
10.6372 22.770
10.6524 22.562
10.6676 22.262
10.6827 22.424
10.6979 22.618
10.7131 22.469
10.7283 22.385
10.7434 22.540
10.7586 22.574
10.7738 22.501
10.7890 22.256
10.8041 22.245
10.8193 22.151
10.8345 22.089
10.8497 22.223
10.8648 22.118
10.8800 22.294
10.8952 22.309
10.9104 22.303
10.9255 22.110
10.9407 22.184
10.9559 21.951
10.9711 21.877
10.9862 21.728
11.0014 21.770
11.0166 22.102
11.0318 22.028
11.0469 21.975
11.0621 21.566
11.0773 21.897
11.0925 22.136
11.1076 22.222
11.1228 21.867
11.1380 21.796
11.1532 21.737
11.1683 21.731
11.1835 21.367
11.1987 21.654
11.2139 21.992
11.2290 21.648
11.2442 21.457
11.2594 21.557
11.2746 21.603
11.2897 21.629
11.3049 21.618
11.3201 21.407
11.3353 21.533
11.3504 21.224
11.3656 21.173
11.3808 21.156
11.3960 21.433
11.4111 21.481
11.4263 20.979
11.4415 21.147
11.4567 21.240
11.4718 21.346
11.4870 21.144
11.5022 20.590
11.5174 20.548
11.5325 20.632
11.5477 20.741
11.5629 20.676
11.5781 20.708
11.5932 20.939
11.6084 20.770
11.6236 20.694
11.6388 20.561
11.6539 20.613
11.6691 20.463
11.6843 20.053
11.6995 20.447
11.7146 20.378
11.7298 20.482
11.7450 20.399
11.7602 20.047
11.7753 20.190
11.7905 20.153
11.8057 19.902
11.8209 19.953
11.8360 19.774
11.8512 19.634
11.8664 19.853
11.8816 19.809
11.8967 19.092
11.9119 19.563
11.9271 19.756
11.9423 19.386
11.9574 19.093
11.9726 19.220
11.9878 19.123
12.0030 19.389
12.0181 19.115
12.0333 18.847
12.0485 18.603
12.0637 18.827
12.0788 18.794
12.0940 18.918
12.1092 18.519
12.1244 18.487
12.1395 18.878
12.1547 18.886
12.1699 18.330
12.1851 18.526
12.2002 18.401
12.2154 18.053
12.2306 18.029
12.2458 18.078
12.2609 18.342
12.2761 17.989
12.2913 17.565
12.3065 17.669
12.3216 17.662
12.3368 17.336
12.3520 17.439
12.3672 17.339
12.3823 17.226
12.3975 17.200
12.4127 17.400
12.4279 17.292
12.4430 16.953
12.4582 16.887
12.4734 17.001
12.4886 16.729
12.5037 16.507
12.5189 16.421
12.5341 16.350
12.5493 16.129
12.5644 16.034
12.5796 16.350
12.5948 16.331
12.6100 16.105
12.6251 16.169
12.6403 16.201
12.6555 15.877
12.6707 15.798
12.6858 15.909
12.7010 15.723
12.7162 15.659
12.7314 15.434
12.7465 15.447
12.7617 15.516
12.7769 15.465
12.7921 15.338
12.8072 14.983
12.8224 14.989
12.8376 14.951
12.8528 14.803
12.8679 14.597
12.8831 14.380
12.8983 14.639
12.9135 14.552
12.9286 14.191
12.9438 14.357
12.9590 14.538
12.9742 14.488
12.9893 14.608
13.0045 14.654
13.0197 14.375
13.0349 14.051
13.0500 13.899
13.0652 13.765
13.0804 13.910
13.0956 14.146
13.1107 13.949
13.1259 13.638
13.1411 13.641
13.1563 13.465
13.1714 13.430
13.1866 13.746
13.2018 13.740
13.2170 13.560
13.2321 13.464
13.2473 13.315
13.2625 13.266
13.2777 13.390
13.2928 13.179
13.3080 13.057
13.3232 12.941
13.3384 12.857
13.3535 12.923
13.3687 12.981
13.3839 13.049
13.3991 12.884
13.4142 12.842
13.4294 12.818
13.4446 12.787
13.4598 12.763
13.4749 12.585
13.4901 12.409
13.5053 12.343
13.5205 12.213
13.5356 12.446
13.5508 12.779
13.5660 12.451
13.5812 12.142
13.5963 12.337
13.6115 12.230
13.6267 12.085
13.6419 12.344
13.6570 12.329
13.6722 11.907
13.6874 11.973
13.7026 11.843
13.7177 11.826
13.7329 12.176
13.7481 12.255
13.7633 12.296
13.7784 12.126
13.7936 11.902
13.8088 11.914
13.8239 11.995
13.8391 12.176
13.8543 12.485
13.8695 12.290
13.8846 12.082
13.8998 12.087
13.9150 12.377
13.9302 12.378
13.9453 11.943
13.9605 11.560
13.9757 11.537
13.9909 11.467
14.0060 11.568
14.0212 11.660
14.0364 11.516
14.0516 11.407
14.0667 11.438
14.0819 11.255
14.0971 11.248
14.1123 11.335
14.1274 11.519
14.1426 11.447
14.1578 11.389
14.1730 11.591
14.1881 11.599
14.2033 11.511
14.2185 11.532
14.2337 11.475
14.2488 11.552
14.2640 11.602
14.2792 11.718
14.2944 11.963
14.3095 11.930
14.3247 11.920
14.3399 12.141
14.3551 12.693
14.3702 12.817
14.3854 12.916
14.4006 12.991
14.4158 13.134
14.4309 13.570
14.4461 13.219
14.4613 13.031
14.4765 12.653
14.4916 12.664
14.5068 12.393
14.5220 12.039
14.5372 11.757
14.5523 11.679
14.5675 11.216
14.5827 11.199
14.5979 11.367
14.6130 10.756
14.6282 10.572
14.6434 10.714
14.6586 11.021
14.6737 10.767
14.6889 10.833
14.7041 10.458
14.7193 10.628
14.7344 10.464
14.7496 10.736
14.7648 10.931
14.7800 10.380
14.7951 10.103
14.8103 10.355
14.8255 10.463
14.8407 10.433
14.8558 10.203
14.8710 10.553
14.8862 10.434
14.9014 10.221
14.9165 10.483
14.9317 10.726
14.9469 10.589
14.9621 10.566
14.9772 9.757
14.9924 10.556
15.0076 10.082
15.0228 10.671
15.0379 10.689
15.0531 10.330
15.0683 10.349
15.0835 10.542
15.0986 10.293
15.1138 10.199
15.1290 10.270
15.1442 10.202
15.1593 9.973
15.1745 9.886
15.1897 9.838
15.2049 10.229
15.2200 9.885
15.2352 10.594
15.2504 10.111
15.2656 10.421
15.2807 10.279
15.2959 10.203
15.3111 10.173
15.3263 10.060
15.3414 10.123
15.3566 9.792
15.3718 10.281
15.3870 10.120
15.4021 10.033
15.4173 10.369
15.4325 10.060
15.4477 10.098
15.4628 10.279
15.4780 10.076
15.4932 9.868
15.5084 10.207
15.5235 9.893
15.5387 9.899
15.5539 9.922
15.5691 10.035
15.5842 10.078
15.5994 9.799
15.6146 9.582
15.6298 9.705
15.6449 9.847
15.6601 9.698
15.6753 9.937
15.6905 9.555
15.7056 9.801
15.7208 9.811
15.7360 9.650
15.7512 9.677
15.7663 9.487
15.7815 9.970
15.7967 9.794
15.8119 9.728
15.8270 9.711
15.8422 9.528
15.8574 9.577
15.8726 9.286
15.8877 9.213
15.9029 9.459
15.9181 9.342
15.9333 9.548
15.9484 9.343
15.9636 9.627
15.9788 9.514
15.9940 9.668
16.0091 9.656
16.0243 9.659
16.0395 9.763
16.0547 9.408
16.0698 9.606
16.0850 9.808
16.1002 9.543
16.1154 9.596
16.1305 9.588
16.1457 9.751
16.1609 9.634
16.1761 9.698
16.1912 9.717
16.2064 10.107
16.2216 10.103
16.2368 9.917
16.2519 9.747
16.2671 9.711
16.2823 9.639
16.2975 9.774
16.3126 9.670
16.3278 9.905
16.3430 9.689
16.3582 9.595
16.3733 9.676
16.3885 9.688
16.4037 9.711
16.4189 9.906
16.4340 9.865
16.4492 9.963
16.4644 9.557
16.4796 9.885
16.4947 9.930
16.5099 9.701
16.5251 9.593
16.5403 9.464
16.5554 9.481
16.5706 9.501
16.5858 9.545
16.6010 9.516
16.6161 9.458
16.6313 9.637
16.6465 9.875
16.6617 9.865
16.6768 9.856
16.6920 9.666
16.7072 9.899
16.7224 10.027
16.7375 9.789
16.7527 9.856
16.7679 9.776
16.7831 9.758
16.7982 9.854
16.8134 9.950
16.8286 9.665
16.8438 9.598
16.8589 9.702
16.8741 9.662
16.8893 9.734
16.9045 9.724
16.9196 9.841
16.9348 9.669
16.9500 9.624
16.9652 9.688
16.9803 9.762
16.9955 9.651
17.0107 9.472
17.0259 9.699
17.0410 10.085
17.0562 10.036
17.0714 10.131
17.0866 10.374
17.1017 10.315
17.1169 10.331
17.1321 10.726
17.1473 11.306
17.1624 11.662
17.1776 12.015
17.1928 12.908
17.2080 13.762
17.2231 14.675
17.2383 15.973
17.2535 17.520
17.2687 18.537
17.2838 18.567
17.2990 17.967
17.3142 16.864
17.3294 16.029
17.3445 15.712
17.3597 15.694
17.3749 15.705
17.3901 15.069
17.4052 14.152
17.4204 13.093
17.4356 12.293
17.4508 11.937
17.4659 11.571
17.4811 11.486
17.4963 11.303
17.5115 11.013
17.5266 10.882
17.5418 10.800
17.5570 10.773
17.5722 10.818
17.5873 10.935
17.6025 10.898
17.6177 11.022
17.6329 11.228
17.6480 11.263
17.6632 11.620
17.6784 11.764
17.6936 11.904
17.7087 12.099
17.7239 11.917
17.7391 11.670
17.7543 11.352
17.7694 11.256
17.7846 11.439
17.7998 11.452
17.8150 11.166
17.8301 10.848
17.8453 10.744
17.8605 10.504
17.8757 10.420
17.8908 10.533
17.9060 10.374
17.9212 10.226
17.9364 10.045
17.9515 10.104
17.9667 10.069
17.9819 10.145
17.9971 10.176
18.0122 10.064
18.0274 10.058
18.0426 10.011
18.0578 10.134
18.0729 10.110
18.0881 10.116
18.1033 10.342
18.1185 9.951
18.1336 9.756
18.1488 9.994
18.1640 10.093
18.1792 9.796
18.1943 10.001
18.2095 10.057
18.2247 9.981
18.2399 9.907
18.2550 9.694
18.2702 9.822
18.2854 9.915
18.3006 9.861
18.3157 9.723
18.3309 9.709
18.3461 9.746
18.3613 9.895
18.3764 9.799
18.3916 9.659
18.4068 9.650
18.4220 9.779
18.4371 9.764
18.4523 9.745
18.4675 9.857
18.4827 9.897
18.4978 9.855
18.5130 9.816
18.5282 9.727
18.5434 9.684
18.5585 9.837
18.5737 10.077
18.5889 9.884
18.6041 9.917
18.6192 9.926
18.6344 9.744
18.6496 9.800
18.6648 9.910
18.6799 9.697
18.6951 9.751
18.7103 9.868
18.7255 9.943
18.7406 9.786
18.7558 9.795
18.7710 9.751
18.7862 9.732
18.8013 9.608
18.8165 9.761
18.8317 9.744
18.8469 9.705
18.8620 9.781
18.8772 9.992
18.8924 9.923
18.9076 9.824
18.9227 10.022
18.9379 10.005
18.9531 9.759
18.9683 9.842
18.9834 9.871
18.9986 9.809
19.0138 9.846
19.0290 10.103
19.0441 10.046
19.0593 10.181
19.0745 10.328
19.0897 10.152
19.1048 10.183
19.1200 10.297
19.1352 10.387
19.1504 10.278
19.1655 10.461
19.1807 10.627
19.1959 10.435
19.2111 10.450
19.2262 10.576
19.2414 10.863
19.2566 10.852
19.2718 10.737
19.2869 10.735
19.3021 10.896
19.3173 11.115
19.3325 11.053
19.3476 10.880
19.3628 10.921
19.3780 11.026
19.3932 11.105
19.4083 11.236
19.4235 10.995
19.4387 10.870
19.4539 11.267
19.4690 11.387
19.4842 11.269
19.4994 11.181
19.5146 11.146
19.5297 11.356
19.5449 11.515
19.5601 11.623
19.5753 11.668
19.5904 11.611
19.6056 11.521
19.6208 11.652
19.6360 11.667
19.6511 11.582
19.6663 11.488
19.6815 11.601
19.6967 11.735
19.7118 11.930
19.7270 11.810
19.7422 11.629
19.7574 11.886
19.7725 11.907
19.7877 11.859
19.8029 12.016
19.8180 12.150
19.8332 12.302
19.8484 12.134
19.8636 12.292
19.8787 12.685
19.8939 12.837
19.9091 13.164
19.9243 13.505
19.9394 13.632
19.9546 13.833
19.9698 14.310
19.9850 14.531
20.0001 14.333
20.0153 14.172
20.0305 13.939
20.0457 13.536
20.0608 13.721
20.0760 13.679
20.0912 13.440
20.1064 13.622
20.1215 13.333
20.1367 13.067
20.1519 12.957
20.1671 12.698
20.1822 12.764
20.1974 13.010
20.2126 12.778
20.2278 12.732
20.2429 12.561
20.2581 12.677
20.2733 12.528
20.2885 12.173
20.3036 12.000
20.3188 11.610
20.3340 11.648
20.3492 11.803
20.3643 11.775
20.3795 11.771
20.3947 11.843
20.4099 11.837
20.4250 11.665
20.4402 11.994
20.4554 12.262
20.4706 11.851
20.4857 11.977
20.5009 12.017
20.5161 11.983
20.5313 11.707
20.5464 11.595
20.5616 11.517
20.5768 11.275
20.5920 11.218
20.6071 11.292
20.6223 11.112
20.6375 11.016
20.6527 10.781
20.6678 10.700
20.6830 10.683
20.6982 10.771
20.7134 10.568
20.7285 10.279
20.7437 10.492
20.7589 10.401
20.7741 10.548
20.7892 10.670
20.8044 10.516
20.8196 10.563
20.8348 10.659
20.8499 10.123
20.8651 10.045
20.8803 10.284
20.8955 10.201
20.9106 10.018
20.9258 10.171
20.9410 9.905
20.9562 10.259
20.9713 10.278
20.9865 9.967
21.0017 9.762
21.0169 9.807
21.0320 9.977
21.0472 9.999
21.0624 9.959
21.0776 9.967
21.0927 9.957
21.1079 10.114
21.1231 9.906
21.1383 9.790
21.1534 9.789
21.1686 9.816
21.1838 9.929
21.1990 9.507
21.2141 9.556
21.2293 9.614
21.2445 9.836
21.2597 9.516
21.2748 9.632
21.2900 9.097
21.3052 9.574
21.3204 9.625
21.3355 9.524
21.3507 9.620
21.3659 9.439
21.3811 9.476
21.3962 9.313
21.4114 9.424
21.4266 9.201
21.4418 9.620
21.4569 9.550
21.4721 9.632
21.4873 9.202
21.5025 9.375
21.5176 9.407
21.5328 9.114
21.5480 9.244
21.5632 9.209
21.5783 9.160
21.5935 9.148
21.6087 9.301
21.6239 8.952
21.6390 9.181
21.6542 9.326
21.6694 9.129
21.6846 9.101
21.6997 9.221
21.7149 9.137
21.7301 9.120
21.7453 8.708
21.7604 8.745
21.7756 8.830
21.7908 9.041
21.8060 9.189
21.8211 9.031
21.8363 8.861
21.8515 8.981
21.8667 9.174
21.8818 8.976
21.8970 8.951
21.9122 9.202
21.9274 9.098
21.9425 8.822
21.9577 8.766
21.9729 8.830
21.9881 8.825
22.0032 8.709
22.0184 8.750
22.0336 8.780
22.0488 9.040
22.0639 8.887
22.0791 8.488
22.0943 8.599
22.1095 8.897
22.1246 8.737
22.1398 8.585
22.1550 8.546
22.1702 8.621
22.1853 8.733
22.2005 8.656
22.2157 8.628
22.2309 8.640
22.2460 8.644
22.2612 8.595
22.2764 8.672
22.2916 8.812
22.3067 8.717
22.3219 8.583
22.3371 8.607
22.3523 8.352
22.3674 8.325
22.3826 8.157
22.3978 8.415
22.4130 8.480
22.4281 8.416
22.4433 8.526
22.4585 8.616
22.4737 8.402
22.4888 8.215
22.5040 8.322
22.5192 8.519
22.5344 8.452
22.5495 8.382
22.5647 8.636
22.5799 8.404
22.5951 8.320
22.6102 7.984
22.6254 8.403
22.6406 8.047
22.6558 8.295
22.6709 8.392
22.6861 8.330
22.7013 8.371
22.7165 7.948
22.7316 6.309
