'Id: "" Comment: "" Operator: "Lab Manager" Anode: "Mo" Scantype: "Still (Eiger2R_500K (1D mode))" TimePerStep: "300" X: "11.8" Y: "9.4" Z: "11.284" 
7.2532 19.298
7.2684 18.968
7.2836 18.871
7.2987 18.970
7.3139 18.846
7.3291 19.123
7.3443 18.954
7.3594 19.533
7.3746 19.421
7.3898 19.075
7.4050 19.244
7.4201 19.364
7.4353 19.525
7.4505 19.323
7.4657 19.681
7.4808 19.696
7.4960 19.944
7.5112 19.782
7.5264 19.635
7.5415 19.798
7.5567 19.827
7.5719 19.913
7.5871 20.013
7.6022 20.252
7.6174 20.280
7.6326 19.947
7.6478 20.080
7.6629 20.403
7.6781 20.327
7.6933 20.449
7.7085 20.618
7.7236 20.665
7.7388 20.509
7.7540 20.446
7.7692 20.238
7.7843 20.352
7.7995 20.621
7.8147 20.383
7.8299 20.414
7.8450 20.505
7.8602 20.611
7.8754 20.857
7.8905 20.690
7.9057 20.564
7.9209 20.821
7.9361 20.977
7.9512 20.975
7.9664 21.289
7.9816 21.216
7.9968 21.009
8.0119 21.088
8.0271 21.366
8.0423 21.825
8.0575 21.566
8.0726 21.371
8.0878 21.246
8.1030 21.399
8.1182 21.159
8.1333 21.307
8.1485 21.825
8.1637 21.804
8.1789 21.157
8.1940 20.956
8.2092 21.155
8.2244 21.786
8.2396 21.476
8.2547 21.241
8.2699 21.714
8.2851 21.873
8.3003 21.591
8.3154 21.529
8.3306 21.553
8.3458 21.679
8.3610 21.795
8.3761 21.818
8.3913 22.055
8.4065 21.982
8.4217 21.915
8.4368 22.033
8.4520 21.968
8.4672 22.054
8.4824 22.590
8.4975 22.346
8.5127 22.385
8.5279 21.754
8.5431 22.311
8.5582 22.485
8.5734 22.112
8.5886 22.619
8.6038 22.452
8.6189 22.648
8.6341 22.701
8.6493 22.310
8.6645 22.424
8.6796 22.971
8.6948 22.577
8.7100 22.706
8.7252 22.363
8.7403 22.841
8.7555 22.234
8.7707 22.939
8.7859 22.902
8.8010 22.567
8.8162 22.285
8.8314 22.351
8.8466 22.540
8.8617 22.745
8.8769 23.067
8.8921 22.708
8.9073 22.661
8.9224 22.591
8.9376 22.503
8.9528 22.769
8.9680 22.840
8.9831 22.862
8.9983 23.335
9.0135 22.691
9.0287 22.608
9.0438 22.890
9.0590 22.593
9.0742 22.554
9.0894 22.661
9.1045 23.043
9.1197 23.265
9.1349 22.937
9.1501 22.824
9.1652 22.862
9.1804 23.220
9.1956 23.126
9.2108 22.920
9.2259 22.763
9.2411 22.705
9.2563 23.361
9.2715 23.427
9.2866 23.242
9.3018 23.230
9.3170 23.011
9.3322 23.620
9.3473 23.645
9.3625 23.188
9.3777 23.084
9.3929 23.125
9.4080 23.237
9.4232 23.124
9.4384 23.281
9.4536 23.528
9.4687 23.385
9.4839 23.264
9.4991 23.012
9.5143 23.066
9.5294 23.067
9.5446 23.047
9.5598 22.818
9.5750 23.015
9.5901 23.560
9.6053 23.542
9.6205 23.253
9.6357 23.513
9.6508 23.665
9.6660 23.595
9.6812 23.825
9.6964 23.715
9.7115 23.784
9.7267 24.041
9.7419 24.159
9.7571 24.280
9.7722 23.820
9.7874 23.445
9.8026 23.370
9.8178 23.552
9.8329 23.618
9.8481 23.630
9.8633 23.689
9.8785 23.374
9.8936 23.073
9.9088 23.377
9.9240 23.305
9.9392 23.283
9.9543 23.478
9.9695 23.522
9.9847 23.610
9.9999 23.503
10.0150 23.523
10.0302 23.734
10.0454 23.524
10.0606 23.182
10.0757 23.338
10.0909 23.228
10.1061 23.234
10.1213 23.311
10.1364 23.158
10.1516 23.116
10.1668 23.084
10.1820 23.419
10.1971 23.592
10.2123 23.708
10.2275 23.892
10.2427 23.840
10.2578 23.927
10.2730 23.729
10.2882 23.517
10.3034 23.399
10.3185 23.305
10.3337 23.538
10.3489 23.212
10.3641 23.194
10.3792 22.736
10.3944 22.863
10.4096 23.020
10.4248 23.077
10.4399 22.805
10.4551 22.981
10.4703 22.939
10.4855 22.617
10.5006 22.605
10.5158 22.776
10.5310 22.756
10.5462 22.576
10.5613 22.484
10.5765 22.751
10.5917 22.968
10.6069 22.833
10.6220 22.853
10.6372 22.972
10.6524 22.661
10.6676 22.511
10.6827 22.866
10.6979 22.614
10.7131 22.487
10.7283 22.626
10.7434 22.641
10.7586 22.493
10.7738 22.321
10.7890 22.589
10.8041 22.575
10.8193 22.483
10.8345 22.755
10.8497 22.723
10.8648 22.642
10.8800 22.251
10.8952 22.364
10.9104 22.559
10.9255 22.407
10.9407 22.192
10.9559 21.857
10.9711 21.822
10.9862 22.027
11.0014 22.305
11.0166 22.108
11.0318 22.154
11.0469 22.081
11.0621 21.657
11.0773 22.055
11.0925 21.880
11.1076 21.714
11.1228 21.870
11.1380 21.909
11.1532 21.871
11.1683 21.629
11.1835 21.765
11.1987 21.704
11.2139 21.807
11.2290 21.931
11.2442 21.902
11.2594 21.632
11.2746 21.740
11.2897 21.868
11.3049 21.577
11.3201 21.550
11.3353 21.515
11.3504 21.639
11.3656 21.719
11.3808 21.788
11.3960 21.565
11.4111 21.399
11.4263 21.466
11.4415 21.363
11.4567 21.101
11.4718 21.066
11.4870 21.237
11.5022 20.835
11.5174 20.825
11.5325 21.016
11.5477 21.098
11.5629 21.332
11.5781 20.901
11.5932 20.917
11.6084 20.632
11.6236 20.691
11.6388 20.754
11.6539 20.988
11.6691 20.890
11.6843 20.854
11.6995 20.587
11.7146 20.627
11.7298 20.544
11.7450 20.574
11.7602 20.369
11.7753 20.226
11.7905 20.291
11.8057 19.991
11.8209 20.185
11.8360 20.072
11.8512 19.917
11.8664 20.151
11.8816 20.141
11.8967 19.977
11.9119 19.811
11.9271 19.601
11.9423 19.404
11.9574 19.601
11.9726 19.228
11.9878 19.464
12.0030 19.250
12.0181 19.087
12.0333 19.074
12.0485 18.887
12.0637 18.963
12.0788 19.268
12.0940 19.122
12.1092 18.865
12.1244 19.056
12.1395 18.958
12.1547 18.485
12.1699 18.381
12.1851 18.498
12.2002 18.235
12.2154 18.172
12.2306 18.246
12.2458 17.931
12.2609 18.067
12.2761 18.030
12.2913 17.924
12.3065 17.776
12.3216 17.963
12.3368 17.546
12.3520 17.280
12.3672 17.440
12.3823 17.481
12.3975 17.320
12.4127 17.399
12.4279 17.149
12.4430 17.217
12.4582 17.270
12.4734 17.084
12.4886 16.982
12.5037 17.023
12.5189 17.081
12.5341 16.705
12.5493 16.554
12.5644 16.618
12.5796 16.751
12.5948 16.510
12.6100 16.285
12.6251 16.363
12.6403 16.187
12.6555 15.883
12.6707 15.857
12.6858 15.744
12.7010 15.671
12.7162 15.874
12.7314 15.855
12.7465 15.701
12.7617 15.505
12.7769 15.272
12.7921 15.204
12.8072 15.360
12.8224 15.524
12.8376 15.483
12.8528 15.379
12.8679 15.196
12.8831 14.852
12.8983 14.752
12.9135 14.868
12.9286 14.822
12.9438 14.691
12.9590 14.666
12.9742 14.759
12.9893 14.615
13.0045 14.157
13.0197 14.316
13.0349 14.364
13.0500 14.125
13.0652 14.091
13.0804 14.078
13.0956 14.141
13.1107 13.974
13.1259 13.892
13.1411 13.910
13.1563 13.741
13.1714 13.594
13.1866 13.567
13.2018 13.610
13.2170 13.626
13.2321 13.690
13.2473 13.510
13.2625 13.360
13.2777 13.372
13.2928 13.267
13.3080 13.433
13.3232 13.532
13.3384 13.392
13.3535 13.228
13.3687 13.165
13.3839 13.005
13.3991 13.111
13.4142 13.364
13.4294 13.211
13.4446 13.066
13.4598 12.839
13.4749 12.799
13.4901 12.944
13.5053 12.667
13.5205 12.584
13.5356 12.486
13.5508 12.519
13.5660 12.560
13.5812 12.095
13.5963 12.330
13.6115 12.599
13.6267 12.621
13.6419 12.510
13.6570 12.323
13.6722 12.150
13.6874 12.190
13.7026 12.284
13.7177 12.282
13.7329 12.288
13.7481 12.369
13.7633 12.405
13.7784 12.344
13.7936 12.334
13.8088 12.307
13.8239 12.369
13.8391 12.568
13.8543 12.306
13.8695 12.427
13.8846 12.281
13.8998 12.121
13.9150 11.987
13.9302 12.030
13.9453 12.373
13.9605 12.212
13.9757 11.957
13.9909 11.844
14.0060 11.521
14.0212 11.921
14.0364 12.032
14.0516 11.534
14.0667 11.631
14.0819 11.951
14.0971 11.766
14.1123 11.872
14.1274 11.339
14.1426 11.524
14.1578 11.785
14.1730 11.607
14.1881 11.531
14.2033 11.607
14.2185 11.584
14.2337 11.911
14.2488 11.968
14.2640 11.604
14.2792 11.685
14.2944 11.632
14.3095 11.586
14.3247 11.908
14.3399 12.079
14.3551 12.301
14.3702 12.402
14.3854 12.284
14.4006 12.388
14.4158 12.467
14.4309 12.267
14.4461 12.272
14.4613 12.388
14.4765 11.918
14.4916 11.752
14.5068 11.658
14.5220 11.420
14.5372 11.290
14.5523 11.026
14.5675 11.485
14.5827 11.174
14.5979 11.305
14.6130 10.875
14.6282 11.112
14.6434 11.004
14.6586 10.801
14.6737 10.914
14.6889 10.946
14.7041 10.576
14.7193 11.055
14.7344 10.898
14.7496 10.597
14.7648 11.236
14.7800 10.998
14.7951 10.888
14.8103 10.973
14.8255 10.625
14.8407 10.571
14.8558 10.887
14.8710 10.777
14.8862 10.993
14.9014 10.864
14.9165 10.666
14.9317 10.916
14.9469 10.749
14.9621 10.651
14.9772 10.103
14.9924 10.457
15.0076 10.462
15.0228 10.092
15.0379 10.583
15.0531 10.766
15.0683 10.726
15.0835 10.628
15.0986 10.514
15.1138 10.617
15.1290 10.392
15.1442 10.763
15.1593 10.402
15.1745 10.285
15.1897 10.400
15.2049 10.144
15.2200 10.347
15.2352 10.206
15.2504 10.146
15.2656 10.098
15.2807 10.449
15.2959 10.173
15.3111 10.300
15.3263 10.262
15.3414 10.400
15.3566 10.440
15.3718 10.236
15.3870 10.782
15.4021 10.430
15.4173 10.201
15.4325 10.815
15.4477 10.715
15.4628 10.493
15.4780 10.407
15.4932 10.550
15.5084 10.532
15.5235 10.454
15.5387 10.339
15.5539 10.226
15.5691 10.054
15.5842 10.147
15.5994 10.501
15.6146 10.002
15.6298 9.931
15.6449 10.150
15.6601 9.874
15.6753 10.362
15.6905 10.293
15.7056 10.199
15.7208 9.969
15.7360 9.873
15.7512 9.890
15.7663 10.077
15.7815 9.738
15.7967 9.935
15.8119 9.950
15.8270 9.915
15.8422 9.772
15.8574 9.893
15.8726 9.654
15.8877 9.896
15.9029 9.943
15.9181 10.167
15.9333 9.614
15.9484 9.424
15.9636 9.832
15.9788 9.834
15.9940 9.821
16.0091 10.066
16.0243 9.642
16.0395 9.478
16.0547 9.622
16.0698 9.772
16.0850 9.710
16.1002 9.550
16.1154 9.559
16.1305 9.754
16.1457 9.652
16.1609 9.925
16.1761 9.971
16.1912 9.669
16.2064 9.624
16.2216 9.947
16.2368 10.000
16.2519 10.083
16.2671 9.923
16.2823 10.011
16.2975 10.040
16.3126 9.981
16.3278 10.033
16.3430 10.104
16.3582 9.946
16.3733 10.060
16.3885 10.009
16.4037 10.091
16.4189 9.946
16.4340 9.987
16.4492 10.220
16.4644 10.135
16.4796 9.921
16.4947 10.173
16.5099 9.940
16.5251 9.882
16.5403 9.908
16.5554 9.785
16.5706 9.729
16.5858 9.857
16.6010 9.932
16.6161 9.779
16.6313 9.800
16.6465 10.052
16.6617 10.131
16.6768 9.902
16.6920 9.847
16.7072 10.017
16.7224 10.072
16.7375 9.860
16.7527 9.887
16.7679 9.961
16.7831 9.957
16.7982 9.911
16.8134 9.864
16.8286 9.967
16.8438 9.954
16.8589 9.878
16.8741 9.978
16.8893 9.752
16.9045 9.808
16.9196 9.995
16.9348 9.914
16.9500 9.845
16.9652 10.106
16.9803 10.217
16.9955 10.029
17.0107 9.986
17.0259 10.103
17.0410 10.262
17.0562 10.298
17.0714 10.298
17.0866 10.473
17.1017 10.701
17.1169 11.050
17.1321 11.233
17.1473 11.496
17.1624 12.076
17.1776 12.363
17.1928 12.937
17.2080 14.107
17.2231 15.536
17.2383 16.718
17.2535 17.828
17.2687 18.780
17.2838 18.909
17.2990 18.399
17.3142 17.398
17.3294 16.477
17.3445 16.220
17.3597 16.472
17.3749 16.241
17.3901 15.104
17.4052 14.211
17.4204 13.228
17.4356 12.303
17.4508 12.071
17.4659 11.844
17.4811 11.693
17.4963 11.278
17.5115 10.983
17.5266 11.076
17.5418 10.969
17.5570 10.996
17.5722 11.124
17.5873 11.032
17.6025 10.886
17.6177 10.815
17.6329 10.745
17.6480 10.937
17.6632 11.246
17.6784 10.912
17.6936 10.438
17.7087 10.436
17.7239 10.413
17.7391 10.333
17.7543 10.243
17.7694 10.103
17.7846 9.960
17.7998 10.032
17.8150 10.074
17.8301 9.983
17.8453 10.080
17.8605 10.006
17.8757 10.098
17.8908 10.153
17.9060 10.211
17.9212 10.355
17.9364 10.343
17.9515 10.225
17.9667 10.180
17.9819 10.141
17.9971 10.245
18.0122 10.201
18.0274 10.033
18.0426 10.048
18.0578 10.365
18.0729 10.370
18.0881 10.084
18.1033 10.225
18.1185 10.198
18.1336 10.019
18.1488 10.038
18.1640 9.980
18.1792 9.920
18.1943 9.987
18.2095 9.910
18.2247 9.791
18.2399 9.799
18.2550 9.890
18.2702 10.041
18.2854 10.023
18.3006 9.946
18.3157 9.802
18.3309 9.548
18.3461 9.822
18.3613 9.796
18.3764 9.785
18.3916 9.945
18.4068 9.718
18.4220 9.768
18.4371 9.898
18.4523 9.828
18.4675 9.790
18.4827 9.753
18.4978 9.847
18.5130 9.848
18.5282 9.796
18.5434 9.896
18.5585 9.729
18.5737 9.745
18.5889 9.977
18.6041 9.862
18.6192 9.766
18.6344 9.705
18.6496 9.656
18.6648 9.670
18.6799 9.773
18.6951 9.790
18.7103 9.876
18.7255 9.908
18.7406 9.899
18.7558 9.746
18.7710 9.582
18.7862 9.823
18.8013 9.842
18.8165 9.500
18.8317 9.860
18.8469 10.081
18.8620 9.843
18.8772 9.832
18.8924 9.790
18.9076 9.628
18.9227 9.818
18.9379 10.054
18.9531 10.123
18.9683 10.099
18.9834 10.000
18.9986 9.978
19.0138 10.178
19.0290 10.155
19.0441 10.059
19.0593 9.999
19.0745 10.236
19.0897 10.544
19.1048 10.587
19.1200 10.436
19.1352 10.357
19.1504 10.517
19.1655 10.614
19.1807 10.654
19.1959 10.761
19.2111 10.628
19.2262 10.548
19.2414 10.604
19.2566 10.754
19.2718 11.056
19.2869 10.938
19.3021 10.896
19.3173 11.190
19.3325 11.019
19.3476 10.975
19.3628 10.989
19.3780 10.948
19.3932 11.255
19.4083 11.428
19.4235 11.278
19.4387 11.237
19.4539 11.230
19.4690 11.233
19.4842 11.220
19.4994 11.384
19.5146 11.495
19.5297 11.452
19.5449 11.688
19.5601 11.727
19.5753 11.683
19.5904 11.553
19.6056 11.614
19.6208 11.903
19.6360 11.736
19.6511 11.631
19.6663 11.752
19.6815 11.882
19.6967 11.714
19.7118 11.656
19.7270 11.697
19.7422 11.741
19.7574 11.656
19.7725 11.648
19.7877 11.983
19.8029 12.007
19.8180 11.984
19.8332 12.172
19.8484 12.471
19.8636 12.731
19.8787 12.599
19.8939 12.733
19.9091 13.083
19.9243 13.196
19.9394 13.493
19.9546 14.076
19.9698 14.622
19.9850 14.855
20.0001 14.515
20.0153 14.295
20.0305 14.186
20.0457 14.088
20.0608 13.883
20.0760 13.608
20.0912 13.483
20.1064 13.616
20.1215 13.261
20.1367 13.091
20.1519 13.153
20.1671 13.149
20.1822 13.045
20.1974 12.707
20.2126 12.778
20.2278 12.862
20.2429 12.606
20.2581 12.395
20.2733 12.280
20.2885 11.871
20.3036 11.588
20.3188 11.514
20.3340 11.547
20.3492 11.539
20.3643 11.538
20.3795 11.478
20.3947 11.281
20.4099 11.090
20.4250 10.959
20.4402 10.828
20.4554 10.837
20.4706 10.898
20.4857 10.686
20.5009 10.703
20.5161 10.693
20.5313 10.674
20.5464 10.697
20.5616 10.822
20.5768 10.710
20.5920 10.528
20.6071 10.406
20.6223 10.789
20.6375 10.525
20.6527 10.682
20.6678 10.889
20.6830 10.679
20.6982 10.476
20.7134 10.397
20.7285 10.420
20.7437 10.390
20.7589 10.283
20.7741 10.201
20.7892 10.500
20.8044 10.452
20.8196 10.196
20.8348 9.948
20.8499 10.104
20.8651 10.396
20.8803 10.478
20.8955 10.229
20.9106 10.166
20.9258 10.257
20.9410 10.334
20.9562 10.235
20.9713 9.821
20.9865 10.365
21.0017 10.189
21.0169 10.088
21.0320 9.910
21.0472 10.219
21.0624 10.113
21.0776 9.865
21.0927 10.077
21.1079 9.991
21.1231 9.697
21.1383 9.858
21.1534 9.802
21.1686 9.692
21.1838 9.551
21.1990 9.784
21.2141 9.681
21.2293 9.811
21.2445 9.723
21.2597 9.455
21.2748 9.679
21.2900 9.839
21.3052 9.771
21.3204 9.449
21.3355 9.340
21.3507 9.502
21.3659 9.761
21.3811 9.741
21.3962 9.585
21.4114 9.756
21.4266 9.253
21.4418 9.567
21.4569 9.698
21.4721 9.593
21.4873 9.449
21.5025 9.648
21.5176 9.647
21.5328 9.337
21.5480 9.112
21.5632 9.271
21.5783 9.088
21.5935 9.428
21.6087 9.311
21.6239 9.310
21.6390 9.433
21.6542 9.415
21.6694 9.179
21.6846 9.141
21.6997 9.171
21.7149 9.217
21.7301 9.387
21.7453 9.223
21.7604 9.170
21.7756 9.122
21.7908 9.129
21.8060 8.951
21.8211 8.917
21.8363 9.020
21.8515 9.083
21.8667 9.149
21.8818 9.161
21.8970 9.118
21.9122 9.091
21.9274 8.899
21.9425 8.894
21.9577 9.010
21.9729 9.061
21.9881 8.788
22.0032 8.795
22.0184 9.105
22.0336 9.015
22.0488 8.863
22.0639 8.825
22.0791 8.759
22.0943 8.736
22.1095 8.762
22.1246 8.796
22.1398 8.590
22.1550 8.501
22.1702 8.811
22.1853 8.828
22.2005 8.924
22.2157 8.862
22.2309 8.898
22.2460 8.829
22.2612 8.703
22.2764 8.578
22.2916 8.585
22.3067 8.576
22.3219 8.682
22.3371 8.518
22.3523 8.458
22.3674 8.529
22.3826 8.501
22.3978 8.692
22.4130 8.503
22.4281 8.685
22.4433 8.554
22.4585 8.668
22.4737 8.711
22.4888 8.398
22.5040 8.320
22.5192 8.470
22.5344 8.474
22.5495 8.525
22.5647 8.929
22.5799 8.864
22.5951 8.597
22.6102 8.669
22.6254 8.375
22.6406 8.357
22.6558 8.322
22.6709 8.418
22.6861 8.657
22.7013 8.403
22.7165 7.755
22.7316 6.307
