'Id: "" Comment: "" Operator: "Lab Manager" Anode: "Mo" Scantype: "Still (Eiger2R_500K (1D mode))" TimePerStep: "300" X: "11.8" Y: "9.4" Z: "11.284" 
7.2532 18.873
7.2684 18.616
7.2836 19.151
7.2987 19.212
7.3139 18.843
7.3291 18.876
7.3443 19.132
7.3594 18.913
7.3746 19.268
7.3898 19.253
7.4050 19.413
7.4201 19.453
7.4353 19.569
7.4505 19.346
7.4657 19.339
7.4808 19.282
7.4960 19.530
7.5112 19.557
7.5264 19.925
7.5415 19.654
7.5567 19.683
7.5719 19.691
7.5871 19.770
7.6022 19.923
7.6174 19.902
7.6326 19.855
7.6478 19.975
7.6629 20.289
7.6781 20.201
7.6933 20.055
7.7085 20.235
7.7236 20.288
7.7388 20.182
7.7540 20.186
7.7692 20.016
7.7843 20.151
7.7995 20.407
7.8147 20.424
7.8299 20.545
7.8450 20.570
7.8602 20.489
7.8754 20.555
7.8905 20.713
7.9057 20.584
7.9209 20.804
7.9361 21.110
7.9512 20.850
7.9664 20.793
7.9816 20.946
7.9968 20.619
8.0119 20.450
8.0271 20.734
8.0423 21.210
8.0575 21.181
8.0726 21.018
8.0878 21.410
8.1030 21.109
8.1182 20.981
8.1333 21.057
8.1485 21.630
8.1637 21.586
8.1789 21.386
8.1940 21.519
8.2092 21.715
8.2244 21.356
8.2396 21.386
8.2547 21.156
8.2699 20.885
8.2851 21.352
8.3003 21.605
8.3154 21.211
8.3306 21.630
8.3458 21.681
8.3610 21.991
8.3761 21.827
8.3913 22.035
8.4065 21.900
8.4217 21.509
8.4368 22.423
8.4520 22.272
8.4672 21.437
8.4824 21.509
8.4975 21.596
8.5127 22.068
8.5279 21.761
8.5431 21.576
8.5582 22.278
8.5734 22.403
8.5886 22.087
8.6038 22.299
8.6189 22.234
8.6341 22.049
8.6493 22.044
8.6645 22.029
8.6796 22.103
8.6948 22.549
8.7100 22.361
8.7252 21.902
8.7403 22.181
8.7555 22.325
8.7707 22.661
8.7859 22.396
8.8010 22.616
8.8162 22.335
8.8314 22.716
8.8466 22.717
8.8617 21.987
8.8769 22.265
8.8921 22.267
8.9073 22.331
8.9224 22.400
8.9376 22.464
8.9528 22.790
8.9680 22.538
8.9831 22.689
8.9983 22.997
9.0135 22.675
9.0287 22.739
9.0438 22.273
9.0590 22.282
9.0742 22.818
9.0894 22.647
9.1045 22.837
9.1197 22.575
9.1349 22.478
9.1501 22.695
9.1652 22.512
9.1804 22.965
9.1956 22.885
9.2108 22.648
9.2259 22.445
9.2411 22.701
9.2563 22.727
9.2715 22.902
9.2866 22.745
9.3018 22.859
9.3170 23.038
9.3322 22.977
9.3473 23.026
9.3625 23.283
9.3777 23.131
9.3929 23.030
9.4080 23.012
9.4232 22.467
9.4384 22.668
9.4536 22.888
9.4687 22.891
9.4839 23.200
9.4991 23.508
9.5143 23.281
9.5294 23.194
9.5446 23.490
9.5598 23.512
9.5750 23.305
9.5901 23.383
9.6053 23.177
9.6205 23.192
9.6357 23.387
9.6508 23.376
9.6660 23.613
9.6812 23.685
9.6964 23.482
9.7115 23.965
9.7267 24.007
9.7419 23.956
9.7571 24.260
9.7722 24.049
9.7874 23.857
9.8026 23.780
9.8178 23.245
9.8329 23.242
9.8481 23.764
9.8633 23.548
9.8785 23.055
9.8936 23.113
9.9088 23.370
9.9240 23.418
9.9392 23.345
9.9543 23.302
9.9695 23.325
9.9847 23.332
9.9999 23.294
10.0150 23.445
10.0302 23.391
10.0454 23.084
10.0606 23.103
10.0757 23.217
10.0909 23.107
10.1061 23.138
10.1213 23.179
10.1364 23.097
10.1516 23.335
10.1668 23.569
10.1820 23.335
10.1971 23.237
10.2123 23.199
10.2275 22.936
10.2427 23.070
10.2578 23.098
10.2730 23.039
10.2882 23.040
10.3034 22.718
10.3185 22.666
10.3337 22.833
10.3489 22.604
10.3641 22.719
10.3792 23.130
10.3944 23.137
10.4096 22.603
10.4248 22.836
10.4399 22.700
10.4551 22.745
10.4703 22.887
10.4855 22.864
10.5006 22.510
10.5158 22.097
10.5310 22.536
10.5462 22.350
10.5613 22.374
10.5765 22.652
10.5917 22.643
10.6069 22.461
10.6220 22.713
10.6372 22.742
10.6524 22.613
10.6676 22.435
10.6827 22.176
10.6979 22.366
10.7131 22.158
10.7283 22.139
10.7434 22.192
10.7586 22.597
10.7738 22.365
10.7890 22.212
10.8041 22.321
10.8193 22.058
10.8345 21.764
10.8497 21.701
10.8648 22.052
10.8800 21.878
10.8952 22.116
10.9104 22.349
10.9255 22.067
10.9407 22.242
10.9559 21.702
10.9711 21.733
10.9862 22.083
11.0014 21.910
11.0166 22.102
11.0318 22.107
11.0469 21.821
11.0621 21.834
11.0773 21.978
11.0925 22.025
11.1076 21.739
11.1228 21.511
11.1380 21.650
11.1532 21.671
11.1683 21.392
11.1835 21.628
11.1987 21.944
11.2139 21.744
11.2290 21.754
11.2442 21.796
11.2594 21.654
11.2746 21.685
11.2897 21.511
11.3049 21.532
11.3201 21.644
11.3353 21.474
11.3504 21.010
11.3656 21.291
11.3808 21.367
11.3960 21.384
11.4111 21.221
11.4263 21.227
11.4415 21.529
11.4567 21.518
11.4718 21.190
11.4870 21.182
11.5022 21.253
11.5174 20.896
11.5325 20.716
11.5477 20.720
11.5629 20.501
11.5781 20.628
11.5932 21.023
11.6084 20.633
11.6236 20.616
11.6388 20.389
11.6539 20.441
11.6691 20.648
11.6843 20.441
11.6995 20.416
11.7146 20.239
11.7298 20.552
11.7450 20.335
11.7602 20.128
11.7753 20.157
11.7905 20.203
11.8057 20.106
11.8209 20.069
11.8360 19.737
11.8512 19.641
11.8664 19.947
11.8816 19.826
11.8967 19.382
11.9119 19.514
11.9271 19.452
11.9423 19.302
11.9574 19.400
11.9726 19.134
11.9878 19.240
12.0030 19.584
12.0181 19.206
12.0333 19.000
12.0485 18.710
12.0637 18.961
12.0788 18.987
12.0940 18.772
12.1092 18.988
12.1244 18.723
12.1395 18.373
12.1547 18.152
12.1699 18.208
12.1851 18.487
12.2002 18.393
12.2154 18.292
12.2306 18.094
12.2458 18.247
12.2609 18.069
12.2761 17.793
12.2913 17.975
12.3065 17.586
12.3216 17.440
12.3368 17.548
12.3520 17.488
12.3672 17.316
12.3823 17.414
12.3975 17.621
12.4127 17.165
12.4279 17.192
12.4430 17.218
12.4582 17.016
12.4734 16.631
12.4886 16.444
12.5037 16.576
12.5189 16.856
12.5341 16.746
12.5493 16.387
12.5644 16.299
12.5796 16.139
12.5948 16.344
12.6100 16.237
12.6251 16.079
12.6403 16.053
12.6555 15.730
12.6707 15.797
12.6858 15.716
12.7010 15.615
12.7162 15.838
12.7314 15.536
12.7465 15.328
12.7617 15.194
12.7769 15.104
12.7921 15.304
12.8072 15.303
12.8224 15.406
12.8376 15.190
12.8528 15.036
12.8679 14.660
12.8831 14.728
12.8983 14.692
12.9135 14.434
12.9286 14.643
12.9438 14.456
12.9590 14.241
12.9742 14.225
12.9893 14.018
13.0045 13.952
13.0197 14.079
13.0349 14.002
13.0500 14.120
13.0652 13.965
13.0804 13.741
13.0956 13.926
13.1107 14.106
13.1259 13.868
13.1411 13.648
13.1563 13.658
13.1714 13.507
13.1866 13.492
13.2018 13.601
13.2170 13.531
13.2321 13.355
13.2473 13.261
13.2625 13.200
13.2777 13.293
13.2928 13.373
13.3080 13.324
13.3232 13.115
13.3384 13.068
13.3535 13.113
13.3687 12.968
13.3839 13.085
13.3991 13.178
13.4142 13.190
13.4294 13.124
13.4446 12.690
13.4598 12.619
13.4749 12.492
13.4901 12.419
13.5053 12.397
13.5205 12.573
13.5356 12.630
13.5508 12.410
13.5660 12.556
13.5812 12.554
13.5963 12.021
13.6115 12.231
13.6267 12.389
13.6419 12.080
13.6570 12.187
13.6722 12.323
13.6874 11.963
13.7026 11.792
13.7177 11.952
13.7329 11.964
13.7481 12.125
13.7633 12.174
13.7784 12.075
13.7936 11.921
13.8088 11.940
13.8239 12.160
13.8391 12.068
13.8543 12.288
13.8695 12.673
13.8846 12.364
13.8998 12.078
13.9150 12.088
13.9302 12.247
13.9453 12.034
13.9605 11.725
13.9757 11.569
13.9909 11.645
14.0060 11.678
14.0212 11.688
14.0364 11.672
14.0516 11.578
14.0667 11.663
14.0819 11.875
14.0971 11.833
14.1123 11.633
14.1274 11.635
14.1426 11.985
14.1578 11.861
14.1730 11.606
14.1881 11.840
14.2033 12.027
14.2185 11.843
14.2337 11.873
14.2488 11.858
14.2640 11.774
14.2792 11.896
14.2944 11.726
14.3095 12.220
14.3247 12.261
14.3399 12.131
14.3551 12.663
14.3702 12.757
14.3854 12.917
14.4006 12.980
14.4158 12.858
14.4309 12.793
14.4461 12.517
14.4613 12.457
14.4765 12.711
14.4916 12.007
14.5068 12.217
14.5220 11.868
14.5372 11.552
14.5523 11.321
14.5675 11.022
14.5827 11.124
14.5979 10.957
14.6130 10.766
14.6282 10.737
14.6434 10.743
14.6586 10.663
14.6737 10.699
14.6889 10.555
14.7041 10.737
14.7193 10.807
14.7344 10.750
14.7496 10.579
14.7648 10.880
14.7800 10.924
14.7951 10.474
14.8103 10.816
14.8255 10.745
14.8407 10.460
14.8558 10.319
14.8710 10.565
14.8862 10.466
14.9014 10.277
14.9165 10.769
14.9317 10.772
14.9469 10.419
14.9621 10.507
14.9772 10.272
14.9924 10.436
15.0076 10.502
15.0228 10.164
15.0379 10.398
15.0531 10.410
15.0683 10.234
15.0835 10.280
15.0986 9.984
15.1138 9.907
15.1290 10.226
15.1442 10.274
15.1593 10.234
15.1745 10.128
15.1897 9.883
15.2049 10.254
15.2200 10.136
15.2352 9.792
15.2504 10.291
15.2656 10.251
15.2807 9.863
15.2959 10.065
15.3111 10.290
15.3263 9.974
15.3414 10.213
15.3566 10.079
15.3718 10.383
15.3870 10.048
15.4021 10.296
15.4173 10.196
15.4325 10.113
15.4477 10.237
15.4628 10.125
15.4780 10.209
15.4932 9.861
15.5084 9.976
15.5235 9.780
15.5387 9.978
15.5539 10.103
15.5691 9.839
15.5842 9.853
15.5994 9.962
15.6146 9.795
15.6298 9.694
15.6449 10.152
15.6601 9.924
15.6753 9.813
15.6905 9.937
15.7056 9.745
15.7208 9.817
15.7360 9.543
15.7512 9.630
15.7663 9.943
15.7815 9.660
15.7967 9.813
15.8119 9.713
15.8270 9.615
15.8422 9.803
15.8574 9.897
15.8726 9.581
15.8877 9.478
15.9029 9.592
15.9181 9.556
15.9333 9.513
15.9484 9.579
15.9636 10.040
15.9788 9.823
15.9940 9.708
16.0091 9.451
16.0243 9.454
16.0395 9.699
16.0547 9.718
16.0698 10.008
16.0850 9.738
16.1002 9.587
16.1154 9.756
16.1305 9.734
16.1457 9.602
16.1609 9.623
16.1761 9.647
16.1912 9.671
16.2064 9.724
16.2216 9.574
16.2368 9.692
16.2519 9.657
16.2671 9.693
16.2823 9.547
16.2975 9.609
16.3126 9.541
16.3278 9.700
16.3430 9.729
16.3582 9.912
16.3733 9.532
16.3885 9.822
16.4037 9.868
16.4189 9.809
16.4340 9.862
16.4492 9.748
16.4644 9.877
16.4796 9.928
16.4947 9.902
16.5099 9.893
16.5251 10.055
16.5403 9.857
16.5554 9.659
16.5706 9.637
16.5858 9.803
16.6010 9.536
16.6161 9.483
16.6313 9.814
16.6465 9.818
16.6617 9.694
16.6768 9.561
16.6920 9.804
16.7072 10.058
16.7224 10.263
16.7375 10.190
16.7527 9.977
16.7679 9.746
16.7831 9.692
16.7982 10.027
16.8134 9.952
16.8286 9.941
16.8438 10.025
16.8589 10.067
16.8741 9.828
16.8893 9.838
16.9045 9.750
16.9196 9.743
16.9348 9.924
16.9500 9.715
16.9652 9.516
16.9803 9.711
16.9955 9.798
17.0107 9.916
17.0259 9.925
17.0410 9.998
17.0562 10.210
17.0714 10.157
17.0866 10.213
17.1017 10.584
17.1169 10.668
17.1321 10.937
17.1473 11.416
17.1624 11.607
17.1776 12.102
17.1928 13.105
17.2080 13.973
17.2231 15.032
17.2383 16.560
17.2535 17.949
17.2687 18.894
17.2838 18.980
17.2990 18.252
17.3142 17.057
17.3294 16.311
17.3445 16.326
17.3597 16.193
17.3749 16.037
17.3901 15.610
17.4052 14.522
17.4204 13.338
17.4356 12.727
17.4508 12.416
17.4659 12.053
17.4811 11.843
17.4963 11.556
17.5115 11.365
17.5266 11.084
17.5418 11.016
17.5570 11.185
17.5722 11.163
17.5873 11.039
17.6025 10.980
17.6177 11.120
17.6329 11.111
17.6480 11.247
17.6632 11.432
17.6784 11.554
17.6936 11.521
17.7087 11.534
17.7239 11.544
17.7391 11.348
17.7543 11.091
17.7694 10.963
17.7846 11.051
17.7998 10.949
17.8150 10.766
17.8301 10.714
17.8453 10.410
17.8605 10.162
17.8757 10.286
17.8908 10.389
17.9060 10.454
17.9212 10.498
17.9364 10.335
17.9515 10.157
17.9667 10.005
17.9819 9.989
17.9971 10.169
18.0122 10.295
18.0274 10.369
18.0426 10.357
18.0578 10.436
18.0729 10.347
18.0881 10.166
18.1033 10.005
18.1185 9.846
18.1336 9.897
18.1488 10.058
18.1640 10.081
18.1792 9.870
18.1943 9.964
18.2095 9.908
18.2247 9.914
18.2399 10.087
18.2550 9.941
18.2702 9.680
18.2854 9.736
18.3006 9.979
18.3157 10.038
18.3309 10.109
18.3461 9.929
18.3613 9.893
18.3764 9.841
18.3916 9.746
18.4068 9.816
18.4220 9.909
18.4371 9.768
18.4523 9.784
18.4675 9.805
18.4827 9.711
18.4978 9.913
18.5130 10.007
18.5282 9.929
18.5434 9.829
18.5585 9.975
18.5737 9.841
18.5889 9.595
18.6041 9.746
18.6192 9.841
18.6344 9.787
18.6496 9.907
18.6648 9.704
18.6799 9.847
18.6951 9.857
18.7103 9.662
18.7255 9.813
18.7406 10.034
18.7558 9.925
18.7710 9.743
18.7862 10.026
18.8013 9.945
18.8165 9.667
18.8317 9.776
18.8469 9.893
18.8620 10.163
18.8772 10.297
18.8924 10.196
18.9076 9.884
18.9227 9.832
18.9379 9.946
18.9531 10.055
18.9683 10.211
18.9834 10.307
18.9986 9.999
19.0138 9.996
19.0290 10.068
19.0441 10.127
19.0593 10.322
19.0745 10.375
19.0897 10.170
19.1048 10.118
19.1200 10.322
19.1352 10.683
19.1504 10.565
19.1655 10.492
19.1807 10.623
19.1959 10.626
19.2111 10.782
19.2262 10.532
19.2414 10.530
19.2566 10.764
19.2718 10.898
19.2869 10.965
19.3021 10.930
19.3173 11.141
19.3325 11.207
19.3476 11.313
19.3628 11.228
19.3780 11.216
19.3932 11.226
19.4083 11.313
19.4235 11.457
19.4387 11.476
19.4539 11.459
19.4690 11.428
19.4842 11.536
19.4994 11.591
19.5146 11.455
19.5297 11.327
19.5449 11.423
19.5601 11.554
19.5753 11.549
19.5904 11.541
19.6056 11.704
19.6208 12.033
19.6360 11.963
19.6511 11.839
19.6663 11.766
19.6815 11.648
19.6967 11.766
19.7118 11.988
19.7270 11.823
19.7422 11.720
19.7574 11.777
19.7725 11.793
19.7877 11.906
19.8029 11.963
19.8180 11.985
19.8332 12.002
19.8484 12.213
19.8636 12.483
19.8787 12.717
19.8939 12.961
19.9091 12.914
19.9243 13.426
19.9394 13.966
19.9546 14.310
19.9698 14.530
19.9850 14.452
20.0001 14.401
20.0153 14.280
20.0305 14.064
20.0457 13.962
20.0608 13.839
20.0760 13.824
20.0912 13.594
20.1064 13.482
20.1215 13.265
20.1367 13.285
20.1519 13.136
20.1671 12.841
20.1822 12.924
20.1974 12.790
20.2126 12.821
20.2278 13.155
20.2429 12.905
20.2581 12.440
20.2733 12.257
20.2885 12.204
20.3036 12.099
20.3188 12.024
20.3340 12.116
20.3492 12.126
20.3643 11.850
20.3795 12.003
20.3947 12.071
20.4099 11.546
20.4250 11.535
20.4402 11.818
20.4554 11.756
20.4706 11.645
20.4857 11.679
20.5009 11.760
20.5161 11.596
20.5313 11.563
20.5464 11.354
20.5616 11.348
20.5768 11.297
20.5920 11.138
20.6071 11.224
20.6223 11.143
20.6375 11.142
20.6527 10.772
20.6678 10.363
20.6830 10.591
20.6982 10.825
20.7134 10.586
20.7285 10.607
20.7437 10.692
20.7589 10.513
20.7741 10.586
20.7892 10.443
20.8044 10.340
20.8196 10.409
20.8348 10.188
20.8499 10.246
20.8651 10.398
20.8803 10.328
20.8955 10.269
20.9106 10.335
20.9258 9.977
20.9410 10.225
20.9562 10.212
20.9713 10.061
20.9865 9.966
21.0017 9.974
21.0169 9.984
21.0320 9.998
21.0472 10.088
21.0624 10.046
21.0776 10.186
21.0927 9.816
21.1079 9.865
21.1231 9.719
21.1383 9.909
21.1534 9.644
21.1686 9.831
21.1838 9.692
21.1990 9.998
21.2141 10.047
21.2293 9.516
21.2445 9.601
21.2597 9.584
21.2748 9.484
21.2900 9.640
21.3052 9.880
21.3204 9.627
21.3355 9.760
21.3507 9.559
21.3659 9.356
21.3811 9.326
21.3962 9.620
21.4114 9.464
21.4266 9.399
21.4418 9.378
21.4569 9.193
21.4721 9.391
21.4873 9.587
21.5025 9.225
21.5176 9.475
21.5328 9.406
21.5480 9.456
21.5632 9.294
21.5783 9.164
21.5935 9.168
21.6087 9.243
21.6239 9.342
21.6390 8.964
21.6542 9.345
21.6694 9.254
21.6846 9.238
21.6997 9.337
21.7149 9.278
21.7301 9.207
21.7453 9.247
21.7604 8.976
21.7756 8.910
21.7908 9.086
21.8060 8.941
21.8211 9.184
21.8363 9.155
21.8515 8.816
21.8667 9.150
21.8818 9.202
21.8970 8.960
21.9122 8.925
21.9274 8.938
21.9425 9.035
21.9577 8.959
21.9729 8.704
21.9881 8.620
22.0032 8.664
22.0184 8.619
22.0336 8.840
22.0488 8.977
22.0639 8.701
22.0791 8.624
22.0943 8.722
22.1095 8.807
22.1246 8.680
22.1398 8.724
22.1550 8.735
22.1702 8.493
22.1853 8.759
22.2005 8.829
22.2157 8.660
22.2309 8.662
22.2460 8.726
22.2612 8.660
22.2764 8.326
22.2916 8.436
22.3067 8.619
22.3219 8.765
22.3371 8.761
22.3523 8.618
22.3674 8.577
22.3826 8.344
22.3978 8.674
22.4130 8.605
22.4281 8.492
22.4433 8.387
22.4585 8.232
22.4737 8.283
22.4888 8.444
22.5040 8.238
22.5192 8.452
22.5344 8.518
22.5495 8.330
22.5647 8.468
22.5799 8.318
22.5951 8.355
22.6102 8.522
22.6254 8.302
22.6406 8.455
22.6558 8.215
22.6709 8.103
22.6861 8.200
22.7013 8.374
22.7165 8.024
22.7316 6.315
