'Id: "" Comment: "" Operator: "Lab Manager" Anode: "Mo" Scantype: "Still (Eiger2R_500K (1D mode))" TimePerStep: "300" X: "11.8" Y: "9.4" Z: "11.284" 
7.2532 18.571
7.2684 18.774
7.2836 19.175
7.2987 18.676
7.3139 19.013
7.3291 18.813
7.3443 18.974
7.3594 19.345
7.3746 19.487
7.3898 18.778
7.4050 19.346
7.4201 19.552
7.4353 19.182
7.4505 19.387
7.4657 19.056
7.4808 19.346
7.4960 19.357
7.5112 19.707
7.5264 19.663
7.5415 19.643
7.5567 19.477
7.5719 19.722
7.5871 19.860
7.6022 19.780
7.6174 20.163
7.6326 20.101
7.6478 20.102
7.6629 19.881
7.6781 19.974
7.6933 19.927
7.7085 19.964
7.7236 20.161
7.7388 20.623
7.7540 20.932
7.7692 20.674
7.7843 20.855
7.7995 20.581
7.8147 20.155
7.8299 20.399
7.8450 20.553
7.8602 20.225
7.8754 20.539
7.8905 20.511
7.9057 20.245
7.9209 20.572
7.9361 20.895
7.9512 21.000
7.9664 20.638
7.9816 20.448
7.9968 20.910
8.0119 20.916
8.0271 20.958
8.0423 21.116
8.0575 21.143
8.0726 21.133
8.0878 21.184
8.1030 21.387
8.1182 21.359
8.1333 21.050
8.1485 21.132
8.1637 21.454
8.1789 21.243
8.1940 21.417
8.2092 21.486
8.2244 21.335
8.2396 21.456
8.2547 21.366
8.2699 21.559
8.2851 21.191
8.3003 21.360
8.3154 21.438
8.3306 21.968
8.3458 21.476
8.3610 21.709
8.3761 21.634
8.3913 21.916
8.4065 21.995
8.4217 21.902
8.4368 21.949
8.4520 21.761
8.4672 21.849
8.4824 21.995
8.4975 22.332
8.5127 22.236
8.5279 22.287
8.5431 21.659
8.5582 22.044
8.5734 21.726
8.5886 21.758
8.6038 22.112
8.6189 22.065
8.6341 22.164
8.6493 21.877
8.6645 21.993
8.6796 22.352
8.6948 22.094
8.7100 22.626
8.7252 21.588
8.7403 22.195
8.7555 22.424
8.7707 21.993
8.7859 22.320
8.8010 22.095
8.8162 22.469
8.8314 22.150
8.8466 22.139
8.8617 22.508
8.8769 22.147
8.8921 22.610
8.9073 22.592
8.9224 22.433
8.9376 22.549
8.9528 22.716
8.9680 22.788
8.9831 22.812
8.9983 22.748
9.0135 22.412
9.0287 22.121
9.0438 22.630
9.0590 22.717
9.0742 22.791
9.0894 22.699
9.1045 22.845
9.1197 22.696
9.1349 22.917
9.1501 23.213
9.1652 23.009
9.1804 23.064
9.1956 22.874
9.2108 22.547
9.2259 22.436
9.2411 22.571
9.2563 22.842
9.2715 22.987
9.2866 22.584
9.3018 22.706
9.3170 22.625
9.3322 22.526
9.3473 22.753
9.3625 23.012
9.3777 23.018
9.3929 22.930
9.4080 22.768
9.4232 22.657
9.4384 22.664
9.4536 22.586
9.4687 23.333
9.4839 23.422
9.4991 23.115
9.5143 23.073
9.5294 23.119
9.5446 23.296
9.5598 23.157
9.5750 23.093
9.5901 23.147
9.6053 22.756
9.6205 22.934
9.6357 23.595
9.6508 23.616
9.6660 23.111
9.6812 23.144
9.6964 23.164
9.7115 23.337
9.7267 23.549
9.7419 24.010
9.7571 24.069
9.7722 23.592
9.7874 23.404
9.8026 23.391
9.8178 23.526
9.8329 23.380
9.8481 23.377
9.8633 23.308
9.8785 22.981
9.8936 22.975
9.9088 23.100
9.9240 23.235
9.9392 23.230
9.9543 23.110
9.9695 23.214
9.9847 23.264
9.9999 23.489
10.0150 23.607
10.0302 23.150
10.0454 23.113
10.0606 22.967
10.0757 23.010
10.0909 23.220
10.1061 23.042
10.1213 23.189
10.1364 23.260
10.1516 23.452
10.1668 23.374
10.1820 22.987
10.1971 22.846
10.2123 22.969
10.2275 23.071
10.2427 22.918
10.2578 22.719
10.2730 22.702
10.2882 22.778
10.3034 23.054
10.3185 22.493
10.3337 22.193
10.3489 22.229
10.3641 22.346
10.3792 22.624
10.3944 22.644
10.4096 22.469
10.4248 22.523
10.4399 22.748
10.4551 22.760
10.4703 22.564
10.4855 22.567
10.5006 22.402
10.5158 22.167
10.5310 22.122
10.5462 22.236
10.5613 22.446
10.5765 22.349
10.5917 21.990
10.6069 22.300
10.6220 22.664
10.6372 22.415
10.6524 22.545
10.6676 22.623
10.6827 22.506
10.6979 22.419
10.7131 22.498
10.7283 22.410
10.7434 22.423
10.7586 22.279
10.7738 22.016
10.7890 22.302
10.8041 22.436
10.8193 22.102
10.8345 21.890
10.8497 22.143
10.8648 22.194
10.8800 22.157
10.8952 21.929
10.9104 22.187
10.9255 22.353
10.9407 22.492
10.9559 21.592
10.9711 21.440
10.9862 21.713
11.0014 21.891
11.0166 22.022
11.0318 21.928
11.0469 21.660
11.0621 21.849
11.0773 21.787
11.0925 21.527
11.1076 21.856
11.1228 21.935
11.1380 21.927
11.1532 22.074
11.1683 21.666
11.1835 21.500
11.1987 21.634
11.2139 21.814
11.2290 21.316
11.2442 21.538
11.2594 21.713
11.2746 21.668
11.2897 21.494
11.3049 21.493
11.3201 21.228
11.3353 21.204
11.3504 21.401
11.3656 21.726
11.3808 21.174
11.3960 20.929
11.4111 21.230
11.4263 21.178
11.4415 20.843
11.4567 20.997
11.4718 20.999
11.4870 21.093
11.5022 20.862
11.5174 20.744
11.5325 20.764
11.5477 20.746
11.5629 21.222
11.5781 20.727
11.5932 20.681
11.6084 20.453
11.6236 20.508
11.6388 20.867
11.6539 20.624
11.6691 20.314
11.6843 20.402
11.6995 20.378
11.7146 20.504
11.7298 20.282
11.7450 20.453
11.7602 20.237
11.7753 20.378
11.7905 20.020
11.8057 19.698
11.8209 20.055
11.8360 20.283
11.8512 20.162
11.8664 20.063
11.8816 19.751
11.8967 19.443
11.9119 19.844
11.9271 19.928
11.9423 19.618
11.9574 19.195
11.9726 19.320
11.9878 19.339
12.0030 19.254
12.0181 19.462
12.0333 19.244
12.0485 19.016
12.0637 19.153
12.0788 18.818
12.0940 18.554
12.1092 18.862
12.1244 18.692
12.1395 18.793
12.1547 18.393
12.1699 18.224
12.1851 18.393
12.2002 17.964
12.2154 17.767
12.2306 18.042
12.2458 18.002
12.2609 17.997
12.2761 17.936
12.2913 18.060
12.3065 17.732
12.3216 17.607
12.3368 17.624
12.3520 17.519
12.3672 17.376
12.3823 17.312
12.3975 17.295
12.4127 17.008
12.4279 17.076
12.4430 17.176
12.4582 16.775
12.4734 16.569
12.4886 16.689
12.5037 16.568
12.5189 16.556
12.5341 16.578
12.5493 16.666
12.5644 16.757
12.5796 16.309
12.5948 16.197
12.6100 16.068
12.6251 15.802
12.6403 15.952
12.6555 15.882
12.6707 15.750
12.6858 15.849
12.7010 15.753
12.7162 15.437
12.7314 15.459
12.7465 15.261
12.7617 15.433
12.7769 15.486
12.7921 15.343
12.8072 15.231
12.8224 15.325
12.8376 15.180
12.8528 14.899
12.8679 14.757
12.8831 14.818
12.8983 14.935
12.9135 14.657
12.9286 14.618
12.9438 14.544
12.9590 14.513
12.9742 14.626
12.9893 14.595
13.0045 14.395
13.0197 14.064
13.0349 14.152
13.0500 14.083
13.0652 13.855
13.0804 13.748
13.0956 13.821
13.1107 13.814
13.1259 13.629
13.1411 13.515
13.1563 13.527
13.1714 13.612
13.1866 13.578
13.2018 13.469
13.2170 13.442
13.2321 13.428
13.2473 13.484
13.2625 13.382
13.2777 13.132
13.2928 13.099
13.3080 13.039
13.3232 13.188
13.3384 13.150
13.3535 13.276
13.3687 13.191
13.3839 12.830
13.3991 12.846
13.4142 12.915
13.4294 12.917
13.4446 12.759
13.4598 12.704
13.4749 12.533
13.4901 12.482
13.5053 12.523
13.5205 12.533
13.5356 12.459
13.5508 12.295
13.5660 12.310
13.5812 12.463
13.5963 12.404
13.6115 12.550
13.6267 12.336
13.6419 12.186
13.6570 12.000
13.6722 11.817
13.6874 11.952
13.7026 12.113
13.7177 12.158
13.7329 11.962
13.7481 11.977
13.7633 12.220
13.7784 12.226
13.7936 12.063
13.8088 12.293
13.8239 12.519
13.8391 12.679
13.8543 12.391
13.8695 12.535
13.8846 12.398
13.8998 12.231
13.9150 12.075
13.9302 11.914
13.9453 11.864
13.9605 11.899
13.9757 11.689
13.9909 11.738
14.0060 11.810
14.0212 11.775
14.0364 11.648
14.0516 11.841
14.0667 12.043
14.0819 11.798
14.0971 11.917
14.1123 11.767
14.1274 11.536
14.1426 11.584
14.1578 11.848
14.1730 11.779
14.1881 11.771
14.2033 11.906
14.2185 11.609
14.2337 11.690
14.2488 11.686
14.2640 12.048
14.2792 11.656
14.2944 11.844
14.3095 12.044
14.3247 12.471
14.3399 12.537
14.3551 12.410
14.3702 12.651
14.3854 13.030
14.4006 13.127
14.4158 13.148
14.4309 12.993
14.4461 12.892
14.4613 12.535
14.4765 12.242
14.4916 12.246
14.5068 12.060
14.5220 11.872
14.5372 11.961
14.5523 11.073
14.5675 10.892
14.5827 10.909
14.5979 10.784
14.6130 10.824
14.6282 10.907
14.6434 10.784
14.6586 10.829
14.6737 10.715
14.6889 10.590
14.7041 10.542
14.7193 10.538
14.7344 10.891
14.7496 10.578
14.7648 10.447
14.7800 10.600
14.7951 10.582
14.8103 10.134
14.8255 10.400
14.8407 10.455
14.8558 10.487
14.8710 10.523
14.8862 10.473
14.9014 10.581
14.9165 10.993
14.9317 10.743
14.9469 10.524
14.9621 10.359
14.9772 10.306
14.9924 10.413
15.0076 10.360
15.0228 10.227
15.0379 10.402
15.0531 10.233
15.0683 10.292
15.0835 10.313
15.0986 10.133
15.1138 10.213
15.1290 10.426
15.1442 10.541
15.1593 9.827
15.1745 10.253
15.1897 9.994
15.2049 10.318
15.2200 10.079
15.2352 9.925
15.2504 9.978
15.2656 9.857
15.2807 10.181
15.2959 9.977
15.3111 10.154
15.3263 10.213
15.3414 10.694
15.3566 10.107
15.3718 9.963
15.3870 10.159
15.4021 10.224
15.4173 10.183
15.4325 10.186
15.4477 10.433
15.4628 10.203
15.4780 9.946
15.4932 9.933
15.5084 10.280
15.5235 10.164
15.5387 10.114
15.5539 10.124
15.5691 10.035
15.5842 9.736
15.5994 9.634
15.6146 10.046
15.6298 9.716
15.6449 9.947
15.6601 9.864
15.6753 9.833
15.6905 9.751
15.7056 9.782
15.7208 9.799
15.7360 10.171
15.7512 9.514
15.7663 9.617
15.7815 9.496
15.7967 9.469
15.8119 9.677
15.8270 9.652
15.8422 9.646
15.8574 9.569
15.8726 9.541
15.8877 9.780
15.9029 9.616
15.9181 9.753
15.9333 9.741
15.9484 9.477
15.9636 9.690
15.9788 9.488
15.9940 9.863
16.0091 9.838
16.0243 9.549
16.0395 9.714
16.0547 9.678
16.0698 9.690
16.0850 9.730
16.1002 9.743
16.1154 9.458
16.1305 9.644
16.1457 9.386
16.1609 9.561
16.1761 9.646
16.1912 9.551
16.2064 9.579
16.2216 9.518
16.2368 9.742
16.2519 9.909
16.2671 9.837
16.2823 9.694
16.2975 9.478
16.3126 9.489
16.3278 9.835
16.3430 9.691
16.3582 10.068
16.3733 9.948
16.3885 9.656
16.4037 9.955
16.4189 9.958
16.4340 9.724
16.4492 9.852
16.4644 9.789
16.4796 9.712
16.4947 9.856
16.5099 9.689
16.5251 9.820
16.5403 9.691
16.5554 9.541
16.5706 9.289
16.5858 9.374
16.6010 9.819
16.6161 9.793
16.6313 9.671
16.6465 9.476
16.6617 9.599
16.6768 9.985
16.6920 9.937
16.7072 10.014
16.7224 9.847
16.7375 9.787
16.7527 9.831
16.7679 9.762
16.7831 9.819
16.7982 9.943
16.8134 9.931
16.8286 9.805
16.8438 9.531
16.8589 9.576
16.8741 9.883
16.8893 9.900
16.9045 9.700
16.9196 9.685
16.9348 9.753
16.9500 9.907
16.9652 10.067
16.9803 10.015
16.9955 10.109
17.0107 10.084
17.0259 10.060
17.0410 10.045
17.0562 10.152
17.0714 10.403
17.0866 10.520
17.1017 10.727
17.1169 10.791
17.1321 11.125
17.1473 11.569
17.1624 11.912
17.1776 12.211
17.1928 12.964
17.2080 14.055
17.2231 15.161
17.2383 16.431
17.2535 17.560
17.2687 18.458
17.2838 18.887
17.2990 18.349
17.3142 17.152
17.3294 16.236
17.3445 16.043
17.3597 15.951
17.3749 15.689
17.3901 15.267
17.4052 14.441
17.4204 13.581
17.4356 12.812
17.4508 12.025
17.4659 11.530
17.4811 11.368
17.4963 11.369
17.5115 11.600
17.5266 11.470
17.5418 10.973
17.5570 10.933
17.5722 11.012
17.5873 11.038
17.6025 11.087
17.6177 11.119
17.6329 11.292
17.6480 11.266
17.6632 11.219
17.6784 11.320
17.6936 11.536
17.7087 11.571
17.7239 11.191
17.7391 10.955
17.7543 10.983
17.7694 10.997
17.7846 10.950
17.7998 10.856
17.8150 10.678
17.8301 10.544
17.8453 10.518
17.8605 10.286
17.8757 10.138
17.8908 10.125
17.9060 10.261
17.9212 10.175
17.9364 10.155
17.9515 9.869
17.9667 10.062
17.9819 10.302
17.9971 10.129
18.0122 10.246
18.0274 10.259
18.0426 10.235
18.0578 10.069
18.0729 10.105
18.0881 10.163
18.1033 9.999
18.1185 9.870
18.1336 9.846
18.1488 9.839
18.1640 9.978
18.1792 10.103
18.1943 9.754
18.2095 9.727
18.2247 9.938
18.2399 10.033
18.2550 9.813
18.2702 9.761
18.2854 9.668
18.3006 9.824
18.3157 9.912
18.3309 9.737
18.3461 9.690
18.3613 9.795
18.3764 9.726
18.3916 9.736
18.4068 9.656
18.4220 9.525
18.4371 9.740
18.4523 9.848
18.4675 9.771
18.4827 9.900
18.4978 9.999
18.5130 9.917
18.5282 9.751
18.5434 9.866
18.5585 9.945
18.5737 10.048
18.5889 9.888
18.6041 9.736
18.6192 9.672
18.6344 9.505
18.6496 9.551
18.6648 9.621
18.6799 9.632
18.6951 9.775
18.7103 9.644
18.7255 9.522
18.7406 9.608
18.7558 9.623
18.7710 9.750
18.7862 9.764
18.8013 9.551
18.8165 9.687
18.8317 9.906
18.8469 10.255
18.8620 10.166
18.8772 10.129
18.8924 10.112
18.9076 9.797
18.9227 9.688
18.9379 9.846
18.9531 9.885
18.9683 9.953
18.9834 10.007
18.9986 10.127
19.0138 10.013
19.0290 10.039
19.0441 10.317
19.0593 10.252
19.0745 10.194
19.0897 10.273
19.1048 10.189
19.1200 10.228
19.1352 10.375
19.1504 10.418
19.1655 10.164
19.1807 10.378
19.1959 10.605
19.2111 10.485
19.2262 10.692
19.2414 10.693
19.2566 10.537
19.2718 10.878
19.2869 10.975
19.3021 10.978
19.3173 10.827
19.3325 10.781
19.3476 10.949
19.3628 11.270
19.3780 11.339
19.3932 11.065
19.4083 11.011
19.4235 11.200
19.4387 11.170
19.4539 11.055
19.4690 11.079
19.4842 11.114
19.4994 11.421
19.5146 11.688
19.5297 11.800
19.5449 11.630
19.5601 11.553
19.5753 11.685
19.5904 11.703
19.6056 11.747
19.6208 11.563
19.6360 11.461
19.6511 11.571
19.6663 11.832
19.6815 12.042
19.6967 11.888
19.7118 11.758
19.7270 11.895
19.7422 11.935
19.7574 11.697
19.7725 11.643
19.7877 11.948
19.8029 11.953
19.8180 11.925
19.8332 12.179
19.8484 12.293
19.8636 12.376
19.8787 12.428
19.8939 12.593
19.9091 13.059
19.9243 13.517
19.9394 13.800
19.9546 13.981
19.9698 14.355
19.9850 14.446
20.0001 14.339
20.0153 14.025
20.0305 13.769
20.0457 13.740
20.0608 14.015
20.0760 13.765
20.0912 13.615
20.1064 13.736
20.1215 13.651
20.1367 13.238
20.1519 13.179
20.1671 13.168
20.1822 12.710
20.1974 12.525
20.2126 12.654
20.2278 12.442
20.2429 12.319
20.2581 12.366
20.2733 12.269
20.2885 12.067
20.3036 11.930
20.3188 12.080
20.3340 11.877
20.3492 11.897
20.3643 12.134
20.3795 11.955
20.3947 11.784
20.4099 11.648
20.4250 11.759
20.4402 11.950
20.4554 12.086
20.4706 11.908
20.4857 11.864
20.5009 11.936
20.5161 11.442
20.5313 11.464
20.5464 11.466
20.5616 11.115
20.5768 11.116
20.5920 11.214
20.6071 11.029
20.6223 10.914
20.6375 10.621
20.6527 10.697
20.6678 10.568
20.6830 10.701
20.6982 10.289
20.7134 10.502
20.7285 10.493
20.7437 10.437
20.7589 10.377
20.7741 10.341
20.7892 10.274
20.8044 10.194
20.8196 10.508
20.8348 10.397
20.8499 10.359
20.8651 10.155
20.8803 10.533
20.8955 10.344
20.9106 10.058
20.9258 9.715
20.9410 9.956
20.9562 10.365
20.9713 10.126
20.9865 10.165
21.0017 10.313
21.0169 10.004
21.0320 10.256
21.0472 9.981
21.0624 9.976
21.0776 9.777
21.0927 9.924
21.1079 9.636
21.1231 9.720
21.1383 9.637
21.1534 9.968
21.1686 9.635
21.1838 9.469
21.1990 10.012
21.2141 9.708
21.2293 9.604
21.2445 9.570
21.2597 9.642
21.2748 9.535
21.2900 9.515
21.3052 9.378
21.3204 9.702
21.3355 9.688
21.3507 9.521
21.3659 9.110
21.3811 9.742
21.3962 9.403
21.4114 9.159
21.4266 9.467
21.4418 9.561
21.4569 9.167
21.4721 9.284
21.4873 9.294
21.5025 9.324
21.5176 9.487
21.5328 9.212
21.5480 9.216
21.5632 9.343
21.5783 9.547
21.5935 9.393
21.6087 9.440
21.6239 9.619
21.6390 9.256
21.6542 9.277
21.6694 9.241
21.6846 9.188
21.6997 9.076
21.7149 9.047
21.7301 9.176
21.7453 9.022
21.7604 9.262
21.7756 9.422
21.7908 9.011
21.8060 9.087
21.8211 9.319
21.8363 8.988
21.8515 8.977
21.8667 8.972
21.8818 8.765
21.8970 8.839
21.9122 8.613
21.9274 8.629
21.9425 8.823
21.9577 9.052
21.9729 9.094
21.9881 8.883
22.0032 8.790
22.0184 8.731
22.0336 8.738
22.0488 8.760
22.0639 8.885
22.0791 8.844
22.0943 8.648
22.1095 8.775
22.1246 8.789
22.1398 8.560
22.1550 8.530
22.1702 8.672
22.1853 8.793
22.2005 8.780
22.2157 8.630
22.2309 8.423
22.2460 8.322
22.2612 8.394
22.2764 8.588
22.2916 8.622
22.3067 8.455
22.3219 8.408
22.3371 8.675
22.3523 8.352
22.3674 8.328
22.3826 8.338
22.3978 8.399
22.4130 8.471
22.4281 8.407
22.4433 8.085
22.4585 8.360
22.4737 8.387
22.4888 8.555
22.5040 8.421
22.5192 8.385
22.5344 8.532
22.5495 8.425
22.5647 8.477
22.5799 8.500
22.5951 8.299
22.6102 8.284
22.6254 8.197
22.6406 8.309
22.6558 8.466
22.6709 8.190
22.6861 8.430
22.7013 8.326
22.7165 7.960
22.7316 6.494
