'Id: "" Comment: "" Operator: "Lab Manager" Anode: "Mo" Scantype: "Still (Eiger2R_500K (1D mode))" TimePerStep: "300" X: "11.8" Y: "9.4" Z: "11.284" 
7.2532 18.583
7.2684 18.584
7.2836 18.799
7.2987 18.723
7.3139 18.844
7.3291 18.988
7.3443 18.997
7.3594 18.812
7.3746 18.860
7.3898 19.355
7.4050 19.263
7.4201 19.047
7.4353 19.275
7.4505 19.683
7.4657 19.436
7.4808 19.742
7.4960 19.593
7.5112 19.804
7.5264 20.127
7.5415 19.548
7.5567 19.373
7.5719 19.714
7.5871 20.101
7.6022 20.127
7.6174 20.364
7.6326 20.283
7.6478 20.053
7.6629 19.969
7.6781 19.887
7.6933 20.207
7.7085 20.238
7.7236 20.562
7.7388 20.351
7.7540 20.479
7.7692 20.564
7.7843 20.378
7.7995 20.324
7.8147 20.412
7.8299 20.379
7.8450 20.613
7.8602 20.607
7.8754 20.607
7.8905 20.893
7.9057 20.828
7.9209 20.610
7.9361 20.511
7.9512 20.731
7.9664 20.938
7.9816 21.025
7.9968 21.115
8.0119 20.801
8.0271 20.870
8.0423 20.929
8.0575 20.714
8.0726 21.043
8.0878 21.066
8.1030 21.269
8.1182 21.320
8.1333 21.335
8.1485 21.307
8.1637 21.331
8.1789 21.507
8.1940 21.683
8.2092 21.205
8.2244 21.339
8.2396 21.157
8.2547 21.323
8.2699 21.470
8.2851 21.116
8.3003 21.444
8.3154 21.689
8.3306 21.582
8.3458 21.555
8.3610 21.321
8.3761 21.652
8.3913 21.454
8.4065 21.506
8.4217 21.919
8.4368 21.632
8.4520 22.246
8.4672 21.801
8.4824 21.973
8.4975 22.180
8.5127 21.701
8.5279 22.046
8.5431 22.134
8.5582 21.925
8.5734 21.762
8.5886 22.130
8.6038 21.996
8.6189 22.368
8.6341 21.831
8.6493 21.815
8.6645 22.476
8.6796 22.221
8.6948 22.168
8.7100 21.966
8.7252 22.450
8.7403 22.037
8.7555 22.609
8.7707 21.868
8.7859 22.357
8.8010 22.762
8.8162 21.911
8.8314 22.347
8.8466 22.100
8.8617 22.636
8.8769 22.251
8.8921 22.283
8.9073 22.171
8.9224 22.312
8.9376 22.554
8.9528 22.517
8.9680 21.919
8.9831 22.431
8.9983 22.417
9.0135 22.665
9.0287 22.646
9.0438 22.425
9.0590 22.673
9.0742 22.243
9.0894 22.862
9.1045 22.691
9.1197 22.717
9.1349 22.719
9.1501 22.195
9.1652 22.659
9.1804 22.500
9.1956 22.425
9.2108 22.531
9.2259 22.527
9.2411 22.811
9.2563 22.859
9.2715 23.052
9.2866 22.651
9.3018 22.987
9.3170 22.811
9.3322 22.707
9.3473 22.801
9.3625 22.643
9.3777 22.770
9.3929 22.826
9.4080 23.120
9.4232 23.108
9.4384 23.002
9.4536 22.798
9.4687 22.763
9.4839 23.210
9.4991 23.188
9.5143 22.983
9.5294 22.668
9.5446 22.554
9.5598 22.624
9.5750 22.642
9.5901 22.908
9.6053 23.068
9.6205 23.184
9.6357 23.073
9.6508 23.251
9.6660 23.525
9.6812 23.570
9.6964 23.737
9.7115 23.814
9.7267 23.984
9.7419 24.076
9.7571 23.976
9.7722 23.709
9.7874 23.469
9.8026 23.441
9.8178 23.336
9.8329 23.591
9.8481 23.592
9.8633 23.134
9.8785 23.284
9.8936 23.192
9.9088 22.875
9.9240 23.246
9.9392 23.349
9.9543 22.992
9.9695 23.249
9.9847 23.306
9.9999 23.156
10.0150 23.419
10.0302 23.082
10.0454 22.918
10.0606 23.042
10.0757 23.007
10.0909 23.107
10.1061 23.280
10.1213 23.530
10.1364 23.655
10.1516 23.310
10.1668 23.111
10.1820 22.975
10.1971 22.785
10.2123 23.048
10.2275 22.916
10.2427 23.031
10.2578 22.993
10.2730 23.149
10.2882 23.339
10.3034 22.602
10.3185 22.395
10.3337 22.787
10.3489 22.510
10.3641 22.298
10.3792 22.685
10.3944 22.867
10.4096 22.782
10.4248 22.391
10.4399 22.453
10.4551 22.845
10.4703 22.614
10.4855 22.301
10.5006 22.550
10.5158 22.721
10.5310 22.158
10.5462 22.200
10.5613 22.499
10.5765 22.487
10.5917 22.362
10.6069 22.579
10.6220 22.334
10.6372 22.262
10.6524 22.154
10.6676 22.185
10.6827 22.565
10.6979 22.427
10.7131 22.543
10.7283 22.283
10.7434 22.163
10.7586 22.380
10.7738 22.364
10.7890 22.550
10.8041 22.555
10.8193 21.998
10.8345 22.333
10.8497 22.299
10.8648 22.009
10.8800 21.936
10.8952 22.024
10.9104 22.117
10.9255 21.876
10.9407 21.918
10.9559 22.093
10.9711 21.938
10.9862 22.100
11.0014 21.991
11.0166 22.188
11.0318 22.364
11.0469 22.134
11.0621 21.652
11.0773 21.690
11.0925 22.106
11.1076 22.431
11.1228 21.768
11.1380 21.704
11.1532 21.712
11.1683 21.552
11.1835 21.724
11.1987 21.566
11.2139 21.544
11.2290 21.900
11.2442 21.585
11.2594 21.205
11.2746 21.523
11.2897 21.427
11.3049 21.652
11.3201 21.764
11.3353 21.631
11.3504 21.597
11.3656 21.384
11.3808 21.304
11.3960 21.386
11.4111 21.240
11.4263 21.416
11.4415 21.373
11.4567 21.052
11.4718 21.006
11.4870 20.951
11.5022 20.882
11.5174 20.900
11.5325 20.530
11.5477 20.802
11.5629 20.793
11.5781 20.949
11.5932 20.746
11.6084 20.827
11.6236 20.457
11.6388 20.843
11.6539 20.456
11.6691 20.477
11.6843 20.392
11.6995 20.445
11.7146 20.308
11.7298 19.980
11.7450 20.143
11.7602 20.177
11.7753 20.365
11.7905 20.428
11.8057 20.011
11.8209 19.810
11.8360 19.914
11.8512 20.031
11.8664 19.756
11.8816 19.668
11.8967 19.502
11.9119 20.023
11.9271 19.654
11.9423 19.841
11.9574 19.696
11.9726 19.141
11.9878 19.058
12.0030 19.121
12.0181 19.370
12.0333 19.248
12.0485 18.788
12.0637 18.872
12.0788 18.701
12.0940 18.711
12.1092 18.869
12.1244 18.697
12.1395 18.636
12.1547 18.480
12.1699 18.710
12.1851 18.351
12.2002 18.206
12.2154 17.979
12.2306 18.022
12.2458 17.797
12.2609 17.642
12.2761 17.796
12.2913 17.762
12.3065 17.663
12.3216 17.654
12.3368 17.500
12.3520 17.031
12.3672 17.267
12.3823 17.260
12.3975 17.245
12.4127 16.992
12.4279 16.702
12.4430 17.000
12.4582 16.889
12.4734 16.680
12.4886 16.608
12.5037 16.755
12.5189 16.688
12.5341 16.527
12.5493 16.386
12.5644 16.141
12.5796 16.137
12.5948 16.053
12.6100 15.771
12.6251 15.621
12.6403 15.714
12.6555 15.810
12.6707 15.817
12.6858 15.858
12.7010 15.753
12.7162 15.569
12.7314 15.333
12.7465 15.192
12.7617 15.215
12.7769 15.195
12.7921 15.118
12.8072 15.139
12.8224 15.140
12.8376 15.110
12.8528 14.979
12.8679 14.737
12.8831 14.871
12.8983 14.949
12.9135 14.636
12.9286 14.611
12.9438 14.614
12.9590 14.296
12.9742 14.228
12.9893 14.197
13.0045 14.387
13.0197 14.332
13.0349 14.052
13.0500 14.031
13.0652 13.946
13.0804 13.732
13.0956 13.732
13.1107 13.808
13.1259 13.844
13.1411 13.898
13.1563 13.814
13.1714 13.743
13.1866 13.726
13.2018 13.604
13.2170 13.307
13.2321 13.342
13.2473 13.382
13.2625 13.083
13.2777 13.030
13.2928 13.249
13.3080 13.162
13.3232 13.090
13.3384 12.980
13.3535 12.868
13.3687 13.298
13.3839 13.230
13.3991 13.023
13.4142 12.851
13.4294 12.724
13.4446 12.925
13.4598 12.804
13.4749 12.609
13.4901 12.656
13.5053 12.733
13.5205 12.556
13.5356 12.570
13.5508 12.610
13.5660 12.339
13.5812 12.161
13.5963 12.295
13.6115 12.310
13.6267 12.207
13.6419 12.047
13.6570 12.253
13.6722 12.176
13.6874 11.984
13.7026 11.929
13.7177 12.119
13.7329 12.096
13.7481 11.909
13.7633 12.094
13.7784 12.255
13.7936 12.272
13.8088 12.476
13.8239 12.535
13.8391 12.270
13.8543 12.240
13.8695 12.413
13.8846 12.523
13.8998 12.339
13.9150 12.174
13.9302 12.178
13.9453 12.139
13.9605 12.028
13.9757 11.842
13.9909 11.544
14.0060 11.776
14.0212 11.719
14.0364 11.803
14.0516 11.525
14.0667 11.641
14.0819 11.884
14.0971 11.774
14.1123 11.726
14.1274 11.553
14.1426 11.724
14.1578 11.678
14.1730 11.692
14.1881 11.774
14.2033 11.435
14.2185 11.611
14.2337 12.091
14.2488 11.763
14.2640 11.770
14.2792 12.129
14.2944 12.151
14.3095 12.209
14.3247 12.191
14.3399 12.232
14.3551 12.554
14.3702 12.411
14.3854 13.062
14.4006 13.073
14.4158 13.003
14.4309 12.757
14.4461 12.889
14.4613 12.698
14.4765 12.438
14.4916 11.958
14.5068 11.660
14.5220 11.547
14.5372 11.310
14.5523 11.046
14.5675 11.040
14.5827 10.863
14.5979 10.832
14.6130 10.732
14.6282 10.736
14.6434 10.733
14.6586 10.807
14.6737 10.657
14.6889 10.657
14.7041 10.805
14.7193 10.561
14.7344 10.538
14.7496 10.527
14.7648 10.533
14.7800 10.731
14.7951 10.593
14.8103 10.349
14.8255 10.575
14.8407 10.611
14.8558 10.723
14.8710 10.514
14.8862 10.285
14.9014 10.733
14.9165 10.514
14.9317 10.658
14.9469 10.561
14.9621 10.478
14.9772 10.033
14.9924 9.951
15.0076 10.141
15.0228 10.502
15.0379 10.549
15.0531 10.337
15.0683 10.144
15.0835 9.822
15.0986 10.168
15.1138 10.147
15.1290 10.178
15.1442 10.491
15.1593 10.184
15.1745 10.252
15.1897 9.758
15.2049 10.259
15.2200 10.231
15.2352 10.046
15.2504 10.116
15.2656 9.978
15.2807 10.042
15.2959 10.056
15.3111 10.239
15.3263 9.990
15.3414 10.295
15.3566 10.162
15.3718 10.034
15.3870 10.269
15.4021 10.161
15.4173 10.045
15.4325 10.185
15.4477 9.773
15.4628 10.175
15.4780 10.048
15.4932 10.415
15.5084 10.029
15.5235 10.022
15.5387 10.044
15.5539 10.149
15.5691 9.717
15.5842 9.979
15.5994 9.859
15.6146 9.842
15.6298 9.936
15.6449 9.813
15.6601 9.752
15.6753 9.667
15.6905 9.851
15.7056 9.929
15.7208 10.054
15.7360 9.844
15.7512 9.722
15.7663 9.586
15.7815 9.667
15.7967 9.677
15.8119 9.902
15.8270 9.804
15.8422 9.868
15.8574 9.685
15.8726 9.424
15.8877 9.514
15.9029 9.636
15.9181 9.454
15.9333 9.456
15.9484 9.649
15.9636 9.574
15.9788 9.670
15.9940 9.478
16.0091 9.467
16.0243 9.578
16.0395 9.588
16.0547 9.686
16.0698 9.763
16.0850 9.870
16.1002 9.562
16.1154 9.665
16.1305 9.620
16.1457 9.620
16.1609 9.633
16.1761 9.475
16.1912 9.404
16.2064 9.530
16.2216 9.694
16.2368 9.723
16.2519 9.958
16.2671 9.759
16.2823 9.508
16.2975 9.723
16.3126 9.542
16.3278 9.746
16.3430 9.613
16.3582 9.812
16.3733 9.987
16.3885 9.826
16.4037 9.742
16.4189 9.907
16.4340 9.801
16.4492 9.653
16.4644 9.726
16.4796 9.580
16.4947 9.443
16.5099 9.664
16.5251 9.801
16.5403 9.666
16.5554 9.638
16.5706 9.435
16.5858 9.494
16.6010 9.691
16.6161 9.722
16.6313 9.647
16.6465 9.671
16.6617 9.711
16.6768 9.612
16.6920 9.698
16.7072 9.815
16.7224 10.067
16.7375 9.958
16.7527 9.888
16.7679 9.855
16.7831 9.885
16.7982 10.180
16.8134 10.082
16.8286 9.879
16.8438 9.817
16.8589 9.854
16.8741 9.704
16.8893 9.656
16.9045 9.788
16.9196 9.686
16.9348 9.681
16.9500 9.828
16.9652 9.860
16.9803 9.905
16.9955 9.805
17.0107 9.738
17.0259 9.898
17.0410 9.925
17.0562 9.774
17.0714 9.959
17.0866 10.286
17.1017 10.474
17.1169 10.439
17.1321 10.675
17.1473 11.122
17.1624 11.771
17.1776 12.415
17.1928 13.022
17.2080 13.984
17.2231 15.086
17.2383 16.334
17.2535 17.598
17.2687 18.408
17.2838 18.791
17.2990 18.231
17.3142 17.134
17.3294 16.625
17.3445 16.199
17.3597 15.939
17.3749 15.916
17.3901 15.215
17.4052 14.288
17.4204 13.652
17.4356 12.671
17.4508 11.937
17.4659 11.819
17.4811 11.736
17.4963 11.593
17.5115 11.254
17.5266 10.898
17.5418 10.871
17.5570 10.988
17.5722 10.971
17.5873 11.016
17.6025 11.147
17.6177 11.095
17.6329 11.071
17.6480 11.423
17.6632 11.613
17.6784 11.691
17.6936 11.643
17.7087 11.422
17.7239 11.394
17.7391 11.342
17.7543 11.230
17.7694 11.123
17.7846 11.007
17.7998 10.900
17.8150 10.915
17.8301 10.728
17.8453 10.524
17.8605 10.442
17.8757 10.327
17.8908 10.136
17.9060 10.056
17.9212 10.256
17.9364 10.425
17.9515 10.021
17.9667 9.823
17.9819 10.105
17.9971 10.233
18.0122 10.244
18.0274 10.154
18.0426 10.202
18.0578 10.309
18.0729 10.357
18.0881 10.098
18.1033 9.862
18.1185 9.836
18.1336 10.036
18.1488 10.154
18.1640 9.959
18.1792 9.941
18.1943 9.890
18.2095 9.862
18.2247 9.892
18.2399 9.930
18.2550 10.069
18.2702 9.923
18.2854 9.895
18.3006 9.814
18.3157 9.837
18.3309 9.835
18.3461 9.846
18.3613 9.781
18.3764 9.762
18.3916 9.706
18.4068 9.598
18.4220 9.645
18.4371 9.798
18.4523 9.835
18.4675 9.808
18.4827 9.752
18.4978 9.689
18.5130 9.585
18.5282 9.628
18.5434 9.827
18.5585 9.824
18.5737 9.683
18.5889 9.778
18.6041 9.904
18.6192 9.703
18.6344 9.878
18.6496 9.874
18.6648 9.635
18.6799 9.788
18.6951 9.734
18.7103 9.766
18.7255 9.732
18.7406 9.691
18.7558 9.943
18.7710 9.960
18.7862 9.871
18.8013 9.699
18.8165 9.487
18.8317 9.793
18.8469 10.003
18.8620 9.877
18.8772 9.866
18.8924 10.041
18.9076 9.927
18.9227 9.960
18.9379 10.088
18.9531 9.837
18.9683 9.792
18.9834 9.980
18.9986 9.955
19.0138 9.844
19.0290 9.973
19.0441 9.947
19.0593 9.944
19.0745 10.234
19.0897 10.491
19.1048 10.350
19.1200 10.339
19.1352 10.363
19.1504 10.272
19.1655 10.328
19.1807 10.631
19.1959 10.799
19.2111 10.873
19.2262 10.867
19.2414 10.741
19.2566 10.525
19.2718 10.681
19.2869 10.980
19.3021 10.993
19.3173 10.995
19.3325 11.059
19.3476 10.970
19.3628 10.763
19.3780 10.698
19.3932 10.913
19.4083 11.224
19.4235 11.334
19.4387 11.197
19.4539 11.230
19.4690 11.244
19.4842 11.168
19.4994 11.252
19.5146 11.300
19.5297 11.406
19.5449 11.561
19.5601 11.609
19.5753 11.388
19.5904 11.411
19.6056 11.505
19.6208 11.623
19.6360 11.668
19.6511 11.804
19.6663 11.670
19.6815 11.505
19.6967 11.739
19.7118 11.859
19.7270 11.853
19.7422 11.832
19.7574 11.759
19.7725 11.855
19.7877 12.090
19.8029 12.074
19.8180 11.961
19.8332 12.089
19.8484 12.206
19.8636 12.481
19.8787 12.617
19.8939 12.786
19.9091 13.124
19.9243 13.410
19.9394 13.774
19.9546 13.928
19.9698 14.275
19.9850 14.460
20.0001 14.605
20.0153 14.631
20.0305 14.133
20.0457 13.942
20.0608 14.121
20.0760 13.879
20.0912 13.779
20.1064 13.832
20.1215 13.621
20.1367 13.198
20.1519 13.135
20.1671 13.270
20.1822 13.024
20.1974 12.799
20.2126 12.870
20.2278 12.924
20.2429 12.972
20.2581 12.631
20.2733 12.038
20.2885 11.797
20.3036 12.021
20.3188 11.725
20.3340 11.689
20.3492 12.068
20.3643 11.942
20.3795 11.944
20.3947 11.917
20.4099 11.890
20.4250 11.705
20.4402 11.769
20.4554 11.911
20.4706 11.761
20.4857 11.883
20.5009 11.651
20.5161 11.334
20.5313 11.279
20.5464 11.235
20.5616 11.118
20.5768 11.287
20.5920 11.064
20.6071 11.254
20.6223 11.259
20.6375 11.093
20.6527 10.960
20.6678 10.888
20.6830 10.542
20.6982 10.691
20.7134 10.740
20.7285 10.611
20.7437 10.566
20.7589 10.463
20.7741 10.338
20.7892 10.186
20.8044 10.107
20.8196 10.339
20.8348 10.627
20.8499 10.283
20.8651 10.378
20.8803 10.220
20.8955 10.269
20.9106 10.231
20.9258 10.072
20.9410 9.999
20.9562 9.992
20.9713 10.055
20.9865 10.048
21.0017 10.174
21.0169 10.196
21.0320 9.818
21.0472 10.042
21.0624 9.908
21.0776 10.250
21.0927 9.808
21.1079 9.821
21.1231 9.867
21.1383 10.088
21.1534 9.651
21.1686 9.769
21.1838 9.748
21.1990 9.751
21.2141 9.372
21.2293 9.677
21.2445 9.497
21.2597 9.443
21.2748 9.769
21.2900 9.679
21.3052 9.875
21.3204 9.505
21.3355 9.756
21.3507 9.496
21.3659 9.612
21.3811 9.565
21.3962 9.384
21.4114 9.595
21.4266 9.642
21.4418 9.237
21.4569 9.426
21.4721 9.442
21.4873 9.506
21.5025 9.518
21.5176 9.303
21.5328 9.436
21.5480 9.159
21.5632 9.176
21.5783 9.248
21.5935 9.322
21.6087 9.280
21.6239 9.251
21.6390 9.301
21.6542 9.447
21.6694 9.093
21.6846 9.224
21.6997 8.948
21.7149 8.864
21.7301 9.004
21.7453 8.998
21.7604 8.980
21.7756 9.100
21.7908 9.145
21.8060 9.147
21.8211 9.238
21.8363 9.245
21.8515 9.479
21.8667 9.194
21.8818 9.002
21.8970 8.857
21.9122 8.890
21.9274 8.999
21.9425 8.858
21.9577 8.957
21.9729 9.121
21.9881 8.847
22.0032 8.778
22.0184 8.918
22.0336 8.707
22.0488 8.660
22.0639 8.765
22.0791 8.704
22.0943 8.664
22.1095 8.689
22.1246 8.740
22.1398 8.696
22.1550 8.621
22.1702 8.686
22.1853 8.590
22.2005 8.491
22.2157 8.568
22.2309 8.418
22.2460 8.541
22.2612 8.675
22.2764 8.591
22.2916 8.488
22.3067 8.506
22.3219 8.384
22.3371 8.316
22.3523 8.315
22.3674 8.412
22.3826 8.473
22.3978 8.204
22.4130 8.527
22.4281 8.464
22.4433 8.568
22.4585 8.263
22.4737 8.224
22.4888 8.311
22.5040 8.378
22.5192 8.318
22.5344 8.272
22.5495 8.536
22.5647 8.468
22.5799 8.436
22.5951 8.374
22.6102 8.636
22.6254 8.343
22.6406 8.465
22.6558 8.374
22.6709 8.378
22.6861 8.339
22.7013 8.395
22.7165 8.091
22.7316 6.745
