'Id: "" Comment: "" Operator: "Lab Manager" Anode: "Mo" Scantype: "Still (Eiger2R_500K (1D mode))" TimePerStep: "300" X: "11.8" Y: "9.4" Z: "11.284" 
7.2532 19.070
7.2684 19.001
7.2836 19.093
7.2987 18.899
7.3139 18.925
7.3291 19.247
7.3443 19.299
7.3594 18.872
7.3746 19.422
7.3898 19.362
7.4050 19.278
7.4201 18.915
7.4353 19.302
7.4505 19.435
7.4657 19.204
7.4808 19.113
7.4960 19.659
7.5112 19.633
7.5264 19.345
7.5415 19.970
7.5567 19.845
7.5719 20.018
7.5871 20.068
7.6022 19.805
7.6174 20.391
7.6326 20.084
7.6478 20.146
7.6629 20.065
7.6781 19.906
7.6933 19.984
7.7085 20.388
7.7236 20.248
7.7388 19.913
7.7540 19.983
7.7692 20.163
7.7843 20.438
7.7995 20.268
7.8147 20.401
7.8299 20.457
7.8450 20.309
7.8602 20.528
7.8754 20.587
7.8905 20.674
7.9057 20.918
7.9209 20.865
7.9361 20.847
7.9512 20.793
7.9664 20.745
7.9816 20.807
7.9968 20.775
8.0119 20.799
8.0271 21.042
8.0423 21.169
8.0575 21.234
8.0726 21.055
8.0878 20.958
8.1030 21.179
8.1182 21.217
8.1333 21.316
8.1485 21.340
8.1637 21.211
8.1789 21.314
8.1940 21.243
8.2092 21.337
8.2244 21.191
8.2396 21.339
8.2547 21.326
8.2699 21.624
8.2851 21.451
8.3003 21.443
8.3154 21.872
8.3306 21.571
8.3458 21.700
8.3610 21.651
8.3761 21.840
8.3913 21.952
8.4065 21.850
8.4217 21.922
8.4368 22.165
8.4520 21.876
8.4672 22.068
8.4824 22.224
8.4975 21.754
8.5127 21.800
8.5279 22.238
8.5431 22.238
8.5582 22.562
8.5734 22.416
8.5886 22.214
8.6038 21.681
8.6189 21.634
8.6341 22.011
8.6493 22.067
8.6645 22.235
8.6796 22.397
8.6948 21.975
8.7100 22.724
8.7252 22.593
8.7403 21.924
8.7555 22.604
8.7707 22.221
8.7859 22.626
8.8010 22.856
8.8162 22.251
8.8314 22.417
8.8466 22.417
8.8617 22.438
8.8769 22.844
8.8921 22.617
8.9073 22.662
8.9224 22.468
8.9376 22.833
8.9528 22.254
8.9680 22.468
8.9831 22.585
8.9983 22.350
9.0135 22.651
9.0287 22.662
9.0438 22.515
9.0590 22.395
9.0742 22.479
9.0894 22.488
9.1045 22.794
9.1197 22.807
9.1349 22.502
9.1501 22.333
9.1652 22.584
9.1804 22.594
9.1956 22.758
9.2108 23.018
9.2259 23.235
9.2411 22.727
9.2563 22.861
9.2715 22.838
9.2866 22.580
9.3018 22.998
9.3170 22.903
9.3322 22.961
9.3473 23.160
9.3625 23.043
9.3777 22.764
9.3929 22.816
9.4080 22.938
9.4232 23.228
9.4384 23.170
9.4536 22.823
9.4687 22.955
9.4839 22.925
9.4991 22.890
9.5143 22.991
9.5294 23.145
9.5446 23.189
9.5598 23.362
9.5750 23.319
9.5901 22.940
9.6053 22.982
9.6205 23.231
9.6357 23.496
9.6508 23.521
9.6660 23.608
9.6812 23.425
9.6964 23.180
9.7115 23.536
9.7267 23.816
9.7419 23.880
9.7571 23.658
9.7722 23.755
9.7874 23.560
9.8026 23.436
9.8178 23.479
9.8329 23.107
9.8481 23.082
9.8633 23.188
9.8785 22.816
9.8936 22.906
9.9088 23.090
9.9240 23.019
9.9392 23.171
9.9543 23.220
9.9695 23.126
9.9847 23.078
9.9999 23.185
10.0150 23.139
10.0302 22.980
10.0454 22.928
10.0606 23.001
10.0757 23.175
10.0909 23.316
10.1061 23.345
10.1213 23.415
10.1364 23.457
10.1516 23.328
10.1668 23.231
10.1820 23.210
10.1971 23.313
10.2123 23.048
10.2275 22.682
10.2427 22.678
10.2578 22.720
10.2730 22.617
10.2882 22.749
10.3034 22.774
10.3185 22.742
10.3337 22.802
10.3489 22.722
10.3641 22.751
10.3792 23.156
10.3944 22.552
10.4096 22.622
10.4248 22.414
10.4399 22.587
10.4551 22.662
10.4703 22.314
10.4855 22.649
10.5006 22.520
10.5158 22.598
10.5310 22.640
10.5462 22.311
10.5613 22.459
10.5765 22.229
10.5917 22.377
10.6069 22.799
10.6220 22.587
10.6372 22.421
10.6524 22.691
10.6676 22.738
10.6827 22.652
10.6979 22.699
10.7131 22.540
10.7283 22.321
10.7434 22.517
10.7586 22.597
10.7738 22.156
10.7890 22.020
10.8041 22.232
10.8193 22.241
10.8345 22.228
10.8497 22.101
10.8648 21.805
10.8800 22.012
10.8952 22.098
10.9104 21.826
10.9255 21.743
10.9407 22.054
10.9559 22.000
10.9711 21.973
10.9862 22.120
11.0014 22.208
11.0166 22.050
11.0318 21.828
11.0469 21.750
11.0621 21.746
11.0773 21.904
11.0925 21.724
11.1076 21.903
11.1228 21.679
11.1380 21.723
11.1532 21.543
11.1683 21.540
11.1835 21.829
11.1987 21.846
11.2139 21.694
11.2290 21.283
11.2442 21.709
11.2594 21.492
11.2746 21.696
11.2897 21.742
11.3049 21.669
11.3201 21.298
11.3353 21.453
11.3504 21.628
11.3656 21.202
11.3808 21.474
11.3960 21.358
11.4111 21.075
11.4263 21.251
11.4415 20.794
11.4567 21.184
11.4718 21.116
11.4870 20.891
11.5022 21.079
11.5174 21.192
11.5325 21.000
11.5477 20.653
11.5629 20.660
11.5781 21.088
11.5932 21.081
11.6084 20.715
11.6236 20.440
11.6388 20.412
11.6539 20.658
11.6691 20.668
11.6843 20.619
11.6995 20.304
11.7146 20.228
11.7298 19.991
11.7450 20.176
11.7602 20.161
11.7753 20.261
11.7905 20.193
11.8057 19.924
11.8209 19.793
11.8360 20.035
11.8512 19.733
11.8664 19.393
11.8816 19.736
11.8967 19.681
11.9119 19.746
11.9271 19.796
11.9423 19.764
11.9574 19.471
11.9726 19.319
11.9878 19.326
12.0030 18.986
12.0181 18.900
12.0333 18.874
12.0485 19.191
12.0637 19.129
12.0788 18.862
12.0940 18.754
12.1092 18.494
12.1244 18.452
12.1395 18.455
12.1547 18.423
12.1699 18.509
12.1851 18.199
12.2002 18.031
12.2154 17.938
12.2306 18.318
12.2458 18.284
12.2609 18.219
12.2761 18.375
12.2913 17.920
12.3065 17.360
12.3216 17.394
12.3368 17.572
12.3520 17.508
12.3672 17.197
12.3823 17.134
12.3975 17.071
12.4127 16.879
12.4279 16.797
12.4430 16.783
12.4582 16.753
12.4734 16.643
12.4886 16.798
12.5037 16.344
12.5189 16.258
12.5341 16.238
12.5493 16.299
12.5644 16.363
12.5796 16.255
12.5948 16.273
12.6100 16.363
12.6251 16.011
12.6403 15.728
12.6555 16.053
12.6707 16.191
12.6858 15.800
12.7010 15.575
12.7162 15.611
12.7314 15.561
12.7465 15.393
12.7617 15.337
12.7769 15.376
12.7921 15.220
12.8072 14.961
12.8224 14.882
12.8376 14.765
12.8528 14.753
12.8679 14.773
12.8831 14.798
12.8983 14.908
12.9135 14.730
12.9286 14.232
12.9438 14.020
12.9590 14.360
12.9742 14.489
12.9893 14.413
13.0045 14.289
13.0197 13.981
13.0349 13.785
13.0500 13.949
13.0652 14.076
13.0804 13.924
13.0956 13.909
13.1107 13.973
13.1259 13.869
13.1411 13.605
13.1563 13.388
13.1714 13.530
13.1866 13.631
13.2018 13.516
13.2170 13.462
13.2321 13.620
13.2473 13.487
13.2625 12.946
13.2777 12.983
13.2928 13.130
13.3080 12.896
13.3232 12.731
13.3384 13.016
13.3535 13.060
13.3687 12.847
13.3839 12.917
13.3991 12.713
13.4142 12.751
13.4294 12.730
13.4446 12.635
13.4598 12.757
13.4749 12.751
13.4901 12.459
13.5053 12.276
13.5205 12.379
13.5356 12.384
13.5508 12.313
13.5660 12.330
13.5812 12.127
13.5963 12.228
13.6115 12.189
13.6267 12.262
13.6419 12.321
13.6570 12.137
13.6722 11.989
13.6874 11.977
13.7026 11.921
13.7177 11.987
13.7329 11.882
13.7481 12.020
13.7633 12.239
13.7784 12.168
13.7936 12.149
13.8088 12.135
13.8239 12.323
13.8391 12.333
13.8543 12.432
13.8695 12.280
13.8846 12.457
13.8998 12.250
13.9150 12.022
13.9302 12.091
13.9453 12.009
13.9605 11.963
13.9757 11.813
13.9909 11.390
14.0060 11.472
14.0212 11.710
14.0364 11.855
14.0516 11.806
14.0667 11.609
14.0819 11.464
14.0971 11.751
14.1123 11.815
14.1274 11.741
14.1426 11.605
14.1578 11.601
14.1730 11.874
14.1881 11.671
14.2033 11.914
14.2185 11.581
14.2337 11.886
14.2488 11.803
14.2640 11.913
14.2792 11.885
14.2944 11.895
14.3095 11.699
14.3247 11.946
14.3399 12.378
14.3551 12.515
14.3702 12.706
14.3854 13.108
14.4006 13.092
14.4158 12.936
14.4309 12.915
14.4461 12.614
14.4613 12.742
14.4765 12.672
14.4916 12.560
14.5068 12.190
14.5220 11.677
14.5372 11.194
14.5523 11.299
14.5675 11.154
14.5827 10.852
14.5979 10.826
14.6130 10.938
14.6282 10.985
14.6434 10.982
14.6586 10.779
14.6737 10.896
14.6889 10.850
14.7041 10.650
14.7193 10.708
14.7344 10.313
14.7496 10.428
14.7648 10.678
14.7800 10.661
14.7951 10.575
14.8103 10.583
14.8255 10.536
14.8407 10.440
14.8558 10.728
14.8710 10.478
14.8862 10.829
14.9014 10.763
14.9165 10.606
14.9317 10.628
14.9469 10.706
14.9621 10.516
14.9772 10.336
14.9924 10.288
15.0076 10.382
15.0228 10.150
15.0379 10.524
15.0531 10.501
15.0683 10.208
15.0835 10.309
15.0986 10.341
15.1138 10.176
15.1290 10.094
15.1442 9.990
15.1593 10.345
15.1745 10.111
15.1897 10.033
15.2049 10.157
15.2200 10.232
15.2352 9.938
15.2504 10.075
15.2656 10.482
15.2807 9.821
15.2959 10.056
15.3111 10.154
15.3263 10.127
15.3414 10.127
15.3566 9.646
15.3718 10.198
15.3870 9.890
15.4021 9.489
15.4173 10.176
15.4325 10.129
15.4477 10.078
15.4628 10.235
15.4780 10.218
15.4932 9.958
15.5084 10.096
15.5235 10.000
15.5387 10.021
15.5539 10.349
15.5691 9.896
15.5842 9.800
15.5994 9.748
15.6146 10.255
15.6298 9.731
15.6449 9.667
15.6601 9.719
15.6753 9.812
15.6905 9.842
15.7056 9.579
15.7208 9.457
15.7360 9.761
15.7512 9.651
15.7663 9.902
15.7815 9.804
15.7967 9.636
15.8119 9.554
15.8270 9.687
15.8422 9.772
15.8574 9.627
15.8726 9.744
15.8877 9.401
15.9029 9.430
15.9181 9.833
15.9333 9.631
15.9484 9.745
15.9636 9.822
15.9788 9.566
15.9940 9.668
16.0091 9.828
16.0243 9.539
16.0395 9.371
16.0547 9.738
16.0698 9.628
16.0850 9.723
16.1002 9.706
16.1154 9.507
16.1305 9.650
16.1457 9.759
16.1609 9.634
16.1761 9.618
16.1912 9.528
16.2064 9.646
16.2216 9.756
16.2368 9.755
16.2519 9.632
16.2671 9.631
16.2823 9.847
16.2975 9.613
16.3126 9.841
16.3278 9.454
16.3430 9.735
16.3582 10.127
16.3733 10.021
16.3885 9.615
16.4037 9.863
16.4189 9.839
16.4340 9.815
16.4492 9.867
16.4644 9.847
16.4796 9.759
16.4947 9.552
16.5099 9.378
16.5251 9.621
16.5403 9.758
16.5554 9.739
16.5706 9.620
16.5858 9.575
16.6010 9.441
16.6161 9.633
16.6313 9.599
16.6465 9.715
16.6617 9.699
16.6768 9.655
16.6920 9.716
16.7072 9.914
16.7224 10.039
16.7375 10.149
16.7527 10.001
16.7679 10.048
16.7831 10.096
16.7982 9.672
16.8134 9.947
16.8286 9.998
16.8438 9.618
16.8589 9.476
16.8741 9.854
16.8893 10.018
16.9045 9.726
16.9196 9.611
16.9348 9.655
16.9500 9.725
16.9652 9.996
16.9803 9.933
16.9955 9.858
17.0107 10.080
17.0259 10.011
17.0410 9.807
17.0562 9.928
17.0714 10.160
17.0866 10.239
17.1017 10.276
17.1169 10.517
17.1321 10.725
17.1473 11.114
17.1624 11.596
17.1776 12.297
17.1928 13.099
17.2080 13.997
17.2231 15.026
17.2383 16.418
17.2535 17.735
17.2687 18.738
17.2838 18.753
17.2990 17.789
17.3142 16.885
17.3294 16.185
17.3445 16.066
17.3597 16.365
17.3749 16.110
17.3901 15.292
17.4052 14.439
17.4204 13.581
17.4356 12.757
17.4508 12.115
17.4659 11.864
17.4811 11.822
17.4963 11.687
17.5115 11.398
17.5266 10.949
17.5418 10.736
17.5570 10.977
17.5722 10.918
17.5873 10.852
17.6025 11.016
17.6177 11.189
17.6329 11.244
17.6480 11.223
17.6632 11.298
17.6784 11.344
17.6936 11.541
17.7087 11.492
17.7239 11.234
17.7391 11.014
17.7543 11.060
17.7694 11.162
17.7846 11.015
17.7998 10.695
17.8150 10.592
17.8301 10.654
17.8453 10.430
17.8605 10.292
17.8757 10.291
17.8908 10.074
17.9060 10.153
17.9212 10.402
17.9364 10.337
17.9515 10.099
17.9667 10.225
17.9819 10.338
17.9971 10.176
18.0122 10.076
18.0274 10.090
18.0426 10.051
18.0578 10.088
18.0729 9.925
18.0881 9.717
18.1033 9.971
18.1185 10.153
18.1336 10.106
18.1488 10.120
18.1640 10.123
18.1792 10.022
18.1943 9.807
18.2095 9.847
18.2247 9.941
18.2399 10.079
18.2550 10.060
18.2702 9.989
18.2854 9.855
18.3006 9.743
18.3157 9.636
18.3309 9.596
18.3461 9.880
18.3613 10.146
18.3764 9.912
18.3916 9.803
18.4068 9.921
18.4220 9.974
18.4371 9.770
18.4523 9.794
18.4675 9.880
18.4827 9.935
18.4978 10.044
18.5130 9.840
18.5282 9.655
18.5434 9.571
18.5585 9.732
18.5737 9.804
18.5889 9.722
18.6041 9.820
18.6192 9.812
18.6344 9.774
18.6496 9.683
18.6648 9.666
18.6799 9.763
18.6951 9.583
18.7103 9.730
18.7255 9.883
18.7406 9.938
18.7558 9.744
18.7710 9.861
18.7862 10.050
18.8013 9.886
18.8165 9.862
18.8317 9.816
18.8469 9.920
18.8620 9.873
18.8772 9.891
18.8924 10.075
18.9076 10.126
18.9227 9.994
18.9379 10.027
18.9531 9.979
18.9683 10.029
18.9834 10.074
18.9986 10.076
19.0138 9.982
19.0290 10.138
19.0441 10.263
19.0593 10.161
19.0745 10.278
19.0897 10.380
19.1048 10.474
19.1200 10.392
19.1352 10.337
19.1504 10.334
19.1655 10.445
19.1807 10.408
19.1959 10.334
19.2111 10.407
19.2262 10.778
19.2414 10.978
19.2566 10.993
19.2718 11.042
19.2869 11.094
19.3021 10.934
19.3173 10.878
19.3325 10.958
19.3476 11.001
19.3628 11.015
19.3780 11.122
19.3932 11.043
19.4083 11.246
19.4235 11.433
19.4387 11.503
19.4539 11.635
19.4690 11.390
19.4842 11.385
19.4994 11.456
19.5146 11.561
19.5297 11.583
19.5449 11.545
19.5601 11.704
19.5753 11.687
19.5904 11.776
19.6056 11.812
19.6208 11.754
19.6360 11.721
19.6511 11.759
19.6663 11.713
19.6815 11.776
19.6967 11.796
19.7118 11.719
19.7270 11.818
19.7422 11.911
19.7574 11.846
19.7725 11.568
19.7877 11.546
19.8029 11.883
19.8180 11.993
19.8332 12.286
19.8484 12.368
19.8636 12.212
19.8787 12.428
19.8939 12.627
19.9091 12.934
19.9243 13.393
19.9394 13.625
19.9546 14.155
19.9698 14.564
19.9850 14.398
20.0001 14.278
20.0153 14.214
20.0305 14.002
20.0457 13.779
20.0608 13.809
20.0760 13.747
20.0912 13.646
20.1064 13.700
20.1215 13.660
20.1367 13.603
20.1519 13.191
20.1671 12.860
20.1822 12.905
20.1974 12.848
20.2126 12.586
20.2278 12.483
20.2429 12.679
20.2581 12.532
20.2733 12.325
20.2885 12.278
20.3036 11.942
20.3188 11.829
20.3340 12.008
20.3492 12.325
20.3643 12.086
20.3795 11.838
20.3947 11.677
20.4099 11.996
20.4250 11.978
20.4402 11.891
20.4554 11.884
20.4706 11.763
20.4857 11.628
20.5009 11.482
20.5161 11.402
20.5313 11.144
20.5464 11.247
20.5616 11.309
20.5768 11.183
20.5920 11.095
20.6071 11.248
20.6223 11.068
20.6375 10.895
20.6527 10.550
20.6678 10.541
20.6830 10.339
20.6982 10.471
20.7134 10.779
20.7285 10.557
20.7437 10.334
20.7589 10.256
20.7741 10.318
20.7892 10.373
20.8044 10.183
20.8196 10.154
20.8348 10.298
20.8499 10.246
20.8651 10.205
20.8803 10.279
20.8955 10.140
20.9106 10.345
20.9258 10.545
20.9410 10.317
20.9562 10.068
20.9713 10.184
20.9865 10.169
21.0017 9.833
21.0169 10.232
21.0320 10.306
21.0472 9.952
21.0624 9.852
21.0776 9.984
21.0927 9.743
21.1079 9.863
21.1231 9.672
21.1383 9.827
21.1534 9.964
21.1686 9.812
21.1838 9.850
21.1990 10.070
21.2141 9.772
21.2293 9.386
21.2445 9.461
21.2597 9.649
21.2748 10.081
21.2900 9.398
21.3052 9.653
21.3204 9.393
21.3355 9.913
21.3507 9.572
21.3659 9.635
21.3811 9.324
21.3962 9.631
21.4114 9.296
21.4266 9.358
21.4418 9.749
21.4569 9.407
21.4721 9.230
21.4873 9.183
21.5025 9.539
21.5176 9.555
21.5328 9.307
21.5480 9.265
21.5632 9.497
21.5783 9.142
21.5935 9.129
21.6087 9.216
21.6239 9.089
21.6390 9.086
21.6542 8.884
21.6694 9.019
21.6846 8.969
21.6997 9.061
21.7149 9.191
21.7301 9.209
21.7453 9.019
21.7604 8.924
21.7756 8.933
21.7908 8.850
21.8060 9.071
21.8211 9.124
21.8363 9.055
21.8515 9.125
21.8667 8.951
21.8818 8.971
21.8970 9.022
21.9122 8.913
21.9274 8.921
21.9425 9.044
21.9577 9.048
21.9729 8.844
21.9881 8.874
22.0032 8.995
22.0184 8.891
22.0336 8.789
22.0488 8.780
22.0639 8.818
22.0791 8.877
22.0943 8.862
22.1095 8.678
22.1246 8.462
22.1398 8.689
22.1550 8.751
22.1702 8.554
22.1853 8.513
22.2005 8.676
22.2157 8.582
22.2309 8.556
22.2460 8.748
22.2612 8.740
22.2764 8.408
22.2916 8.546
22.3067 8.609
22.3219 8.555
22.3371 8.502
22.3523 8.368
22.3674 8.446
22.3826 8.416
22.3978 8.411
22.4130 8.304
22.4281 8.538
22.4433 8.170
22.4585 8.472
22.4737 8.262
22.4888 8.346
22.5040 8.648
22.5192 8.430
22.5344 8.166
22.5495 8.153
22.5647 8.403
22.5799 8.281
22.5951 8.233
22.6102 8.323
22.6254 8.415
22.6406 8.361
22.6558 8.283
22.6709 8.409
22.6861 8.087
22.7013 8.481
22.7165 8.146
22.7316 6.409
