'Id: "" Comment: "" Operator: "Lab Manager" Anode: "Mo" Scantype: "Still (Eiger2R_500K (1D mode))" TimePerStep: "300" X: "11.8" Y: "9.4" Z: "11.284" 
7.2532 19.183
7.2684 18.736
7.2836 18.862
7.2987 18.832
7.3139 19.029
7.3291 19.199
7.3443 19.443
7.3594 19.414
7.3746 18.977
7.3898 18.930
7.4050 19.180
7.4201 19.353
7.4353 19.418
7.4505 19.716
7.4657 19.513
7.4808 19.804
7.4960 19.649
7.5112 19.608
7.5264 19.571
7.5415 19.691
7.5567 19.568
7.5719 19.430
7.5871 19.890
7.6022 19.940
7.6174 19.818
7.6326 20.041
7.6478 19.985
7.6629 20.018
7.6781 19.902
7.6933 20.100
7.7085 20.208
7.7236 20.109
7.7388 20.515
7.7540 20.651
7.7692 20.494
7.7843 20.263
7.7995 20.569
7.8147 20.818
7.8299 20.441
7.8450 20.451
7.8602 20.524
7.8754 20.757
7.8905 20.809
7.9057 20.759
7.9209 20.783
7.9361 20.498
7.9512 20.633
7.9664 21.131
7.9816 21.047
7.9968 20.898
8.0119 20.706
8.0271 20.484
8.0423 20.742
8.0575 21.019
8.0726 21.173
8.0878 21.037
8.1030 21.363
8.1182 21.307
8.1333 21.386
8.1485 21.799
8.1637 21.452
8.1789 21.165
8.1940 21.420
8.2092 21.074
8.2244 21.500
8.2396 21.873
8.2547 21.484
8.2699 21.323
8.2851 21.473
8.3003 21.589
8.3154 21.551
8.3306 21.631
8.3458 21.586
8.3610 21.738
8.3761 21.852
8.3913 21.608
8.4065 21.365
8.4217 21.956
8.4368 21.890
8.4520 22.097
8.4672 22.064
8.4824 21.744
8.4975 21.863
8.5127 22.040
8.5279 22.319
8.5431 21.930
8.5582 21.691
8.5734 22.134
8.5886 21.946
8.6038 21.919
8.6189 22.294
8.6341 22.474
8.6493 22.259
8.6645 22.195
8.6796 22.334
8.6948 22.494
8.7100 22.096
8.7252 22.694
8.7403 22.613
8.7555 22.249
8.7707 22.234
8.7859 22.296
8.8010 22.248
8.8162 22.377
8.8314 22.560
8.8466 21.835
8.8617 22.462
8.8769 21.908
8.8921 22.168
8.9073 22.449
8.9224 22.379
8.9376 22.362
8.9528 22.763
8.9680 22.681
8.9831 22.491
8.9983 22.145
9.0135 23.015
9.0287 22.552
9.0438 22.669
9.0590 22.604
9.0742 22.718
9.0894 22.999
9.1045 22.516
9.1197 22.450
9.1349 22.690
9.1501 22.744
9.1652 22.959
9.1804 22.774
9.1956 22.674
9.2108 22.579
9.2259 22.434
9.2411 22.695
9.2563 22.703
9.2715 22.879
9.2866 22.658
9.3018 22.506
9.3170 23.051
9.3322 22.993
9.3473 22.875
9.3625 23.009
9.3777 23.127
9.3929 22.954
9.4080 22.922
9.4232 22.808
9.4384 22.711
9.4536 22.940
9.4687 23.367
9.4839 23.332
9.4991 23.016
9.5143 22.988
9.5294 22.779
9.5446 23.118
9.5598 23.310
9.5750 22.934
9.5901 23.029
9.6053 23.332
9.6205 23.628
9.6357 23.417
9.6508 23.501
9.6660 23.426
9.6812 23.331
9.6964 23.611
9.7115 23.871
9.7267 23.778
9.7419 24.035
9.7571 24.233
9.7722 23.836
9.7874 23.741
9.8026 23.551
9.8178 23.349
9.8329 23.322
9.8481 23.454
9.8633 23.373
9.8785 23.017
9.8936 22.906
9.9088 22.786
9.9240 22.783
9.9392 22.911
9.9543 23.063
9.9695 23.110
9.9847 23.190
9.9999 22.796
10.0150 22.629
10.0302 23.222
10.0454 23.414
10.0606 23.252
10.0757 23.123
10.0909 23.003
10.1061 22.968
10.1213 23.484
10.1364 23.527
10.1516 23.243
10.1668 23.339
10.1820 23.407
10.1971 23.399
10.2123 23.390
10.2275 22.925
10.2427 23.015
10.2578 23.266
10.2730 23.019
10.2882 23.163
10.3034 23.026
10.3185 22.293
10.3337 22.305
10.3489 22.743
10.3641 22.875
10.3792 22.296
10.3944 22.785
10.4096 22.597
10.4248 22.438
10.4399 22.472
10.4551 22.626
10.4703 22.814
10.4855 22.729
10.5006 22.593
10.5158 22.430
10.5310 22.456
10.5462 22.809
10.5613 22.769
10.5765 22.245
10.5917 22.250
10.6069 22.538
10.6220 22.548
10.6372 22.500
10.6524 22.221
10.6676 22.407
10.6827 22.256
10.6979 22.692
10.7131 22.616
10.7283 22.434
10.7434 22.077
10.7586 21.909
10.7738 22.521
10.7890 22.369
10.8041 22.191
10.8193 22.137
10.8345 22.168
10.8497 22.022
10.8648 22.061
10.8800 22.278
10.8952 21.964
10.9104 22.319
10.9255 22.148
10.9407 22.126
10.9559 22.131
10.9711 21.946
10.9862 22.117
11.0014 22.063
11.0166 22.067
11.0318 21.906
11.0469 21.850
11.0621 21.520
11.0773 21.779
11.0925 21.827
11.1076 22.029
11.1228 21.935
11.1380 21.812
11.1532 21.853
11.1683 21.834
11.1835 21.482
11.1987 21.575
11.2139 21.614
11.2290 21.769
11.2442 21.720
11.2594 21.498
11.2746 21.714
11.2897 21.735
11.3049 21.604
11.3201 21.661
11.3353 21.533
11.3504 21.433
11.3656 21.365
11.3808 21.469
11.3960 21.560
11.4111 21.449
11.4263 21.331
11.4415 21.163
11.4567 21.113
11.4718 21.094
11.4870 21.031
11.5022 20.946
11.5174 20.930
11.5325 21.233
11.5477 21.192
11.5629 21.143
11.5781 20.827
11.5932 20.891
11.6084 20.832
11.6236 20.792
11.6388 20.883
11.6539 20.771
11.6691 20.972
11.6843 20.548
11.6995 20.241
11.7146 20.470
11.7298 20.277
11.7450 20.089
11.7602 20.211
11.7753 20.010
11.7905 19.842
11.8057 20.119
11.8209 20.061
11.8360 19.646
11.8512 19.533
11.8664 20.001
11.8816 20.057
11.8967 19.523
11.9119 19.673
11.9271 19.291
11.9423 19.145
11.9574 19.132
11.9726 19.131
11.9878 19.347
12.0030 19.188
12.0181 19.029
12.0333 18.935
12.0485 18.696
12.0637 18.672
12.0788 18.558
12.0940 18.703
12.1092 18.904
12.1244 18.841
12.1395 18.664
12.1547 18.456
12.1699 18.033
12.1851 18.399
12.2002 18.202
12.2154 18.127
12.2306 18.245
12.2458 18.047
12.2609 17.897
12.2761 17.699
12.2913 17.793
12.3065 18.004
12.3216 17.890
12.3368 17.759
12.3520 17.453
12.3672 17.053
12.3823 17.289
12.3975 16.829
12.4127 16.639
12.4279 16.735
12.4430 16.560
12.4582 16.506
12.4734 16.604
12.4886 16.229
12.5037 16.572
12.5189 16.684
12.5341 16.314
12.5493 16.621
12.5644 16.572
12.5796 16.228
12.5948 15.972
12.6100 15.915
12.6251 15.927
12.6403 15.815
12.6555 15.900
12.6707 15.949
12.6858 16.025
12.7010 15.762
12.7162 15.577
12.7314 15.504
12.7465 15.659
12.7617 15.650
12.7769 15.349
12.7921 15.270
12.8072 15.151
12.8224 15.137
12.8376 14.967
12.8528 14.874
12.8679 14.837
12.8831 14.570
12.8983 14.512
12.9135 14.580
12.9286 14.739
12.9438 14.816
12.9590 14.600
12.9742 14.256
12.9893 14.209
13.0045 14.108
13.0197 14.252
13.0349 14.397
13.0500 14.245
13.0652 14.249
13.0804 14.081
13.0956 13.939
13.1107 13.935
13.1259 13.839
13.1411 13.649
13.1563 13.592
13.1714 13.556
13.1866 13.620
13.2018 13.610
13.2170 13.309
13.2321 13.241
13.2473 13.385
13.2625 13.273
13.2777 13.048
13.2928 13.060
13.3080 12.986
13.3232 12.909
13.3384 12.965
13.3535 12.975
13.3687 12.898
13.3839 12.870
13.3991 12.804
13.4142 12.827
13.4294 12.787
13.4446 12.643
13.4598 12.688
13.4749 12.485
13.4901 12.461
13.5053 12.527
13.5205 12.402
13.5356 12.279
13.5508 12.238
13.5660 12.410
13.5812 12.363
13.5963 12.270
13.6115 12.216
13.6267 12.080
13.6419 12.069
13.6570 12.016
13.6722 12.279
13.6874 12.060
13.7026 11.798
13.7177 11.974
13.7329 12.140
13.7481 11.915
13.7633 11.852
13.7784 11.750
13.7936 11.826
13.8088 12.048
13.8239 12.270
13.8391 12.387
13.8543 11.994
13.8695 12.049
13.8846 12.366
13.8998 12.487
13.9150 12.212
13.9302 11.974
13.9453 12.150
13.9605 12.131
13.9757 11.718
13.9909 11.515
14.0060 11.416
14.0212 11.629
14.0364 11.504
14.0516 11.547
14.0667 11.558
14.0819 11.403
14.0971 11.244
14.1123 11.357
14.1274 11.370
14.1426 11.575
14.1578 11.648
14.1730 11.227
14.1881 11.364
14.2033 11.361
14.2185 11.570
14.2337 11.722
14.2488 11.694
14.2640 11.859
14.2792 11.784
14.2944 11.433
14.3095 12.061
14.3247 12.175
14.3399 12.378
14.3551 12.809
14.3702 12.754
14.3854 13.110
14.4006 13.205
14.4158 13.319
14.4309 13.356
14.4461 13.237
14.4613 13.137
14.4765 12.646
14.4916 12.188
14.5068 11.917
14.5220 11.776
14.5372 11.539
14.5523 11.660
14.5675 11.198
14.5827 10.947
14.5979 10.893
14.6130 10.650
14.6282 10.985
14.6434 10.698
14.6586 10.857
14.6737 10.574
14.6889 10.806
14.7041 10.519
14.7193 10.649
14.7344 10.464
14.7496 10.715
14.7648 10.345
14.7800 10.791
14.7951 10.517
14.8103 10.489
14.8255 10.620
14.8407 10.304
14.8558 10.578
14.8710 10.452
14.8862 10.667
14.9014 10.560
14.9165 10.676
14.9317 10.403
14.9469 10.623
14.9621 10.673
14.9772 10.206
14.9924 10.469
15.0076 10.299
15.0228 10.499
15.0379 10.601
15.0531 9.988
15.0683 10.493
15.0835 10.193
15.0986 10.181
15.1138 10.455
15.1290 10.224
15.1442 10.290
15.1593 10.116
15.1745 10.106
15.1897 9.982
15.2049 10.384
15.2200 10.551
15.2352 10.002
15.2504 10.161
15.2656 10.245
15.2807 10.219
15.2959 9.975
15.3111 10.006
15.3263 9.967
15.3414 10.254
15.3566 10.006
15.3718 10.040
15.3870 9.994
15.4021 10.074
15.4173 10.116
15.4325 10.106
15.4477 10.347
15.4628 10.409
15.4780 10.036
15.4932 9.865
15.5084 10.102
15.5235 9.948
15.5387 10.052
15.5539 9.913
15.5691 9.736
15.5842 9.793
15.5994 9.728
15.6146 9.903
15.6298 9.677
15.6449 9.473
15.6601 9.790
15.6753 9.767
15.6905 9.866
15.7056 9.669
15.7208 9.715
15.7360 9.901
15.7512 9.895
15.7663 9.688
15.7815 9.632
15.7967 9.850
15.8119 9.336
15.8270 9.590
15.8422 9.691
15.8574 9.619
15.8726 9.498
15.8877 9.325
15.9029 9.689
15.9181 9.625
15.9333 9.632
15.9484 9.535
15.9636 9.487
15.9788 9.547
15.9940 9.625
16.0091 9.628
16.0243 9.536
16.0395 9.502
16.0547 9.535
16.0698 9.474
16.0850 9.475
16.1002 9.412
16.1154 9.547
16.1305 9.365
16.1457 9.562
16.1609 9.666
16.1761 9.649
16.1912 9.560
16.2064 9.579
16.2216 9.781
16.2368 9.806
16.2519 9.712
16.2671 9.709
16.2823 9.717
16.2975 9.855
16.3126 9.608
16.3278 9.614
16.3430 9.747
16.3582 9.528
16.3733 9.786
16.3885 10.034
16.4037 9.872
16.4189 9.819
16.4340 9.651
16.4492 9.423
16.4644 9.627
16.4796 9.658
16.4947 9.721
16.5099 10.066
16.5251 9.667
16.5403 9.563
16.5554 9.547
16.5706 9.574
16.5858 9.546
16.6010 9.685
16.6161 9.530
16.6313 9.549
16.6465 9.543
16.6617 9.725
16.6768 9.681
16.6920 9.791
16.7072 10.128
16.7224 10.001
16.7375 9.949
16.7527 9.809
16.7679 9.667
16.7831 9.742
16.7982 9.760
16.8134 9.802
16.8286 9.788
16.8438 9.925
16.8589 9.969
16.8741 9.838
16.8893 9.714
16.9045 9.831
16.9196 9.844
16.9348 9.518
16.9500 9.597
16.9652 9.846
16.9803 9.806
16.9955 9.492
17.0107 9.725
17.0259 10.028
17.0410 10.114
17.0562 10.265
17.0714 10.157
17.0866 10.127
17.1017 10.339
17.1169 10.723
17.1321 10.937
17.1473 11.159
17.1624 11.596
17.1776 12.137
17.1928 12.802
17.2080 13.698
17.2231 14.848
17.2383 16.233
17.2535 17.647
17.2687 18.475
17.2838 18.249
17.2990 17.615
17.3142 16.927
17.3294 16.125
17.3445 15.722
17.3597 15.653
17.3749 15.593
17.3901 15.040
17.4052 14.047
17.4204 12.963
17.4356 12.371
17.4508 11.972
17.4659 11.404
17.4811 11.311
17.4963 11.350
17.5115 11.317
17.5266 11.226
17.5418 10.814
17.5570 10.637
17.5722 10.842
17.5873 10.962
17.6025 11.151
17.6177 11.111
17.6329 11.182
17.6480 11.225
17.6632 11.408
17.6784 12.051
17.6936 12.174
17.7087 11.987
17.7239 11.932
17.7391 11.723
17.7543 11.457
17.7694 11.365
17.7846 11.356
17.7998 11.385
17.8150 11.349
17.8301 10.916
17.8453 10.594
17.8605 10.479
17.8757 10.408
17.8908 10.271
17.9060 10.189
17.9212 10.199
17.9364 10.172
17.9515 10.207
17.9667 10.357
17.9819 10.448
17.9971 10.364
18.0122 10.274
18.0274 10.365
18.0426 10.295
18.0578 10.206
18.0729 10.027
18.0881 9.893
18.1033 10.015
18.1185 10.229
18.1336 10.031
18.1488 9.927
18.1640 9.925
18.1792 9.970
18.1943 9.911
18.2095 10.060
18.2247 10.031
18.2399 9.775
18.2550 9.672
18.2702 9.716
18.2854 9.794
18.3006 9.670
18.3157 9.712
18.3309 9.793
18.3461 9.849
18.3613 9.785
18.3764 9.776
18.3916 9.604
18.4068 9.879
18.4220 9.931
18.4371 9.742
18.4523 9.605
18.4675 9.581
18.4827 9.621
18.4978 9.711
18.5130 9.755
18.5282 9.767
18.5434 9.884
18.5585 9.808
18.5737 9.779
18.5889 9.820
18.6041 9.882
18.6192 9.796
18.6344 9.620
18.6496 9.579
18.6648 9.690
18.6799 9.750
18.6951 9.663
18.7103 9.653
18.7255 9.543
18.7406 9.506
18.7558 9.690
18.7710 9.839
18.7862 9.714
18.8013 9.622
18.8165 9.491
18.8317 9.660
18.8469 9.706
18.8620 9.830
18.8772 10.115
18.8924 10.051
18.9076 9.945
18.9227 9.904
18.9379 9.740
18.9531 9.685
18.9683 9.820
18.9834 9.962
18.9986 10.277
19.0138 10.232
19.0290 10.065
19.0441 10.044
19.0593 10.135
19.0745 10.268
19.0897 10.301
19.1048 10.426
19.1200 10.367
19.1352 10.402
19.1504 10.528
19.1655 10.710
19.1807 10.410
19.1959 10.401
19.2111 10.541
19.2262 10.442
19.2414 10.478
19.2566 10.657
19.2718 10.859
19.2869 10.848
19.3021 10.820
19.3173 10.873
19.3325 10.906
19.3476 10.993
19.3628 11.179
19.3780 11.225
19.3932 11.081
19.4083 11.010
19.4235 11.208
19.4387 11.078
19.4539 11.235
19.4690 11.399
19.4842 11.340
19.4994 11.518
19.5146 11.541
19.5297 11.608
19.5449 11.652
19.5601 11.404
19.5753 11.358
19.5904 11.640
19.6056 11.628
19.6208 11.543
19.6360 11.735
19.6511 11.624
19.6663 11.617
19.6815 11.553
19.6967 11.485
19.7118 11.695
19.7270 11.715
19.7422 11.731
19.7574 11.783
19.7725 11.748
19.7877 11.676
19.8029 11.872
19.8180 12.042
19.8332 11.908
19.8484 12.280
19.8636 12.626
19.8787 12.718
19.8939 12.931
19.9091 13.022
19.9243 13.375
19.9394 13.840
19.9546 14.038
19.9698 14.284
19.9850 14.300
20.0001 14.107
20.0153 14.143
20.0305 14.206
20.0457 14.099
20.0608 13.990
20.0760 13.814
20.0912 13.589
20.1064 13.401
20.1215 12.958
20.1367 12.791
20.1519 12.774
20.1671 12.948
20.1822 12.809
20.1974 12.855
20.2126 12.743
20.2278 12.403
20.2429 12.465
20.2581 12.476
20.2733 12.288
20.2885 11.697
20.3036 11.725
20.3188 11.678
20.3340 11.967
20.3492 11.948
20.3643 11.892
20.3795 11.957
20.3947 11.724
20.4099 11.619
20.4250 11.772
20.4402 12.213
20.4554 12.193
20.4706 12.048
20.4857 12.065
20.5009 11.737
20.5161 11.744
20.5313 11.645
20.5464 11.679
20.5616 11.561
20.5768 11.585
20.5920 11.649
20.6071 11.315
20.6223 11.443
20.6375 11.204
20.6527 11.067
20.6678 11.101
20.6830 10.834
20.6982 10.646
20.7134 10.492
20.7285 10.368
20.7437 10.184
20.7589 10.425
20.7741 10.325
20.7892 10.254
20.8044 10.317
20.8196 10.344
20.8348 10.171
20.8499 10.209
20.8651 10.428
20.8803 10.531
20.8955 10.257
20.9106 10.171
20.9258 10.252
20.9410 9.989
20.9562 10.152
20.9713 10.171
20.9865 10.241
21.0017 9.852
21.0169 9.790
21.0320 10.034
21.0472 9.987
21.0624 9.718
21.0776 9.884
21.0927 9.685
21.1079 9.504
21.1231 9.529
21.1383 9.848
21.1534 10.066
21.1686 10.091
21.1838 9.708
21.1990 9.523
21.2141 9.624
21.2293 9.828
21.2445 9.471
21.2597 9.305
21.2748 9.621
21.2900 9.773
21.3052 9.380
21.3204 9.715
21.3355 9.620
21.3507 9.631
21.3659 9.706
21.3811 9.503
21.3962 9.603
21.4114 9.866
21.4266 9.207
21.4418 9.654
21.4569 9.608
21.4721 9.300
21.4873 9.254
21.5025 9.349
21.5176 9.273
21.5328 9.488
21.5480 9.433
21.5632 9.380
21.5783 9.274
21.5935 9.286
21.6087 9.147
21.6239 8.911
21.6390 9.187
21.6542 9.308
21.6694 9.096
21.6846 9.149
21.6997 9.211
21.7149 9.058
21.7301 9.054
21.7453 9.291
21.7604 9.196
21.7756 8.955
21.7908 8.976
21.8060 8.906
21.8211 8.885
21.8363 8.760
21.8515 8.858
21.8667 8.802
21.8818 8.717
21.8970 8.969
21.9122 9.063
21.9274 8.916
21.9425 8.625
21.9577 8.742
21.9729 8.979
21.9881 8.997
22.0032 9.018
22.0184 8.919
22.0336 8.996
22.0488 8.757
22.0639 8.509
22.0791 8.567
22.0943 8.651
22.1095 8.586
22.1246 8.720
22.1398 8.654
22.1550 8.545
22.1702 8.613
22.1853 8.644
22.2005 8.678
22.2157 8.477
22.2309 8.608
22.2460 8.889
22.2612 8.615
22.2764 8.437
22.2916 8.472
22.3067 8.414
22.3219 8.631
22.3371 8.672
22.3523 8.411
22.3674 8.494
22.3826 8.360
22.3978 8.338
22.4130 8.166
22.4281 8.478
22.4433 8.442
22.4585 8.451
22.4737 8.499
22.4888 8.338
22.5040 8.512
22.5192 8.593
22.5344 8.626
22.5495 8.277
22.5647 8.405
22.5799 8.250
22.5951 8.425
22.6102 8.769
22.6254 8.330
22.6406 8.084
22.6558 8.461
22.6709 8.231
22.6861 7.929
22.7013 8.219
22.7165 8.151
22.7316 6.372
