'Id: "" Comment: "" Operator: "Lab Manager" Anode: "Mo" Scantype: "Still (Eiger2R_500K (1D mode))" TimePerStep: "300" X: "11.8" Y: "9.4" Z: "11.284" 
7.2532 18.970
7.2684 19.260
7.2836 18.891
7.2987 18.591
7.3139 19.408
7.3291 19.443
7.3443 19.261
7.3594 19.261
7.3746 19.318
7.3898 19.160
7.4050 19.331
7.4201 19.429
7.4353 19.613
7.4505 19.542
7.4657 19.556
7.4808 19.492
7.4960 19.211
7.5112 19.509
7.5264 19.885
7.5415 19.884
7.5567 20.050
7.5719 20.102
7.5871 20.228
7.6022 20.130
7.6174 19.880
7.6326 19.792
7.6478 19.723
7.6629 20.472
7.6781 20.632
7.6933 20.237
7.7085 20.216
7.7236 20.589
7.7388 20.547
7.7540 20.364
7.7692 20.520
7.7843 20.472
7.7995 20.775
7.8147 20.911
7.8299 20.726
7.8450 20.716
7.8602 20.628
7.8754 20.808
7.8905 21.001
7.9057 20.986
7.9209 20.851
7.9361 21.243
7.9512 21.577
7.9664 21.242
7.9816 21.211
7.9968 20.922
8.0119 20.968
8.0271 21.313
8.0423 20.843
8.0575 21.085
8.0726 21.561
8.0878 21.533
8.1030 21.638
8.1182 21.498
8.1333 21.142
8.1485 21.360
8.1637 21.546
8.1789 21.175
8.1940 21.486
8.2092 21.679
8.2244 21.537
8.2396 21.640
8.2547 21.820
8.2699 21.776
8.2851 21.506
8.3003 21.329
8.3154 21.511
8.3306 21.862
8.3458 21.852
8.3610 21.573
8.3761 22.006
8.3913 22.796
8.4065 22.088
8.4217 21.991
8.4368 22.378
8.4520 22.021
8.4672 21.933
8.4824 21.517
8.4975 22.069
8.5127 22.059
8.5279 21.658
8.5431 22.151
8.5582 22.376
8.5734 22.334
8.5886 22.135
8.6038 22.215
8.6189 22.686
8.6341 22.641
8.6493 22.966
8.6645 22.723
8.6796 22.800
8.6948 22.616
8.7100 22.739
8.7252 22.754
8.7403 23.101
8.7555 22.832
8.7707 22.679
8.7859 22.664
8.8010 22.786
8.8162 22.968
8.8314 22.738
8.8466 22.937
8.8617 22.753
8.8769 22.790
8.8921 22.613
8.9073 22.781
8.9224 22.347
8.9376 22.896
8.9528 22.982
8.9680 22.529
8.9831 22.768
8.9983 23.170
9.0135 23.144
9.0287 22.857
9.0438 22.791
9.0590 22.889
9.0742 22.764
9.0894 23.130
9.1045 22.932
9.1197 22.975
9.1349 23.057
9.1501 22.678
9.1652 22.960
9.1804 23.276
9.1956 23.021
9.2108 22.923
9.2259 23.336
9.2411 23.193
9.2563 22.833
9.2715 23.029
9.2866 23.427
9.3018 23.276
9.3170 22.941
9.3322 23.027
9.3473 23.001
9.3625 22.928
9.3777 23.231
9.3929 23.084
9.4080 23.396
9.4232 23.278
9.4384 23.194
9.4536 23.330
9.4687 23.655
9.4839 23.720
9.4991 23.271
9.5143 23.205
9.5294 23.290
9.5446 23.140
9.5598 23.288
9.5750 23.521
9.5901 23.550
9.6053 23.413
9.6205 23.300
9.6357 23.334
9.6508 23.671
9.6660 23.621
9.6812 23.763
9.6964 23.913
9.7115 23.765
9.7267 23.891
9.7419 24.210
9.7571 24.131
9.7722 23.839
9.7874 23.539
9.8026 23.481
9.8178 23.841
9.8329 24.108
9.8481 23.754
9.8633 23.243
9.8785 23.493
9.8936 23.566
9.9088 23.688
9.9240 23.607
9.9392 23.682
9.9543 23.835
9.9695 23.669
9.9847 23.577
9.9999 23.432
10.0150 23.417
10.0302 23.666
10.0454 23.775
10.0606 23.384
10.0757 23.169
10.0909 23.036
10.1061 23.244
10.1213 23.509
10.1364 23.266
10.1516 23.157
10.1668 23.071
10.1820 23.454
10.1971 23.510
10.2123 23.228
10.2275 23.350
10.2427 23.729
10.2578 23.749
10.2730 23.632
10.2882 23.495
10.3034 23.406
10.3185 23.287
10.3337 23.051
10.3489 23.132
10.3641 23.484
10.3792 23.112
10.3944 22.743
10.4096 22.964
10.4248 23.164
10.4399 23.097
10.4551 22.913
10.4703 22.656
10.4855 22.665
10.5006 22.956
10.5158 22.887
10.5310 22.442
10.5462 22.425
10.5613 22.727
10.5765 22.869
10.5917 22.749
10.6069 22.803
10.6220 22.854
10.6372 22.597
10.6524 22.725
10.6676 22.781
10.6827 23.046
10.6979 22.619
10.7131 22.580
10.7283 22.302
10.7434 22.658
10.7586 22.551
10.7738 22.075
10.7890 22.225
10.8041 22.636
10.8193 22.513
10.8345 22.530
10.8497 22.382
10.8648 22.343
10.8800 22.481
10.8952 22.085
10.9104 22.201
10.9255 22.431
10.9407 22.428
10.9559 22.190
10.9711 22.221
10.9862 22.456
11.0014 22.545
11.0166 22.236
11.0318 22.421
11.0469 22.447
11.0621 22.260
11.0773 22.031
11.0925 21.709
11.1076 22.225
11.1228 22.115
11.1380 21.920
11.1532 21.912
11.1683 21.937
11.1835 21.837
11.1987 22.134
11.2139 22.109
11.2290 22.139
11.2442 21.881
11.2594 22.124
11.2746 21.994
11.2897 21.734
11.3049 21.638
11.3201 21.758
11.3353 21.611
11.3504 21.374
11.3656 21.374
11.3808 21.684
11.3960 21.493
11.4111 21.459
11.4263 21.327
11.4415 21.197
11.4567 21.568
11.4718 21.252
11.4870 21.097
11.5022 21.126
11.5174 20.869
11.5325 21.035
11.5477 20.953
11.5629 21.148
11.5781 20.983
11.5932 20.921
11.6084 20.994
11.6236 20.984
11.6388 20.600
11.6539 20.423
11.6691 20.742
11.6843 20.644
11.6995 20.560
11.7146 20.623
11.7298 20.626
11.7450 20.085
11.7602 20.265
11.7753 20.432
11.7905 20.482
11.8057 20.285
11.8209 20.257
11.8360 20.210
11.8512 20.113
11.8664 20.296
11.8816 20.045
11.8967 19.537
11.9119 19.822
11.9271 19.821
11.9423 19.534
11.9574 19.395
11.9726 19.312
11.9878 19.316
12.0030 19.354
12.0181 19.268
12.0333 19.083
12.0485 19.094
12.0637 19.016
12.0788 19.073
12.0940 19.056
12.1092 19.075
12.1244 18.849
12.1395 18.776
12.1547 18.792
12.1699 18.655
12.1851 18.243
12.2002 17.975
12.2154 18.173
12.2306 18.237
12.2458 17.756
12.2609 17.825
12.2761 17.983
12.2913 17.896
12.3065 17.787
12.3216 17.733
12.3368 17.728
12.3520 17.446
12.3672 17.692
12.3823 17.782
12.3975 17.551
12.4127 17.406
12.4279 17.182
12.4430 17.172
12.4582 17.140
12.4734 16.892
12.4886 16.756
12.5037 17.010
12.5189 17.019
12.5341 16.937
12.5493 16.808
12.5644 16.793
12.5796 16.685
12.5948 16.608
12.6100 16.411
12.6251 16.339
12.6403 16.302
12.6555 16.212
12.6707 15.829
12.6858 15.937
12.7010 15.905
12.7162 15.648
12.7314 15.776
12.7465 15.786
12.7617 15.769
12.7769 15.692
12.7921 15.552
12.8072 15.298
12.8224 15.049
12.8376 15.007
12.8528 14.992
12.8679 15.107
12.8831 15.101
12.8983 15.005
12.9135 14.942
12.9286 14.996
12.9438 14.603
12.9590 14.481
12.9742 14.884
12.9893 14.938
13.0045 14.640
13.0197 14.233
13.0349 14.235
13.0500 14.402
13.0652 14.333
13.0804 14.141
13.0956 14.050
13.1107 13.850
13.1259 13.791
13.1411 13.974
13.1563 13.876
13.1714 13.796
13.1866 13.804
13.2018 13.744
13.2170 13.645
13.2321 13.482
13.2473 13.247
13.2625 13.351
13.2777 13.523
13.2928 13.355
13.3080 13.155
13.3232 13.166
13.3384 13.357
13.3535 13.245
13.3687 13.318
13.3839 13.297
13.3991 13.032
13.4142 12.913
13.4294 12.773
13.4446 12.784
13.4598 12.890
13.4749 12.949
13.4901 12.813
13.5053 12.664
13.5205 12.761
13.5356 12.708
13.5508 12.423
13.5660 12.476
13.5812 12.390
13.5963 12.415
13.6115 12.438
13.6267 12.330
13.6419 12.289
13.6570 12.324
13.6722 12.213
13.6874 12.220
13.7026 12.054
13.7177 12.132
13.7329 12.036
13.7481 12.006
13.7633 12.159
13.7784 12.286
13.7936 12.250
13.8088 12.060
13.8239 12.245
13.8391 12.344
13.8543 12.268
13.8695 12.280
13.8846 12.344
13.8998 12.302
13.9150 12.091
13.9302 12.087
13.9453 12.293
13.9605 12.041
13.9757 11.907
13.9909 11.671
14.0060 11.575
14.0212 11.789
14.0364 11.667
14.0516 11.589
14.0667 11.600
14.0819 11.595
14.0971 11.538
14.1123 11.564
14.1274 11.493
14.1426 11.683
14.1578 11.633
14.1730 11.622
14.1881 11.715
14.2033 11.894
14.2185 11.798
14.2337 11.889
14.2488 11.853
14.2640 11.742
14.2792 11.771
14.2944 11.777
14.3095 12.013
14.3247 11.779
14.3399 12.193
14.3551 12.382
14.3702 12.397
14.3854 12.971
14.4006 12.879
14.4158 12.716
14.4309 12.345
14.4461 12.337
14.4613 12.301
14.4765 12.066
14.4916 11.997
14.5068 11.715
14.5220 11.379
14.5372 11.457
14.5523 11.315
14.5675 11.335
14.5827 11.114
14.5979 10.969
14.6130 11.194
14.6282 11.097
14.6434 10.858
14.6586 11.005
14.6737 10.899
14.6889 10.913
14.7041 10.975
14.7193 10.891
14.7344 10.836
14.7496 11.033
14.7648 11.172
14.7800 10.801
14.7951 10.691
14.8103 10.839
14.8255 10.876
14.8407 10.508
14.8558 10.444
14.8710 10.889
14.8862 10.969
14.9014 10.707
14.9165 11.102
14.9317 10.804
14.9469 10.631
14.9621 10.744
14.9772 10.497
14.9924 10.626
15.0076 10.187
15.0228 10.733
15.0379 10.712
15.0531 10.489
15.0683 10.653
15.0835 10.360
15.0986 10.441
15.1138 10.387
15.1290 10.175
15.1442 10.656
15.1593 10.224
15.1745 10.362
15.1897 10.715
15.2049 10.306
15.2200 10.680
15.2352 10.554
15.2504 10.458
15.2656 10.403
15.2807 10.258
15.2959 10.640
15.3111 10.075
15.3263 10.130
15.3414 10.214
15.3566 10.086
15.3718 10.421
15.3870 10.199
15.4021 10.354
15.4173 10.375
15.4325 10.564
15.4477 11.009
15.4628 10.622
15.4780 10.494
15.4932 10.462
15.5084 10.684
15.5235 10.501
15.5387 10.137
15.5539 10.235
15.5691 10.165
15.5842 10.112
15.5994 10.249
15.6146 10.543
15.6298 10.260
15.6449 10.075
15.6601 10.050
15.6753 10.160
15.6905 9.820
15.7056 10.086
15.7208 9.907
15.7360 10.224
15.7512 9.889
15.7663 9.909
15.7815 9.720
15.7967 9.779
15.8119 10.022
15.8270 10.058
15.8422 9.904
15.8574 9.893
15.8726 9.759
15.8877 9.594
15.9029 9.747
15.9181 9.742
15.9333 9.924
15.9484 9.876
15.9636 9.794
15.9788 10.010
15.9940 9.989
16.0091 9.868
16.0243 9.772
16.0395 9.804
16.0547 9.591
16.0698 9.804
16.0850 9.718
16.1002 9.886
16.1154 9.608
16.1305 9.684
16.1457 9.906
16.1609 9.754
16.1761 9.499
16.1912 9.941
16.2064 9.802
16.2216 9.694
16.2368 9.870
16.2519 9.883
16.2671 10.028
16.2823 10.287
16.2975 10.224
16.3126 9.940
16.3278 10.051
16.3430 10.300
16.3582 10.198
16.3733 10.075
16.3885 10.314
16.4037 10.054
16.4189 10.034
16.4340 9.972
16.4492 10.009
16.4644 10.191
16.4796 9.985
16.4947 9.935
16.5099 9.561
16.5251 9.711
16.5403 9.861
16.5554 9.671
16.5706 9.746
16.5858 9.687
16.6010 9.602
16.6161 9.927
16.6313 9.764
16.6465 9.589
16.6617 9.802
16.6768 9.893
16.6920 9.815
16.7072 9.884
16.7224 10.185
16.7375 10.404
16.7527 10.225
16.7679 10.013
16.7831 10.128
16.7982 10.116
16.8134 10.055
16.8286 9.897
16.8438 10.019
16.8589 10.122
16.8741 9.930
16.8893 9.886
16.9045 9.921
16.9196 9.904
16.9348 9.863
16.9500 9.774
16.9652 9.741
16.9803 9.842
16.9955 9.867
17.0107 9.826
17.0259 9.988
17.0410 10.344
17.0562 10.395
17.0714 10.416
17.0866 10.477
17.1017 10.509
17.1169 10.843
17.1321 10.983
17.1473 11.197
17.1624 11.790
17.1776 12.461
17.1928 13.192
17.2080 13.876
17.2231 14.963
17.2383 16.518
17.2535 17.706
17.2687 18.654
17.2838 18.823
17.2990 17.841
17.3142 17.079
17.3294 16.741
17.3445 16.420
17.3597 16.114
17.3749 15.957
17.3901 15.319
17.4052 14.475
17.4204 13.351
17.4356 12.355
17.4508 11.984
17.4659 11.629
17.4811 11.562
17.4963 11.522
17.5115 11.364
17.5266 11.244
17.5418 11.285
17.5570 11.371
17.5722 11.410
17.5873 11.126
17.6025 11.087
17.6177 11.150
17.6329 10.947
17.6480 10.818
17.6632 10.661
17.6784 10.635
17.6936 10.718
17.7087 10.726
17.7239 10.692
17.7391 10.397
17.7543 10.137
17.7694 10.035
17.7846 10.241
17.7998 10.171
17.8150 10.028
17.8301 10.210
17.8453 10.117
17.8605 10.020
17.8757 10.136
17.8908 10.138
17.9060 10.283
17.9212 10.347
17.9364 10.190
17.9515 10.179
17.9667 10.243
17.9819 10.292
17.9971 10.297
18.0122 10.263
18.0274 10.364
18.0426 10.478
18.0578 10.365
18.0729 10.108
18.0881 10.155
18.1033 10.112
18.1185 9.989
18.1336 10.098
18.1488 10.037
18.1640 9.907
18.1792 9.988
18.1943 9.819
18.2095 9.869
18.2247 9.864
18.2399 9.820
18.2550 9.823
18.2702 9.866
18.2854 9.836
18.3006 9.970
18.3157 10.010
18.3309 9.918
18.3461 10.010
18.3613 10.019
18.3764 9.942
18.3916 9.766
18.4068 9.889
18.4220 9.983
18.4371 9.957
18.4523 9.866
18.4675 9.920
18.4827 9.919
18.4978 9.876
18.5130 10.045
18.5282 10.056
18.5434 10.050
18.5585 9.856
18.5737 9.727
18.5889 9.877
18.6041 10.034
18.6192 9.757
18.6344 9.448
18.6496 9.602
18.6648 9.732
18.6799 9.771
18.6951 9.852
18.7103 9.783
18.7255 9.734
18.7406 9.786
18.7558 9.805
18.7710 9.999
18.7862 9.972
18.8013 9.715
18.8165 9.635
18.8317 9.742
18.8469 9.795
18.8620 9.880
18.8772 10.042
18.8924 9.892
18.9076 9.935
18.9227 9.899
18.9379 9.875
18.9531 9.918
18.9683 9.825
18.9834 9.948
18.9986 10.203
19.0138 10.276
19.0290 10.305
19.0441 10.005
19.0593 10.198
19.0745 10.237
19.0897 10.173
19.1048 10.337
19.1200 10.406
19.1352 10.350
19.1504 10.288
19.1655 10.351
19.1807 10.551
19.1959 10.707
19.2111 10.831
19.2262 10.687
19.2414 10.577
19.2566 10.692
19.2718 10.785
19.2869 10.950
19.3021 10.985
19.3173 11.040
19.3325 10.988
19.3476 11.048
19.3628 11.398
19.3780 11.245
19.3932 11.156
19.4083 11.439
19.4235 11.436
19.4387 11.506
19.4539 11.580
19.4690 11.614
19.4842 11.606
19.4994 11.543
19.5146 11.391
19.5297 11.440
19.5449 11.491
19.5601 11.369
19.5753 11.493
19.5904 11.651
19.6056 11.547
19.6208 11.435
19.6360 11.564
19.6511 11.538
19.6663 11.493
19.6815 11.751
19.6967 11.711
19.7118 11.786
19.7270 11.897
19.7422 11.860
19.7574 11.615
19.7725 11.536
19.7877 11.785
19.8029 11.879
19.8180 11.898
19.8332 12.093
19.8484 12.155
19.8636 12.142
19.8787 12.618
19.8939 13.005
19.9091 13.289
19.9243 13.522
19.9394 13.689
19.9546 13.965
19.9698 14.341
19.9850 14.610
20.0001 14.392
20.0153 14.067
20.0305 13.851
20.0457 13.664
20.0608 13.722
20.0760 13.676
20.0912 13.719
20.1064 13.869
20.1215 13.479
20.1367 12.967
20.1519 12.883
20.1671 12.878
20.1822 12.943
20.1974 13.040
20.2126 12.836
20.2278 12.761
20.2429 12.693
20.2581 12.453
20.2733 12.137
20.2885 11.954
20.3036 11.795
20.3188 11.619
20.3340 11.556
20.3492 11.472
20.3643 11.351
20.3795 11.326
20.3947 11.002
20.4099 10.616
20.4250 10.654
20.4402 10.880
20.4554 10.788
20.4706 10.565
20.4857 10.791
20.5009 10.718
20.5161 10.771
20.5313 10.709
20.5464 10.427
20.5616 10.515
20.5768 10.476
20.5920 10.591
20.6071 10.863
20.6223 10.839
20.6375 10.542
20.6527 10.502
20.6678 10.741
20.6830 10.797
20.6982 10.487
20.7134 10.505
20.7285 10.580
20.7437 10.641
20.7589 10.380
20.7741 10.251
20.7892 10.370
20.8044 10.187
20.8196 10.275
20.8348 10.322
20.8499 10.303
20.8651 10.252
20.8803 10.029
20.8955 10.055
20.9106 9.924
20.9258 10.258
20.9410 10.205
20.9562 9.970
20.9713 10.107
20.9865 10.103
21.0017 9.923
21.0169 10.218
21.0320 9.853
21.0472 9.993
21.0624 9.926
21.0776 9.730
21.0927 9.947
21.1079 9.621
21.1231 9.787
21.1383 9.725
21.1534 9.771
21.1686 9.775
21.1838 9.955
21.1990 9.667
21.2141 10.092
21.2293 9.694
21.2445 9.618
21.2597 9.733
21.2748 9.579
21.2900 9.732
21.3052 9.697
21.3204 9.473
21.3355 9.620
21.3507 9.528
21.3659 9.363
21.3811 9.718
21.3962 9.462
21.4114 9.363
21.4266 9.576
21.4418 9.159
21.4569 9.495
21.4721 9.627
21.4873 9.500
21.5025 9.385
21.5176 9.293
21.5328 9.393
21.5480 9.437
21.5632 9.294
21.5783 9.262
21.5935 9.229
21.6087 9.239
21.6239 8.932
21.6390 9.076
21.6542 9.081
21.6694 9.240
21.6846 9.180
21.6997 9.070
21.7149 9.260
21.7301 9.127
21.7453 8.910
21.7604 8.876
21.7756 8.871
21.7908 9.263
21.8060 9.521
21.8211 9.238
21.8363 9.033
21.8515 9.123
21.8667 9.051
21.8818 8.950
21.8970 8.966
21.9122 9.154
21.9274 8.930
21.9425 8.963
21.9577 8.942
21.9729 8.896
21.9881 8.992
22.0032 9.233
22.0184 9.061
22.0336 8.865
22.0488 8.955
22.0639 8.924
22.0791 8.840
22.0943 8.814
22.1095 8.891
22.1246 8.801
22.1398 8.705
22.1550 8.671
22.1702 8.640
22.1853 8.502
22.2005 8.518
22.2157 8.583
22.2309 8.599
22.2460 8.621
22.2612 8.626
22.2764 8.735
22.2916 8.766
22.3067 8.847
22.3219 8.898
22.3371 8.620
22.3523 8.549
22.3674 8.516
22.3826 8.418
22.3978 8.472
22.4130 8.417
22.4281 8.580
22.4433 8.358
22.4585 8.869
22.4737 8.437
22.4888 8.470
22.5040 8.554
22.5192 8.400
22.5344 8.644
22.5495 8.609
22.5647 8.551
22.5799 8.498
22.5951 8.620
22.6102 8.765
22.6254 8.539
22.6406 8.550
22.6558 8.348
22.6709 8.331
22.6861 8.605
22.7013 8.586
22.7165 8.087
22.7316 6.477
