'Id: "" Comment: "" Operator: "Lab Manager" Anode: "Mo" Scantype: "Still (Eiger2R_500K (1D mode))" TimePerStep: "300" X: "11.8" Y: "9.4" Z: "11.284" 
7.2532 19.006
7.2684 18.630
7.2836 18.479
7.2987 19.040
7.3139 18.780
7.3291 19.190
7.3443 18.952
7.3594 18.838
7.3746 19.010
7.3898 19.279
7.4050 19.420
7.4201 19.373
7.4353 19.288
7.4505 19.202
7.4657 19.805
7.4808 19.449
7.4960 19.411
7.5112 19.308
7.5264 19.319
7.5415 19.766
7.5567 19.726
7.5719 19.645
7.5871 19.876
7.6022 19.612
7.6174 20.053
7.6326 20.275
7.6478 20.343
7.6629 20.047
7.6781 20.017
7.6933 20.060
7.7085 20.219
7.7236 20.374
7.7388 20.148
7.7540 20.050
7.7692 20.409
7.7843 20.247
7.7995 20.222
7.8147 20.200
7.8299 20.323
7.8450 20.814
7.8602 20.583
7.8754 20.385
7.8905 20.719
7.9057 20.711
7.9209 20.769
7.9361 20.814
7.9512 20.587
7.9664 20.992
7.9816 21.148
7.9968 20.576
8.0119 20.781
8.0271 21.154
8.0423 21.243
8.0575 21.147
8.0726 20.971
8.0878 21.046
8.1030 21.129
8.1182 21.336
8.1333 21.201
8.1485 21.172
8.1637 20.642
8.1789 21.123
8.1940 21.705
8.2092 21.300
8.2244 21.121
8.2396 21.271
8.2547 21.412
8.2699 21.754
8.2851 21.218
8.3003 21.421
8.3154 21.336
8.3306 21.399
8.3458 21.245
8.3610 21.514
8.3761 21.317
8.3913 21.422
8.4065 21.695
8.4217 21.387
8.4368 21.416
8.4520 22.137
8.4672 21.622
8.4824 21.480
8.4975 21.883
8.5127 22.005
8.5279 21.829
8.5431 21.749
8.5582 22.116
8.5734 21.973
8.5886 22.448
8.6038 22.263
8.6189 21.718
8.6341 21.966
8.6493 21.833
8.6645 22.074
8.6796 22.046
8.6948 22.592
8.7100 22.343
8.7252 22.041
8.7403 22.251
8.7555 22.490
8.7707 22.163
8.7859 22.505
8.8010 22.453
8.8162 22.119
8.8314 22.438
8.8466 22.423
8.8617 22.461
8.8769 22.290
8.8921 22.200
8.9073 22.285
8.9224 22.148
8.9376 22.302
8.9528 22.415
8.9680 22.555
8.9831 22.251
8.9983 22.112
9.0135 22.544
9.0287 22.575
9.0438 22.641
9.0590 22.475
9.0742 22.742
9.0894 22.678
9.1045 22.237
9.1197 22.782
9.1349 22.730
9.1501 22.508
9.1652 22.972
9.1804 22.916
9.1956 22.635
9.2108 22.868
9.2259 23.131
9.2411 22.510
9.2563 22.836
9.2715 22.785
9.2866 22.829
9.3018 22.797
9.3170 22.861
9.3322 23.010
9.3473 22.664
9.3625 22.584
9.3777 22.948
9.3929 23.153
9.4080 22.810
9.4232 22.933
9.4384 22.674
9.4536 22.770
9.4687 23.057
9.4839 22.831
9.4991 22.714
9.5143 22.832
9.5294 23.112
9.5446 23.052
9.5598 22.958
9.5750 23.054
9.5901 23.184
9.6053 23.293
9.6205 23.321
9.6357 23.348
9.6508 23.365
9.6660 23.414
9.6812 23.373
9.6964 23.599
9.7115 23.689
9.7267 23.628
9.7419 23.827
9.7571 23.984
9.7722 24.001
9.7874 23.896
9.8026 23.539
9.8178 23.342
9.8329 23.515
9.8481 23.209
9.8633 23.104
9.8785 23.718
9.8936 23.507
9.9088 23.019
9.9240 22.829
9.9392 22.758
9.9543 23.084
9.9695 23.418
9.9847 23.163
9.9999 23.241
10.0150 23.192
10.0302 23.100
10.0454 23.238
10.0606 23.006
10.0757 23.001
10.0909 23.285
10.1061 23.184
10.1213 23.325
10.1364 23.461
10.1516 23.263
10.1668 23.119
10.1820 23.326
10.1971 23.555
10.2123 23.096
10.2275 22.902
10.2427 22.925
10.2578 23.013
10.2730 22.870
10.2882 22.753
10.3034 22.626
10.3185 22.644
10.3337 23.051
10.3489 22.952
10.3641 22.689
10.3792 22.767
10.3944 22.684
10.4096 22.364
10.4248 22.558
10.4399 22.752
10.4551 23.086
10.4703 23.001
10.4855 22.685
10.5006 22.736
10.5158 22.759
10.5310 22.588
10.5462 22.487
10.5613 22.424
10.5765 22.476
10.5917 22.702
10.6069 22.787
10.6220 22.728
10.6372 22.448
10.6524 22.294
10.6676 22.255
10.6827 22.505
10.6979 22.528
10.7131 22.537
10.7283 22.324
10.7434 22.119
10.7586 22.392
10.7738 22.287
10.7890 22.300
10.8041 22.397
10.8193 22.454
10.8345 22.350
10.8497 22.354
10.8648 22.286
10.8800 22.107
10.8952 21.680
10.9104 21.854
10.9255 22.099
10.9407 22.104
10.9559 21.877
10.9711 22.140
10.9862 22.187
11.0014 22.126
11.0166 22.248
11.0318 21.872
11.0469 21.667
11.0621 21.939
11.0773 21.981
11.0925 21.769
11.1076 21.950
11.1228 21.985
11.1380 21.566
11.1532 21.675
11.1683 21.632
11.1835 21.522
11.1987 21.398
11.2139 21.317
11.2290 21.844
11.2442 21.865
11.2594 21.639
11.2746 21.712
11.2897 21.381
11.3049 21.294
11.3201 21.158
11.3353 21.579
11.3504 21.539
11.3656 21.411
11.3808 21.625
11.3960 21.300
11.4111 21.129
11.4263 21.358
11.4415 21.264
11.4567 21.265
11.4718 21.397
11.4870 20.879
11.5022 20.863
11.5174 20.721
11.5325 21.148
11.5477 20.964
11.5629 20.643
11.5781 21.032
11.5932 20.927
11.6084 20.836
11.6236 20.890
11.6388 20.636
11.6539 20.715
11.6691 21.099
11.6843 20.611
11.6995 20.381
11.7146 20.265
11.7298 19.881
11.7450 19.849
11.7602 19.922
11.7753 20.027
11.7905 19.876
11.8057 20.041
11.8209 19.897
11.8360 20.171
11.8512 19.993
11.8664 19.872
11.8816 19.417
11.8967 19.770
11.9119 19.677
11.9271 19.160
11.9423 19.129
11.9574 19.384
11.9726 19.578
11.9878 19.093
12.0030 19.125
12.0181 19.129
12.0333 19.099
12.0485 18.995
12.0637 19.250
12.0788 18.758
12.0940 18.907
12.1092 18.942
12.1244 18.567
12.1395 18.381
12.1547 18.197
12.1699 18.190
12.1851 18.320
12.2002 18.309
12.2154 17.975
12.2306 17.911
12.2458 17.836
12.2609 17.824
12.2761 17.622
12.2913 17.754
12.3065 17.616
12.3216 17.536
12.3368 17.429
12.3520 17.276
12.3672 17.305
12.3823 17.532
12.3975 17.311
12.4127 17.148
12.4279 17.125
12.4430 17.099
12.4582 16.688
12.4734 16.828
12.4886 16.794
12.5037 16.672
12.5189 16.600
12.5341 16.522
12.5493 16.480
12.5644 16.183
12.5796 15.954
12.5948 16.232
12.6100 16.094
12.6251 15.914
12.6403 15.880
12.6555 15.901
12.6707 15.841
12.6858 15.571
12.7010 15.692
12.7162 15.475
12.7314 15.368
12.7465 15.363
12.7617 15.308
12.7769 15.363
12.7921 15.383
12.8072 15.232
12.8224 15.037
12.8376 14.983
12.8528 14.537
12.8679 14.479
12.8831 14.668
12.8983 14.499
12.9135 14.286
12.9286 14.280
12.9438 14.318
12.9590 14.311
12.9742 14.295
12.9893 14.339
13.0045 14.337
13.0197 14.102
13.0349 14.086
13.0500 13.931
13.0652 13.675
13.0804 13.850
13.0956 13.905
13.1107 13.704
13.1259 13.759
13.1411 13.808
13.1563 13.584
13.1714 13.506
13.1866 13.560
13.2018 13.498
13.2170 13.384
13.2321 13.346
13.2473 13.378
13.2625 13.290
13.2777 13.299
13.2928 13.282
13.3080 13.021
13.3232 13.116
13.3384 13.327
13.3535 13.166
13.3687 13.019
13.3839 12.918
13.3991 12.828
13.4142 12.852
13.4294 12.616
13.4446 12.681
13.4598 12.743
13.4749 12.519
13.4901 12.641
13.5053 12.672
13.5205 12.511
13.5356 12.394
13.5508 12.157
13.5660 12.099
13.5812 12.047
13.5963 12.351
13.6115 12.133
13.6267 12.141
13.6419 12.174
13.6570 11.977
13.6722 11.938
13.6874 12.166
13.7026 11.971
13.7177 11.759
13.7329 11.788
13.7481 11.712
13.7633 11.797
13.7784 11.945
13.7936 11.935
13.8088 11.974
13.8239 12.165
13.8391 12.226
13.8543 12.217
13.8695 12.344
13.8846 12.272
13.8998 11.934
13.9150 11.646
13.9302 11.579
13.9453 11.755
13.9605 11.719
13.9757 11.648
13.9909 11.761
14.0060 11.871
14.0212 11.882
14.0364 11.523
14.0516 11.641
14.0667 11.331
14.0819 11.316
14.0971 11.185
14.1123 11.258
14.1274 11.346
14.1426 11.472
14.1578 11.607
14.1730 11.491
14.1881 11.476
14.2033 11.555
14.2185 11.514
14.2337 11.375
14.2488 11.550
14.2640 11.545
14.2792 12.006
14.2944 11.907
14.3095 12.289
14.3247 11.995
14.3399 12.245
14.3551 12.503
14.3702 12.844
14.3854 13.193
14.4006 13.061
14.4158 13.473
14.4309 13.269
14.4461 13.277
14.4613 12.768
14.4765 12.690
14.4916 12.528
14.5068 12.644
14.5220 12.079
14.5372 11.595
14.5523 11.421
14.5675 11.332
14.5827 11.223
14.5979 10.935
14.6130 10.853
14.6282 10.798
14.6434 10.890
14.6586 11.035
14.6737 10.759
14.6889 10.645
14.7041 10.635
14.7193 10.955
14.7344 10.811
14.7496 10.484
14.7648 10.131
14.7800 10.563
14.7951 10.387
14.8103 10.334
14.8255 10.336
14.8407 10.581
14.8558 10.268
14.8710 10.263
14.8862 10.590
14.9014 10.526
14.9165 10.687
14.9317 10.644
14.9469 10.452
14.9621 10.728
14.9772 10.191
14.9924 10.274
15.0076 10.197
15.0228 10.320
15.0379 10.333
15.0531 10.469
15.0683 10.338
15.0835 10.125
15.0986 9.982
15.1138 10.106
15.1290 10.192
15.1442 10.400
15.1593 10.260
15.1745 10.083
15.1897 10.148
15.2049 10.348
15.2200 10.226
15.2352 10.073
15.2504 9.998
15.2656 10.236
15.2807 10.010
15.2959 10.033
15.3111 10.110
15.3263 9.684
15.3414 10.108
15.3566 10.304
15.3718 10.108
15.3870 10.348
15.4021 10.024
15.4173 10.224
15.4325 9.893
15.4477 10.173
15.4628 10.315
15.4780 10.099
15.4932 9.870
15.5084 9.975
15.5235 9.873
15.5387 9.976
15.5539 10.122
15.5691 9.797
15.5842 9.754
15.5994 9.781
15.6146 9.971
15.6298 9.460
15.6449 9.777
15.6601 9.760
15.6753 9.760
15.6905 9.568
15.7056 9.633
15.7208 9.732
15.7360 9.916
15.7512 9.640
15.7663 9.547
15.7815 9.729
15.7967 9.836
15.8119 9.805
15.8270 9.609
15.8422 9.431
15.8574 9.566
15.8726 9.523
15.8877 9.608
15.9029 9.707
15.9181 9.649
15.9333 9.532
15.9484 9.489
15.9636 9.649
15.9788 9.428
15.9940 9.439
16.0091 9.587
16.0243 9.677
16.0395 9.822
16.0547 9.610
16.0698 9.519
16.0850 9.372
16.1002 9.649
16.1154 9.601
16.1305 9.195
16.1457 9.540
16.1609 9.543
16.1761 9.486
16.1912 9.764
16.2064 9.698
16.2216 9.833
16.2368 9.843
16.2519 9.785
16.2671 9.644
16.2823 9.560
16.2975 9.650
16.3126 9.856
16.3278 9.781
16.3430 9.718
16.3582 9.963
16.3733 9.961
16.3885 9.796
16.4037 9.953
16.4189 9.945
16.4340 9.568
16.4492 9.655
16.4644 9.857
16.4796 9.620
16.4947 9.351
16.5099 9.558
16.5251 9.479
16.5403 9.468
16.5554 9.425
16.5706 9.406
16.5858 9.516
16.6010 9.466
16.6161 9.527
16.6313 9.481
16.6465 9.633
16.6617 9.675
16.6768 9.548
16.6920 9.759
16.7072 10.006
16.7224 9.863
16.7375 9.842
16.7527 9.954
16.7679 9.779
16.7831 9.749
16.7982 9.651
16.8134 9.637
16.8286 9.909
16.8438 9.843
16.8589 9.758
16.8741 9.822
16.8893 9.758
16.9045 9.585
16.9196 9.644
16.9348 9.901
16.9500 9.969
16.9652 9.931
16.9803 9.901
16.9955 9.598
17.0107 9.730
17.0259 9.954
17.0410 10.026
17.0562 10.080
17.0714 9.906
17.0866 10.171
17.1017 10.533
17.1169 10.576
17.1321 10.916
17.1473 11.132
17.1624 11.604
17.1776 12.301
17.1928 12.838
17.2080 13.833
17.2231 15.067
17.2383 16.326
17.2535 17.218
17.2687 18.142
17.2838 18.702
17.2990 18.013
17.3142 16.860
17.3294 16.044
17.3445 15.847
17.3597 15.934
17.3749 15.843
17.3901 15.005
17.4052 14.017
17.4204 13.318
17.4356 12.491
17.4508 11.934
17.4659 11.634
17.4811 11.328
17.4963 11.284
17.5115 11.084
17.5266 10.834
17.5418 10.859
17.5570 10.805
17.5722 11.028
17.5873 11.275
17.6025 11.073
17.6177 10.901
17.6329 11.223
17.6480 11.326
17.6632 11.506
17.6784 11.845
17.6936 11.819
17.7087 11.831
17.7239 11.752
17.7391 11.513
17.7543 11.253
17.7694 11.164
17.7846 11.215
17.7998 11.231
17.8150 11.247
17.8301 10.871
17.8453 10.598
17.8605 10.529
17.8757 10.465
17.8908 10.380
17.9060 10.335
17.9212 10.383
17.9364 10.219
17.9515 10.101
17.9667 10.180
17.9819 10.145
17.9971 10.051
18.0122 10.126
18.0274 10.209
18.0426 10.326
18.0578 10.114
18.0729 10.117
18.0881 10.144
18.1033 9.883
18.1185 9.762
18.1336 10.127
18.1488 10.068
18.1640 9.795
18.1792 9.949
18.1943 10.041
18.2095 10.026
18.2247 9.949
18.2399 9.771
18.2550 9.500
18.2702 9.533
18.2854 9.773
18.3006 9.968
18.3157 10.000
18.3309 9.972
18.3461 9.978
18.3613 10.004
18.3764 9.909
18.3916 9.771
18.4068 9.651
18.4220 9.606
18.4371 9.711
18.4523 9.855
18.4675 9.956
18.4827 9.968
18.4978 9.862
18.5130 9.804
18.5282 9.816
18.5434 9.922
18.5585 9.853
18.5737 9.864
18.5889 9.882
18.6041 9.769
18.6192 9.724
18.6344 9.759
18.6496 9.623
18.6648 9.719
18.6799 9.697
18.6951 9.811
18.7103 9.702
18.7255 9.653
18.7406 9.836
18.7558 10.037
18.7710 9.808
18.7862 9.880
18.8013 9.647
18.8165 9.386
18.8317 9.565
18.8469 9.837
18.8620 9.801
18.8772 9.903
18.8924 10.072
18.9076 9.975
18.9227 9.878
18.9379 9.763
18.9531 9.878
18.9683 9.896
18.9834 9.986
18.9986 10.161
19.0138 10.092
19.0290 9.975
19.0441 10.060
19.0593 10.238
19.0745 10.349
19.0897 10.410
19.1048 10.256
19.1200 10.265
19.1352 10.205
19.1504 10.137
19.1655 10.237
19.1807 10.545
19.1959 10.637
19.2111 10.578
19.2262 10.602
19.2414 10.462
19.2566 10.657
19.2718 11.071
19.2869 10.970
19.3021 10.903
19.3173 10.897
19.3325 10.876
19.3476 10.839
19.3628 10.940
19.3780 11.085
19.3932 10.857
19.4083 11.057
19.4235 11.292
19.4387 11.382
19.4539 11.437
19.4690 11.412
19.4842 11.442
19.4994 11.438
19.5146 11.458
19.5297 11.608
19.5449 11.733
19.5601 11.569
19.5753 11.711
19.5904 11.632
19.6056 11.455
19.6208 11.558
19.6360 11.568
19.6511 11.525
19.6663 11.738
19.6815 11.610
19.6967 11.491
19.7118 11.706
19.7270 11.952
19.7422 11.814
19.7574 11.769
19.7725 11.817
19.7877 11.847
19.8029 12.071
19.8180 12.208
19.8332 12.240
19.8484 12.209
19.8636 12.216
19.8787 12.687
19.8939 13.155
19.9091 13.123
19.9243 13.516
19.9394 14.071
19.9546 14.132
19.9698 14.113
19.9850 14.285
20.0001 14.316
20.0153 14.185
20.0305 14.228
20.0457 13.944
20.0608 13.704
20.0760 13.560
20.0912 13.621
20.1064 13.696
20.1215 13.441
20.1367 13.248
20.1519 13.021
20.1671 13.016
20.1822 13.070
20.1974 12.960
20.2126 13.042
20.2278 12.873
20.2429 12.788
20.2581 12.522
20.2733 12.075
20.2885 11.759
20.3036 11.907
20.3188 12.232
20.3340 12.035
20.3492 12.022
20.3643 11.800
20.3795 11.646
20.3947 11.544
20.4099 11.778
20.4250 11.946
20.4402 11.803
20.4554 11.900
20.4706 12.176
20.4857 12.151
20.5009 12.036
20.5161 12.046
20.5313 12.169
20.5464 11.922
20.5616 11.399
20.5768 11.159
20.5920 11.451
20.6071 11.518
20.6223 11.147
20.6375 11.181
20.6527 10.866
20.6678 10.704
20.6830 10.570
20.6982 10.478
20.7134 10.481
20.7285 10.588
20.7437 10.432
20.7589 10.577
20.7741 10.381
20.7892 10.429
20.8044 10.311
20.8196 10.578
20.8348 10.425
20.8499 10.132
20.8651 10.257
20.8803 10.155
20.8955 10.203
20.9106 10.177
20.9258 9.911
20.9410 9.837
20.9562 10.181
20.9713 10.395
20.9865 9.923
21.0017 9.990
21.0169 10.176
21.0320 10.223
21.0472 9.953
21.0624 10.245
21.0776 10.072
21.0927 9.954
21.1079 10.200
21.1231 10.042
21.1383 9.651
21.1534 9.604
21.1686 9.470
21.1838 9.673
21.1990 10.016
21.2141 9.945
21.2293 9.592
21.2445 9.521
21.2597 9.620
21.2748 9.807
21.2900 9.603
21.3052 9.560
21.3204 9.883
21.3355 9.533
21.3507 9.632
21.3659 9.619
21.3811 9.341
21.3962 9.329
21.4114 9.417
21.4266 9.363
21.4418 9.427
21.4569 9.304
21.4721 9.322
21.4873 9.395
21.5025 9.490
21.5176 9.313
21.5328 9.479
21.5480 9.317
21.5632 9.042
21.5783 9.180
21.5935 8.956
21.6087 8.891
21.6239 9.385
21.6390 9.128
21.6542 9.398
21.6694 9.462
21.6846 9.138
21.6997 9.245
21.7149 9.235
21.7301 9.084
21.7453 9.135
21.7604 9.046
21.7756 9.107
21.7908 9.051
21.8060 9.104
21.8211 9.167
21.8363 9.178
21.8515 8.919
21.8667 8.988
21.8818 9.001
21.8970 9.027
21.9122 9.148
21.9274 8.954
21.9425 8.861
21.9577 9.005
21.9729 8.852
21.9881 8.694
22.0032 8.850
22.0184 8.850
22.0336 8.644
22.0488 8.592
22.0639 8.741
22.0791 8.871
22.0943 8.867
22.1095 8.790
22.1246 8.753
22.1398 8.582
22.1550 8.420
22.1702 8.534
22.1853 8.658
22.2005 8.633
22.2157 8.414
22.2309 8.452
22.2460 8.376
22.2612 8.404
22.2764 8.518
22.2916 8.771
22.3067 8.490
22.3219 8.452
22.3371 8.512
22.3523 8.794
22.3674 8.612
22.3826 8.635
22.3978 8.588
22.4130 8.495
22.4281 8.406
22.4433 8.353
22.4585 8.414
22.4737 8.336
22.4888 8.525
22.5040 8.411
22.5192 8.509
22.5344 8.297
22.5495 8.437
22.5647 8.549
22.5799 8.514
22.5951 8.505
22.6102 8.088
22.6254 8.466
22.6406 8.483
22.6558 8.467
22.6709 8.438
22.6861 8.077
22.7013 8.219
22.7165 7.985
22.7316 6.400
