'Id: "" Comment: "" Operator: "Lab Manager" Anode: "Mo" Scantype: "Still (Eiger2R_500K (1D mode))" TimePerStep: "300" X: "11.8" Y: "9.4" Z: "11.284" 
7.2532 18.810
7.2684 18.955
7.2836 18.958
7.2987 18.762
7.3139 18.722
7.3291 18.919
7.3443 19.140
7.3594 19.010
7.3746 18.966
7.3898 19.463
7.4050 19.157
7.4201 19.034
7.4353 19.559
7.4505 19.162
7.4657 19.403
7.4808 19.419
7.4960 19.497
7.5112 19.664
7.5264 19.759
7.5415 19.577
7.5567 19.514
7.5719 19.612
7.5871 19.975
7.6022 19.834
7.6174 19.835
7.6326 19.649
7.6478 20.086
7.6629 20.323
7.6781 20.074
7.6933 19.838
7.7085 19.892
7.7236 20.007
7.7388 20.165
7.7540 20.127
7.7692 20.222
7.7843 20.359
7.7995 20.366
7.8147 20.169
7.8299 20.011
7.8450 20.093
7.8602 20.319
7.8754 20.341
7.8905 20.431
7.9057 20.380
7.9209 20.545
7.9361 21.154
7.9512 20.952
7.9664 20.607
7.9816 20.553
7.9968 20.829
8.0119 20.920
8.0271 21.394
8.0423 20.826
8.0575 20.958
8.0726 20.815
8.0878 21.174
8.1030 21.313
8.1182 21.216
8.1333 21.170
8.1485 21.222
8.1637 21.275
8.1789 20.698
8.1940 21.039
8.2092 21.195
8.2244 21.141
8.2396 21.288
8.2547 21.078
8.2699 21.627
8.2851 21.655
8.3003 21.178
8.3154 21.519
8.3306 21.677
8.3458 21.757
8.3610 21.543
8.3761 21.876
8.3913 21.667
8.4065 21.524
8.4217 21.898
8.4368 22.247
8.4520 21.800
8.4672 21.556
8.4824 21.354
8.4975 21.600
8.5127 21.846
8.5279 21.932
8.5431 22.243
8.5582 22.060
8.5734 21.920
8.5886 21.697
8.6038 21.947
8.6189 22.166
8.6341 21.778
8.6493 22.048
8.6645 21.935
8.6796 22.183
8.6948 22.332
8.7100 22.501
8.7252 21.709
8.7403 21.852
8.7555 21.968
8.7707 22.184
8.7859 22.110
8.8010 22.733
8.8162 22.640
8.8314 22.334
8.8466 22.654
8.8617 22.363
8.8769 22.595
8.8921 22.586
8.9073 22.308
8.9224 22.539
8.9376 22.163
8.9528 22.075
8.9680 22.797
8.9831 22.566
8.9983 22.912
9.0135 22.711
9.0287 22.651
9.0438 22.360
9.0590 22.358
9.0742 22.727
9.0894 22.695
9.1045 22.269
9.1197 22.236
9.1349 22.656
9.1501 22.800
9.1652 22.756
9.1804 22.700
9.1956 22.941
9.2108 22.621
9.2259 22.805
9.2411 22.875
9.2563 22.883
9.2715 22.716
9.2866 22.821
9.3018 23.078
9.3170 22.748
9.3322 22.773
9.3473 22.951
9.3625 22.957
9.3777 22.755
9.3929 22.792
9.4080 23.248
9.4232 23.021
9.4384 23.232
9.4536 22.891
9.4687 22.815
9.4839 23.212
9.4991 23.109
9.5143 23.122
9.5294 23.149
9.5446 22.779
9.5598 22.937
9.5750 22.904
9.5901 22.907
9.6053 22.990
9.6205 22.859
9.6357 22.970
9.6508 23.396
9.6660 23.492
9.6812 23.646
9.6964 23.611
9.7115 23.674
9.7267 23.768
9.7419 23.638
9.7571 23.487
9.7722 23.435
9.7874 23.577
9.8026 23.701
9.8178 23.485
9.8329 23.433
9.8481 23.650
9.8633 23.535
9.8785 23.290
9.8936 23.054
9.9088 22.960
9.9240 23.131
9.9392 23.239
9.9543 23.255
9.9695 23.044
9.9847 23.115
9.9999 23.315
10.0150 23.344
10.0302 23.306
10.0454 23.202
10.0606 22.893
10.0757 22.691
10.0909 23.092
10.1061 23.151
10.1213 23.292
10.1364 23.767
10.1516 23.388
10.1668 22.988
10.1820 23.030
10.1971 22.994
10.2123 23.107
10.2275 23.092
10.2427 22.859
10.2578 22.839
10.2730 22.788
10.2882 22.969
10.3034 22.666
10.3185 22.630
10.3337 22.533
10.3489 22.394
10.3641 22.684
10.3792 22.520
10.3944 22.687
10.4096 22.930
10.4248 22.508
10.4399 22.325
10.4551 22.544
10.4703 22.637
10.4855 22.370
10.5006 22.501
10.5158 22.308
10.5310 22.259
10.5462 22.351
10.5613 22.480
10.5765 22.487
10.5917 22.265
10.6069 22.560
10.6220 22.769
10.6372 22.684
10.6524 22.700
10.6676 22.506
10.6827 22.313
10.6979 22.267
10.7131 22.335
10.7283 22.426
10.7434 22.596
10.7586 22.236
10.7738 22.226
10.7890 22.074
10.8041 22.521
10.8193 22.615
10.8345 21.830
10.8497 21.728
10.8648 21.904
10.8800 21.654
10.8952 21.977
10.9104 22.134
10.9255 21.922
10.9407 21.589
10.9559 21.789
10.9711 21.958
10.9862 22.102
11.0014 22.136
11.0166 22.207
11.0318 21.807
11.0469 21.682
11.0621 21.939
11.0773 21.951
11.0925 21.702
11.1076 21.766
11.1228 21.581
11.1380 21.422
11.1532 21.612
11.1683 21.829
11.1835 22.103
11.1987 21.895
11.2139 21.974
11.2290 21.945
11.2442 21.434
11.2594 21.724
11.2746 21.544
11.2897 21.028
11.3049 21.071
11.3201 21.451
11.3353 21.562
11.3504 21.371
11.3656 21.506
11.3808 21.090
11.3960 21.209
11.4111 21.326
11.4263 20.963
11.4415 21.233
11.4567 21.257
11.4718 21.506
11.4870 21.355
11.5022 20.918
11.5174 20.768
11.5325 20.646
11.5477 20.995
11.5629 21.045
11.5781 20.606
11.5932 20.483
11.6084 20.954
11.6236 20.693
11.6388 20.339
11.6539 20.516
11.6691 20.625
11.6843 20.650
11.6995 20.450
11.7146 19.968
11.7298 20.125
11.7450 20.457
11.7602 20.135
11.7753 20.194
11.7905 20.158
11.8057 20.070
11.8209 19.919
11.8360 19.856
11.8512 19.955
11.8664 19.983
11.8816 19.728
11.8967 19.534
11.9119 19.554
11.9271 19.815
11.9423 19.371
11.9574 19.395
11.9726 19.096
11.9878 19.051
12.0030 19.007
12.0181 18.823
12.0333 18.768
12.0485 19.043
12.0637 18.766
12.0788 18.925
12.0940 18.896
12.1092 18.943
12.1244 18.999
12.1395 18.559
12.1547 18.590
12.1699 18.335
12.1851 18.333
12.2002 18.396
12.2154 18.010
12.2306 18.101
12.2458 18.137
12.2609 18.220
12.2761 18.020
12.2913 17.863
12.3065 17.574
12.3216 17.499
12.3368 17.406
12.3520 17.096
12.3672 17.171
12.3823 17.443
12.3975 17.470
12.4127 17.569
12.4279 17.080
12.4430 16.961
12.4582 17.121
12.4734 17.009
12.4886 16.841
12.5037 16.665
12.5189 16.376
12.5341 16.102
12.5493 16.132
12.5644 16.103
12.5796 16.201
12.5948 16.301
12.6100 16.535
12.6251 16.408
12.6403 16.196
12.6555 16.046
12.6707 15.921
12.6858 15.515
12.7010 15.578
12.7162 15.696
12.7314 15.383
12.7465 15.298
12.7617 15.435
12.7769 15.224
12.7921 15.050
12.8072 15.062
12.8224 15.172
12.8376 15.044
12.8528 14.929
12.8679 14.809
12.8831 14.835
12.8983 14.928
12.9135 14.790
12.9286 14.464
12.9438 14.628
12.9590 14.859
12.9742 14.555
12.9893 14.247
13.0045 14.290
13.0197 14.211
13.0349 14.114
13.0500 14.060
13.0652 13.838
13.0804 13.834
13.0956 13.588
13.1107 13.379
13.1259 13.555
13.1411 13.475
13.1563 13.450
13.1714 13.550
13.1866 13.653
13.2018 13.696
13.2170 13.439
13.2321 13.200
13.2473 13.150
13.2625 13.135
13.2777 13.145
13.2928 13.163
13.3080 13.001
13.3232 13.179
13.3384 13.363
13.3535 13.209
13.3687 13.165
13.3839 13.128
13.3991 13.090
13.4142 12.927
13.4294 12.972
13.4446 12.942
13.4598 12.865
13.4749 12.791
13.4901 12.614
13.5053 12.501
13.5205 12.406
13.5356 12.377
13.5508 12.307
13.5660 12.238
13.5812 12.282
13.5963 12.334
13.6115 12.422
13.6267 12.309
13.6419 11.951
13.6570 12.000
13.6722 12.008
13.6874 12.198
13.7026 12.210
13.7177 12.247
13.7329 12.252
13.7481 12.094
13.7633 11.919
13.7784 12.075
13.7936 12.268
13.8088 12.247
13.8239 12.253
13.8391 12.223
13.8543 12.241
13.8695 12.563
13.8846 12.435
13.8998 12.126
13.9150 12.475
13.9302 12.252
13.9453 12.118
13.9605 12.061
13.9757 11.864
13.9909 11.802
14.0060 11.794
14.0212 11.907
14.0364 11.715
14.0516 11.636
14.0667 11.709
14.0819 11.412
14.0971 11.377
14.1123 11.556
14.1274 11.611
14.1426 11.689
14.1578 11.591
14.1730 11.429
14.1881 11.374
14.2033 11.450
14.2185 11.435
14.2337 11.572
14.2488 11.347
14.2640 11.625
14.2792 12.104
14.2944 11.767
14.3095 11.678
14.3247 12.186
14.3399 12.309
14.3551 12.654
14.3702 12.588
14.3854 12.703
14.4006 13.159
14.4158 12.827
14.4309 12.488
14.4461 12.583
14.4613 12.395
14.4765 12.453
14.4916 12.006
14.5068 11.912
14.5220 11.753
14.5372 11.391
14.5523 11.755
14.5675 11.335
14.5827 11.009
14.5979 10.887
14.6130 10.835
14.6282 10.886
14.6434 10.925
14.6586 10.515
14.6737 10.365
14.6889 10.830
14.7041 10.747
14.7193 10.662
14.7344 10.461
14.7496 10.733
14.7648 10.561
14.7800 10.442
14.7951 10.363
14.8103 10.450
14.8255 10.327
14.8407 10.780
14.8558 10.388
14.8710 10.483
14.8862 10.315
14.9014 10.281
14.9165 10.674
14.9317 10.773
14.9469 10.438
14.9621 10.378
14.9772 9.779
14.9924 10.252
15.0076 9.975
15.0228 10.403
15.0379 10.291
15.0531 10.508
15.0683 10.574
15.0835 10.103
15.0986 10.299
15.1138 10.322
15.1290 10.218
15.1442 10.281
15.1593 10.033
15.1745 9.569
15.1897 9.855
15.2049 9.856
15.2200 10.122
15.2352 9.950
15.2504 10.130
15.2656 9.798
15.2807 9.950
15.2959 10.330
15.3111 10.043
15.3263 10.126
15.3414 9.901
15.3566 10.029
15.3718 10.135
15.3870 10.127
15.4021 10.064
15.4173 9.942
15.4325 10.245
15.4477 10.243
15.4628 9.904
15.4780 10.240
15.4932 10.021
15.5084 10.250
15.5235 9.847
15.5387 9.792
15.5539 10.042
15.5691 10.035
15.5842 9.931
15.5994 9.949
15.6146 9.896
15.6298 9.669
15.6449 9.915
15.6601 9.906
15.6753 9.684
15.6905 9.596
15.7056 9.798
15.7208 9.605
15.7360 9.400
15.7512 9.469
15.7663 9.559
15.7815 9.461
15.7967 9.549
15.8119 9.607
15.8270 9.840
15.8422 9.623
15.8574 9.644
15.8726 9.547
15.8877 9.621
15.9029 9.398
15.9181 9.513
15.9333 9.665
15.9484 9.513
15.9636 9.416
15.9788 9.393
15.9940 9.570
16.0091 9.616
16.0243 9.383
16.0395 9.654
16.0547 9.651
16.0698 9.744
16.0850 9.332
16.1002 9.538
16.1154 9.518
16.1305 9.596
16.1457 9.566
16.1609 9.550
16.1761 9.551
16.1912 9.664
16.2064 9.567
16.2216 9.688
16.2368 9.388
16.2519 9.336
16.2671 9.902
16.2823 9.819
16.2975 9.573
16.3126 9.683
16.3278 9.803
16.3430 9.585
16.3582 9.620
16.3733 9.911
16.3885 10.035
16.4037 9.812
16.4189 9.744
16.4340 9.642
16.4492 9.518
16.4644 9.763
16.4796 9.695
16.4947 9.548
16.5099 9.494
16.5251 9.636
16.5403 9.434
16.5554 9.486
16.5706 9.638
16.5858 9.489
16.6010 9.526
16.6161 9.813
16.6313 9.605
16.6465 9.374
16.6617 9.526
16.6768 9.678
16.6920 9.794
16.7072 10.141
16.7224 9.998
16.7375 10.045
16.7527 9.937
16.7679 9.763
16.7831 9.896
16.7982 9.900
16.8134 9.748
16.8286 9.844
16.8438 9.761
16.8589 9.753
16.8741 9.788
16.8893 9.665
16.9045 9.688
16.9196 9.845
16.9348 9.853
16.9500 9.918
16.9652 9.971
16.9803 9.862
16.9955 9.838
17.0107 9.979
17.0259 10.018
17.0410 9.914
17.0562 10.041
17.0714 10.131
17.0866 10.238
17.1017 10.462
17.1169 10.487
17.1321 10.980
17.1473 11.427
17.1624 11.679
17.1776 12.195
17.1928 12.955
17.2080 13.992
17.2231 14.987
17.2383 16.231
17.2535 17.501
17.2687 18.272
17.2838 18.422
17.2990 17.896
17.3142 17.070
17.3294 16.348
17.3445 16.035
17.3597 15.931
17.3749 15.841
17.3901 15.310
17.4052 14.299
17.4204 13.295
17.4356 12.276
17.4508 11.774
17.4659 11.734
17.4811 11.649
17.4963 11.505
17.5115 11.127
17.5266 10.736
17.5418 10.862
17.5570 11.053
17.5722 11.209
17.5873 11.359
17.6025 11.113
17.6177 10.987
17.6329 11.111
17.6480 11.323
17.6632 11.470
17.6784 11.265
17.6936 11.398
17.7087 11.681
17.7239 11.221
17.7391 11.107
17.7543 11.161
17.7694 11.130
17.7846 11.130
17.7998 10.769
17.8150 10.415
17.8301 10.554
17.8453 10.666
17.8605 10.596
17.8757 10.320
17.8908 10.241
17.9060 10.263
17.9212 10.159
17.9364 9.989
17.9515 9.790
17.9667 10.064
17.9819 10.144
17.9971 10.004
18.0122 10.161
18.0274 10.263
18.0426 10.222
18.0578 10.192
18.0729 10.104
18.0881 10.079
18.1033 10.127
18.1185 10.096
18.1336 10.056
18.1488 9.858
18.1640 9.616
18.1792 9.864
18.1943 10.023
18.2095 10.082
18.2247 9.973
18.2399 10.027
18.2550 9.949
18.2702 9.803
18.2854 9.743
18.3006 9.914
18.3157 9.998
18.3309 9.734
18.3461 9.606
18.3613 9.714
18.3764 9.884
18.3916 9.909
18.4068 10.120
18.4220 10.210
18.4371 9.860
18.4523 10.016
18.4675 10.049
18.4827 9.626
18.4978 9.666
18.5130 9.903
18.5282 9.635
18.5434 9.774
18.5585 9.798
18.5737 9.571
18.5889 9.648
18.6041 9.743
18.6192 9.759
18.6344 9.766
18.6496 9.902
18.6648 9.750
18.6799 9.736
18.6951 9.720
18.7103 9.676
18.7255 9.740
18.7406 9.726
18.7558 9.718
18.7710 9.814
18.7862 9.656
18.8013 9.643
18.8165 9.707
18.8317 9.773
18.8469 9.751
18.8620 9.773
18.8772 9.928
18.8924 9.849
18.9076 9.844
18.9227 9.913
18.9379 9.970
18.9531 10.148
18.9683 10.131
18.9834 10.119
18.9986 10.122
19.0138 10.122
19.0290 10.184
19.0441 10.249
19.0593 10.269
19.0745 10.489
19.0897 10.406
19.1048 10.297
19.1200 10.349
19.1352 10.503
19.1504 10.462
19.1655 10.391
19.1807 10.539
19.1959 10.760
19.2111 10.941
19.2262 10.907
19.2414 10.684
19.2566 10.955
19.2718 11.164
19.2869 10.922
19.3021 10.938
19.3173 11.011
19.3325 11.047
19.3476 11.252
19.3628 11.341
19.3780 11.211
19.3932 11.108
19.4083 11.164
19.4235 11.174
19.4387 11.176
19.4539 11.301
19.4690 11.413
19.4842 11.363
19.4994 11.441
19.5146 11.418
19.5297 11.560
19.5449 11.594
19.5601 11.531
19.5753 11.583
19.5904 11.592
19.6056 11.877
19.6208 11.988
19.6360 11.781
19.6511 11.722
19.6663 11.853
19.6815 12.005
19.6967 11.946
19.7118 11.818
19.7270 11.798
19.7422 11.993
19.7574 12.080
19.7725 12.273
19.7877 12.160
19.8029 11.963
19.8180 12.063
19.8332 12.203
19.8484 12.267
19.8636 12.439
19.8787 12.601
19.8939 12.858
19.9091 13.231
19.9243 13.480
19.9394 13.738
19.9546 14.356
19.9698 14.521
19.9850 14.418
20.0001 14.545
20.0153 14.419
20.0305 14.157
20.0457 14.005
20.0608 13.844
20.0760 13.723
20.0912 13.777
20.1064 13.886
20.1215 13.613
20.1367 13.339
20.1519 13.046
20.1671 13.072
20.1822 13.127
20.1974 12.993
20.2126 13.221
20.2278 12.801
20.2429 12.698
20.2581 12.742
20.2733 12.313
20.2885 12.133
20.3036 12.176
20.3188 12.318
20.3340 12.142
20.3492 12.047
20.3643 12.121
20.3795 11.853
20.3947 11.788
20.4099 11.620
20.4250 11.691
20.4402 12.002
20.4554 11.704
20.4706 11.700
20.4857 11.762
20.5009 11.731
20.5161 11.433
20.5313 11.509
20.5464 11.655
20.5616 11.438
20.5768 11.618
20.5920 11.374
20.6071 11.209
20.6223 11.155
20.6375 11.158
20.6527 11.129
20.6678 10.993
20.6830 10.879
20.6982 10.957
20.7134 10.601
20.7285 10.529
20.7437 10.791
20.7589 10.652
20.7741 10.621
20.7892 10.653
20.8044 10.538
20.8196 10.496
20.8348 10.289
20.8499 10.412
20.8651 10.285
20.8803 10.264
20.8955 10.284
20.9106 10.313
20.9258 10.222
20.9410 10.201
20.9562 10.151
20.9713 10.551
20.9865 10.450
21.0017 10.053
21.0169 10.051
21.0320 9.831
21.0472 10.230
21.0624 10.078
21.0776 9.914
21.0927 9.908
21.1079 9.947
21.1231 10.205
21.1383 9.739
21.1534 9.706
21.1686 9.446
21.1838 9.844
21.1990 10.168
21.2141 9.474
21.2293 9.907
21.2445 9.787
21.2597 9.777
21.2748 9.749
21.2900 9.631
21.3052 9.620
21.3204 9.557
21.3355 9.725
21.3507 9.819
21.3659 9.690
21.3811 9.649
21.3962 9.831
21.4114 9.397
21.4266 9.752
21.4418 9.355
21.4569 9.381
21.4721 9.670
21.4873 9.342
21.5025 9.616
21.5176 9.612
21.5328 9.594
21.5480 9.366
21.5632 9.390
21.5783 9.132
21.5935 9.327
21.6087 9.417
21.6239 9.385
21.6390 9.189
21.6542 9.295
21.6694 9.465
21.6846 9.329
21.6997 9.264
21.7149 9.278
21.7301 8.978
21.7453 9.013
21.7604 9.128
21.7756 9.282
21.7908 9.372
21.8060 8.964
21.8211 8.999
21.8363 9.065
21.8515 9.007
21.8667 9.156
21.8818 9.241
21.8970 9.189
21.9122 9.122
21.9274 8.731
21.9425 8.689
21.9577 8.842
21.9729 8.935
21.9881 8.996
22.0032 9.017
22.0184 8.722
22.0336 8.631
22.0488 8.896
22.0639 9.014
22.0791 8.823
22.0943 8.862
22.1095 8.705
22.1246 8.597
22.1398 8.776
22.1550 8.763
22.1702 8.620
22.1853 8.559
22.2005 8.547
22.2157 8.605
22.2309 8.615
22.2460 8.599
22.2612 8.723
22.2764 8.743
22.2916 8.443
22.3067 8.596
22.3219 8.506
22.3371 8.529
22.3523 8.710
22.3674 8.449
22.3826 8.467
22.3978 8.525
22.4130 8.400
22.4281 8.216
22.4433 8.454
22.4585 8.611
22.4737 8.737
22.4888 8.412
22.5040 8.510
22.5192 8.187
22.5344 8.033
22.5495 8.316
22.5647 8.203
22.5799 8.349
22.5951 8.305
22.6102 8.509
22.6254 8.725
22.6406 8.451
22.6558 8.549
22.6709 8.262
22.6861 8.225
22.7013 8.326
22.7165 7.815
22.7316 6.315
