'Id: "" Comment: "" Operator: "Lab Manager" Anode: "Mo" Scantype: "Still (Eiger2R_500K (1D mode))" TimePerStep: "300" X: "11.8" Y: "9.4" Z: "11.284" 
7.2532 18.736
7.2684 18.970
7.2836 19.009
7.2987 18.810
7.3139 18.958
7.3291 18.825
7.3443 19.079
7.3594 19.119
7.3746 18.986
7.3898 19.191
7.4050 19.444
7.4201 19.257
7.4353 19.490
7.4505 19.461
7.4657 19.396
7.4808 19.832
7.4960 19.750
7.5112 19.613
7.5264 19.693
7.5415 19.646
7.5567 19.639
7.5719 19.901
7.5871 19.753
7.6022 20.177
7.6174 19.958
7.6326 19.715
7.6478 20.013
7.6629 19.887
7.6781 19.785
7.6933 20.023
7.7085 20.087
7.7236 19.996
7.7388 20.174
7.7540 20.265
7.7692 20.214
7.7843 20.316
7.7995 20.337
7.8147 20.474
7.8299 20.449
7.8450 20.252
7.8602 20.267
7.8754 20.314
7.8905 20.557
7.9057 20.653
7.9209 20.919
7.9361 20.866
7.9512 20.641
7.9664 20.731
7.9816 20.927
7.9968 21.061
8.0119 20.985
8.0271 21.000
8.0423 20.970
8.0575 20.911
8.0726 20.919
8.0878 20.753
8.1030 20.859
8.1182 21.040
8.1333 21.082
8.1485 21.385
8.1637 21.183
8.1789 21.375
8.1940 21.516
8.2092 21.173
8.2244 21.304
8.2396 21.768
8.2547 21.371
8.2699 21.792
8.2851 21.419
8.3003 21.636
8.3154 22.002
8.3306 21.846
8.3458 21.696
8.3610 21.514
8.3761 21.369
8.3913 21.632
8.4065 21.653
8.4217 21.557
8.4368 21.580
8.4520 21.986
8.4672 21.823
8.4824 21.656
8.4975 22.043
8.5127 22.037
8.5279 22.033
8.5431 21.957
8.5582 22.114
8.5734 22.047
8.5886 22.534
8.6038 22.456
8.6189 22.153
8.6341 21.918
8.6493 22.434
8.6645 22.231
8.6796 22.065
8.6948 21.759
8.7100 22.700
8.7252 22.333
8.7403 22.056
8.7555 21.854
8.7707 22.259
8.7859 22.247
8.8010 22.398
8.8162 22.408
8.8314 22.309
8.8466 22.432
8.8617 22.186
8.8769 22.337
8.8921 22.217
8.9073 22.471
8.9224 21.860
8.9376 22.259
8.9528 22.667
8.9680 22.822
8.9831 22.424
8.9983 22.498
9.0135 22.479
9.0287 22.811
9.0438 22.380
9.0590 23.018
9.0742 22.359
9.0894 22.348
9.1045 22.882
9.1197 22.978
9.1349 22.985
9.1501 22.886
9.1652 22.558
9.1804 22.397
9.1956 22.901
9.2108 22.793
9.2259 22.601
9.2411 22.670
9.2563 22.662
9.2715 22.712
9.2866 23.042
9.3018 22.920
9.3170 22.931
9.3322 22.729
9.3473 22.778
9.3625 22.605
9.3777 22.488
9.3929 22.191
9.4080 22.580
9.4232 23.108
9.4384 22.800
9.4536 22.735
9.4687 23.084
9.4839 23.426
9.4991 23.328
9.5143 22.985
9.5294 22.968
9.5446 23.212
9.5598 23.265
9.5750 23.065
9.5901 23.026
9.6053 23.197
9.6205 23.406
9.6357 23.423
9.6508 23.279
9.6660 23.056
9.6812 23.257
9.6964 23.887
9.7115 24.009
9.7267 23.899
9.7419 24.023
9.7571 24.000
9.7722 24.171
9.7874 23.866
9.8026 23.426
9.8178 23.553
9.8329 23.486
9.8481 23.135
9.8633 23.252
9.8785 23.213
9.8936 23.110
9.9088 23.330
9.9240 23.008
9.9392 23.141
9.9543 23.259
9.9695 23.070
9.9847 23.094
9.9999 23.291
10.0150 23.480
10.0302 23.375
10.0454 23.292
10.0606 23.432
10.0757 23.509
10.0909 23.414
10.1061 23.532
10.1213 23.692
10.1364 23.394
10.1516 23.343
10.1668 23.243
10.1820 23.030
10.1971 22.985
10.2123 23.170
10.2275 23.009
10.2427 22.882
10.2578 23.022
10.2730 22.865
10.2882 22.874
10.3034 23.167
10.3185 23.232
10.3337 22.853
10.3489 22.594
10.3641 22.725
10.3792 22.878
10.3944 22.759
10.4096 22.547
10.4248 22.741
10.4399 22.910
10.4551 22.421
10.4703 22.320
10.4855 22.415
10.5006 22.621
10.5158 22.360
10.5310 22.148
10.5462 22.367
10.5613 22.741
10.5765 22.754
10.5917 22.716
10.6069 22.833
10.6220 22.528
10.6372 22.436
10.6524 22.846
10.6676 22.532
10.6827 22.364
10.6979 22.339
10.7131 22.051
10.7283 22.501
10.7434 22.437
10.7586 22.557
10.7738 22.553
10.7890 22.551
10.8041 22.212
10.8193 22.622
10.8345 22.371
10.8497 21.912
10.8648 21.978
10.8800 22.268
10.8952 21.846
10.9104 21.840
10.9255 21.891
10.9407 22.312
10.9559 22.108
10.9711 21.865
10.9862 22.153
11.0014 22.187
11.0166 22.081
11.0318 21.864
11.0469 21.709
11.0621 21.989
11.0773 22.054
11.0925 21.615
11.1076 22.133
11.1228 21.572
11.1380 21.839
11.1532 21.717
11.1683 21.753
11.1835 21.607
11.1987 21.388
11.2139 21.371
11.2290 21.552
11.2442 21.555
11.2594 21.299
11.2746 21.684
11.2897 21.792
11.3049 21.573
11.3201 21.528
11.3353 21.282
11.3504 21.048
11.3656 21.263
11.3808 21.210
11.3960 21.333
11.4111 21.412
11.4263 21.370
11.4415 21.296
11.4567 21.181
11.4718 21.372
11.4870 21.495
11.5022 21.045
11.5174 21.270
11.5325 21.029
11.5477 20.770
11.5629 21.238
11.5781 21.193
11.5932 21.190
11.6084 21.046
11.6236 20.649
11.6388 20.557
11.6539 20.668
11.6691 20.552
11.6843 20.523
11.6995 20.533
11.7146 20.313
11.7298 20.459
11.7450 20.446
11.7602 20.443
11.7753 20.164
11.7905 20.028
11.8057 20.015
11.8209 20.002
11.8360 20.006
11.8512 19.864
11.8664 19.675
11.8816 19.627
11.8967 19.705
11.9119 19.654
11.9271 19.560
11.9423 19.448
11.9574 19.504
11.9726 19.489
11.9878 19.541
12.0030 19.405
12.0181 19.298
12.0333 19.206
12.0485 19.085
12.0637 19.098
12.0788 19.081
12.0940 18.838
12.1092 18.445
12.1244 18.586
12.1395 18.768
12.1547 18.628
12.1699 18.523
12.1851 18.531
12.2002 18.537
12.2154 18.104
12.2306 18.219
12.2458 18.146
12.2609 18.070
12.2761 17.904
12.2913 17.746
12.3065 17.916
12.3216 17.884
12.3368 17.853
12.3520 17.407
12.3672 17.503
12.3823 17.165
12.3975 17.047
12.4127 17.198
12.4279 17.270
12.4430 17.178
12.4582 16.902
12.4734 16.866
12.4886 16.907
12.5037 16.617
12.5189 16.759
12.5341 16.665
12.5493 16.534
12.5644 16.224
12.5796 16.284
12.5948 16.509
12.6100 16.171
12.6251 15.891
12.6403 15.805
12.6555 15.989
12.6707 16.060
12.6858 15.749
12.7010 15.608
12.7162 15.576
12.7314 15.516
12.7465 15.532
12.7617 15.457
12.7769 15.278
12.7921 15.135
12.8072 14.988
12.8224 14.739
12.8376 14.816
12.8528 15.054
12.8679 15.207
12.8831 14.992
12.8983 14.663
12.9135 14.636
12.9286 14.654
12.9438 14.576
12.9590 14.465
12.9742 14.571
12.9893 14.575
13.0045 14.330
13.0197 14.290
13.0349 14.170
13.0500 14.046
13.0652 13.911
13.0804 13.773
13.0956 13.848
13.1107 13.830
13.1259 13.807
13.1411 13.653
13.1563 13.661
13.1714 13.538
13.1866 13.509
13.2018 13.671
13.2170 13.488
13.2321 13.385
13.2473 13.317
13.2625 13.330
13.2777 13.391
13.2928 13.436
13.3080 13.244
13.3232 13.184
13.3384 13.257
13.3535 12.933
13.3687 12.870
13.3839 13.187
13.3991 13.139
13.4142 12.928
13.4294 12.912
13.4446 12.877
13.4598 12.528
13.4749 12.353
13.4901 12.390
13.5053 12.582
13.5205 12.714
13.5356 12.228
13.5508 12.210
13.5660 12.565
13.5812 12.231
13.5963 12.202
13.6115 12.294
13.6267 12.241
13.6419 12.100
13.6570 11.974
13.6722 11.901
13.6874 11.838
13.7026 11.773
13.7177 12.173
13.7329 11.977
13.7481 11.865
13.7633 12.005
13.7784 11.956
13.7936 11.935
13.8088 12.193
13.8239 12.343
13.8391 12.335
13.8543 12.373
13.8695 12.255
13.8846 12.144
13.8998 12.441
13.9150 12.305
13.9302 12.363
13.9453 12.215
13.9605 11.913
13.9757 11.711
13.9909 11.715
14.0060 11.720
14.0212 11.496
14.0364 11.584
14.0516 11.605
14.0667 11.553
14.0819 11.704
14.0971 11.688
14.1123 11.555
14.1274 11.621
14.1426 11.726
14.1578 11.733
14.1730 11.859
14.1881 11.925
14.2033 11.649
14.2185 11.989
14.2337 11.794
14.2488 11.550
14.2640 12.078
14.2792 11.771
14.2944 11.849
14.3095 12.150
14.3247 12.521
14.3399 12.625
14.3551 12.371
14.3702 12.820
14.3854 13.030
14.4006 13.322
14.4158 13.045
14.4309 12.822
14.4461 13.060
14.4613 12.590
14.4765 12.299
14.4916 12.253
14.5068 11.728
14.5220 11.507
14.5372 11.679
14.5523 11.466
14.5675 11.152
14.5827 10.918
14.5979 10.960
14.6130 10.802
14.6282 11.080
14.6434 11.074
14.6586 10.502
14.6737 10.796
14.6889 10.421
14.7041 10.753
14.7193 10.482
14.7344 10.895
14.7496 10.500
14.7648 10.561
14.7800 10.379
14.7951 10.585
14.8103 10.787
14.8255 10.614
14.8407 10.558
14.8558 10.252
14.8710 10.552
14.8862 10.408
14.9014 10.248
14.9165 10.912
14.9317 10.435
14.9469 10.481
14.9621 10.695
14.9772 10.242
14.9924 10.248
15.0076 10.482
15.0228 10.139
15.0379 10.226
15.0531 10.328
15.0683 10.301
15.0835 10.066
15.0986 10.290
15.1138 10.486
15.1290 10.226
15.1442 10.238
15.1593 10.250
15.1745 10.385
15.1897 9.866
15.2049 10.224
15.2200 9.673
15.2352 10.403
15.2504 10.110
15.2656 9.956
15.2807 10.304
15.2959 9.990
15.3111 9.887
15.3263 10.279
15.3414 10.237
15.3566 9.951
15.3718 10.244
15.3870 10.056
15.4021 10.311
15.4173 10.090
15.4325 10.499
15.4477 10.372
15.4628 10.063
15.4780 10.238
15.4932 9.901
15.5084 10.126
15.5235 10.222
15.5387 9.978
15.5539 10.102
15.5691 10.006
15.5842 10.035
15.5994 9.839
15.6146 9.859
15.6298 9.753
15.6449 9.842
15.6601 10.109
15.6753 10.006
15.6905 9.677
15.7056 9.721
15.7208 9.456
15.7360 9.584
15.7512 9.536
15.7663 9.625
15.7815 9.849
15.7967 9.729
15.8119 9.702
15.8270 9.550
15.8422 9.901
15.8574 10.014
15.8726 9.631
15.8877 9.672
15.9029 9.466
15.9181 9.588
15.9333 9.808
15.9484 9.521
15.9636 9.600
15.9788 9.656
15.9940 9.640
16.0091 9.628
16.0243 9.918
16.0395 9.791
16.0547 9.743
16.0698 9.685
16.0850 9.653
16.1002 9.617
16.1154 9.649
16.1305 9.501
16.1457 9.485
16.1609 9.610
16.1761 9.782
16.1912 9.721
16.2064 9.723
16.2216 9.576
16.2368 9.674
16.2519 9.696
16.2671 9.666
16.2823 9.527
16.2975 9.471
16.3126 9.636
16.3278 9.787
16.3430 9.911
16.3582 9.811
16.3733 9.666
16.3885 9.707
16.4037 9.897
16.4189 9.911
16.4340 9.764
16.4492 9.743
16.4644 9.778
16.4796 9.678
16.4947 9.754
16.5099 9.792
16.5251 9.628
16.5403 9.550
16.5554 9.488
16.5706 9.441
16.5858 9.460
16.6010 9.697
16.6161 9.550
16.6313 9.593
16.6465 9.613
16.6617 9.706
16.6768 9.767
16.6920 9.749
16.7072 9.804
16.7224 9.981
16.7375 10.096
16.7527 9.884
16.7679 9.819
16.7831 9.859
16.7982 9.991
16.8134 9.947
16.8286 9.758
16.8438 9.789
16.8589 9.939
16.8741 9.888
16.8893 9.806
16.9045 9.848
16.9196 9.817
16.9348 9.704
16.9500 9.811
16.9652 9.828
16.9803 9.775
16.9955 9.777
17.0107 9.764
17.0259 9.812
17.0410 9.883
17.0562 9.840
17.0714 10.069
17.0866 10.489
17.1017 10.536
17.1169 10.664
17.1321 11.043
17.1473 11.585
17.1624 11.991
17.1776 12.248
17.1928 12.930
17.2080 13.900
17.2231 14.992
17.2383 16.334
17.2535 17.728
17.2687 18.845
17.2838 19.071
17.2990 18.138
17.3142 17.095
17.3294 16.540
17.3445 16.100
17.3597 16.045
17.3749 15.815
17.3901 15.336
17.4052 14.594
17.4204 13.478
17.4356 12.688
17.4508 12.050
17.4659 11.939
17.4811 11.908
17.4963 11.522
17.5115 11.459
17.5266 11.204
17.5418 10.902
17.5570 11.152
17.5722 11.252
17.5873 11.177
17.6025 11.206
17.6177 11.376
17.6329 11.440
17.6480 11.290
17.6632 11.594
17.6784 11.929
17.6936 11.707
17.7087 11.397
17.7239 11.307
17.7391 11.281
17.7543 11.072
17.7694 10.980
17.7846 11.012
17.7998 11.001
17.8150 10.788
17.8301 10.459
17.8453 10.422
17.8605 10.345
17.8757 10.356
17.8908 10.324
17.9060 10.357
17.9212 10.430
17.9364 10.374
17.9515 10.063
17.9667 9.801
17.9819 9.960
17.9971 10.100
18.0122 10.164
18.0274 10.156
18.0426 10.190
18.0578 10.143
18.0729 9.911
18.0881 9.815
18.1033 9.872
18.1185 9.968
18.1336 10.009
18.1488 9.972
18.1640 9.995
18.1792 9.931
18.1943 10.033
18.2095 10.001
18.2247 9.954
18.2399 9.747
18.2550 9.689
18.2702 9.688
18.2854 9.853
18.3006 10.111
18.3157 9.827
18.3309 9.509
18.3461 9.588
18.3613 9.807
18.3764 9.629
18.3916 9.700
18.4068 9.932
18.4220 9.747
18.4371 9.682
18.4523 9.671
18.4675 9.578
18.4827 9.817
18.4978 9.969
18.5130 9.854
18.5282 9.650
18.5434 9.495
18.5585 9.534
18.5737 9.668
18.5889 9.810
18.6041 9.811
18.6192 9.654
18.6344 9.648
18.6496 9.645
18.6648 9.739
18.6799 10.003
18.6951 10.133
18.7103 9.910
18.7255 9.805
18.7406 9.855
18.7558 9.715
18.7710 9.599
18.7862 9.808
18.8013 9.696
18.8165 9.686
18.8317 9.829
18.8469 9.980
18.8620 10.059
18.8772 9.941
18.8924 9.806
18.9076 9.889
18.9227 10.009
18.9379 9.947
18.9531 10.130
18.9683 9.983
18.9834 9.681
18.9986 9.869
19.0138 10.193
19.0290 10.134
19.0441 10.170
19.0593 10.123
19.0745 10.102
19.0897 10.262
19.1048 10.218
19.1200 10.288
19.1352 10.455
19.1504 10.660
19.1655 10.839
19.1807 10.515
19.1959 10.647
19.2111 10.882
19.2262 10.686
19.2414 10.705
19.2566 10.930
19.2718 10.909
19.2869 10.907
19.3021 10.966
19.3173 11.133
19.3325 11.087
19.3476 11.092
19.3628 11.136
19.3780 10.923
19.3932 11.004
19.4083 11.199
19.4235 11.407
19.4387 11.378
19.4539 11.196
19.4690 11.191
19.4842 11.299
19.4994 11.232
19.5146 11.376
19.5297 11.592
19.5449 11.726
19.5601 11.786
19.5753 11.643
19.5904 11.725
19.6056 11.714
19.6208 11.758
19.6360 11.794
19.6511 11.667
19.6663 11.630
19.6815 11.720
19.6967 11.796
19.7118 11.767
19.7270 11.804
19.7422 11.877
19.7574 11.832
19.7725 11.827
19.7877 11.868
19.8029 11.859
19.8180 11.781
19.8332 11.751
19.8484 12.103
19.8636 12.331
19.8787 12.659
19.8939 12.826
19.9091 12.959
19.9243 13.404
19.9394 13.801
19.9546 14.148
19.9698 14.315
19.9850 14.541
20.0001 14.310
20.0153 14.390
20.0305 14.343
20.0457 13.907
20.0608 13.574
20.0760 13.608
20.0912 13.807
20.1064 13.711
20.1215 13.591
20.1367 13.454
20.1519 13.235
20.1671 13.168
20.1822 12.960
20.1974 12.707
20.2126 12.992
20.2278 12.981
20.2429 12.648
20.2581 12.487
20.2733 12.252
20.2885 12.021
20.3036 11.844
20.3188 12.120
20.3340 12.229
20.3492 12.209
20.3643 12.214
20.3795 11.824
20.3947 11.958
20.4099 11.808
20.4250 11.800
20.4402 11.799
20.4554 11.845
20.4706 11.705
20.4857 11.696
20.5009 11.821
20.5161 11.679
20.5313 11.405
20.5464 11.524
20.5616 11.736
20.5768 11.385
20.5920 11.229
20.6071 11.135
20.6223 11.173
20.6375 10.854
20.6527 10.784
20.6678 10.764
20.6830 10.704
20.6982 10.759
20.7134 10.582
20.7285 10.320
20.7437 10.334
20.7589 10.229
20.7741 10.099
20.7892 10.238
20.8044 10.083
20.8196 10.379
20.8348 10.194
20.8499 9.931
20.8651 10.224
20.8803 9.978
20.8955 10.166
20.9106 10.136
20.9258 10.155
20.9410 10.280
20.9562 10.384
20.9713 10.129
20.9865 9.953
21.0017 10.118
21.0169 10.391
21.0320 10.070
21.0472 10.124
21.0624 9.750
21.0776 9.247
21.0927 9.809
21.1079 9.646
21.1231 10.307
21.1383 9.718
21.1534 9.608
21.1686 9.708
21.1838 9.915
21.1990 9.623
21.2141 9.845
21.2293 9.743
21.2445 9.722
21.2597 9.574
21.2748 9.759
21.2900 9.620
21.3052 9.669
21.3204 9.859
21.3355 9.600
21.3507 9.545
21.3659 9.542
21.3811 9.349
21.3962 9.497
21.4114 9.477
21.4266 9.421
21.4418 9.442
21.4569 9.332
21.4721 9.366
21.4873 9.439
21.5025 9.416
21.5176 9.379
21.5328 9.264
21.5480 9.345
21.5632 9.298
21.5783 9.402
21.5935 9.397
21.6087 9.304
21.6239 9.417
21.6390 9.181
21.6542 9.095
21.6694 9.198
21.6846 9.190
21.6997 9.094
21.7149 9.086
21.7301 8.965
21.7453 8.809
21.7604 9.044
21.7756 9.003
21.7908 8.990
21.8060 9.080
21.8211 9.271
21.8363 9.191
21.8515 8.893
21.8667 8.820
21.8818 8.904
21.8970 9.074
21.9122 9.017
21.9274 8.928
21.9425 9.040
21.9577 9.015
21.9729 8.791
21.9881 8.884
22.0032 8.886
22.0184 8.726
22.0336 8.593
22.0488 8.639
22.0639 8.785
22.0791 8.718
22.0943 8.844
22.1095 8.876
22.1246 8.781
22.1398 8.594
22.1550 8.506
22.1702 8.557
22.1853 8.751
22.2005 8.834
22.2157 9.051
22.2309 8.809
22.2460 8.668
22.2612 8.356
22.2764 8.429
22.2916 8.419
22.3067 8.422
22.3219 8.452
22.3371 8.460
22.3523 8.647
22.3674 8.907
22.3826 8.519
22.3978 8.586
22.4130 8.204
22.4281 8.437
22.4433 8.417
22.4585 8.472
22.4737 8.396
22.4888 8.654
22.5040 8.077
22.5192 8.093
22.5344 8.255
22.5495 8.457
22.5647 8.486
22.5799 8.355
22.5951 8.130
22.6102 8.232
22.6254 8.574
22.6406 8.540
22.6558 8.209
22.6709 8.452
22.6861 8.737
22.7013 8.042
22.7165 8.070
22.7316 6.583
