'Id: "" Comment: "" Operator: "Lab Manager" Anode: "Mo" Scantype: "Still (Eiger2R_500K (1D mode))" TimePerStep: "300" X: "11.8" Y: "9.4" Z: "11.284" 
7.2532 18.742
7.2684 18.703
7.2836 19.066
7.2987 18.990
7.3139 18.606
7.3291 19.115
7.3443 19.432
7.3594 19.353
7.3746 19.070
7.3898 19.500
7.4050 19.597
7.4201 19.312
7.4353 19.379
7.4505 19.776
7.4657 19.995
7.4808 19.637
7.4960 19.456
7.5112 19.468
7.5264 19.702
7.5415 19.816
7.5567 19.670
7.5719 19.666
7.5871 20.212
7.6022 20.195
7.6174 20.335
7.6326 20.132
7.6478 19.854
7.6629 20.437
7.6781 20.493
7.6933 20.179
7.7085 20.450
7.7236 20.539
7.7388 20.627
7.7540 20.940
7.7692 20.718
7.7843 20.342
7.7995 20.783
7.8147 20.999
7.8299 20.890
7.8450 20.917
7.8602 20.816
7.8754 20.953
7.8905 21.094
7.9057 21.245
7.9209 21.160
7.9361 21.018
7.9512 21.459
7.9664 21.504
7.9816 21.165
7.9968 21.205
8.0119 21.488
8.0271 21.604
8.0423 21.558
8.0575 21.332
8.0726 21.301
8.0878 21.533
8.1030 21.598
8.1182 21.486
8.1333 21.473
8.1485 21.439
8.1637 21.789
8.1789 21.697
8.1940 21.734
8.2092 21.840
8.2244 21.618
8.2396 21.715
8.2547 21.724
8.2699 21.874
8.2851 22.195
8.3003 21.966
8.3154 21.722
8.3306 21.791
8.3458 21.762
8.3610 21.632
8.3761 21.780
8.3913 22.023
8.4065 21.919
8.4217 21.908
8.4368 22.276
8.4520 22.260
8.4672 22.151
8.4824 21.706
8.4975 22.223
8.5127 22.059
8.5279 22.150
8.5431 22.123
8.5582 22.684
8.5734 22.158
8.5886 21.783
8.6038 22.343
8.6189 22.390
8.6341 22.391
8.6493 22.249
8.6645 22.654
8.6796 22.381
8.6948 22.628
8.7100 22.738
8.7252 22.940
8.7403 22.689
8.7555 22.452
8.7707 22.505
8.7859 22.349
8.8010 22.763
8.8162 22.468
8.8314 22.782
8.8466 22.575
8.8617 22.441
8.8769 22.562
8.8921 22.584
8.9073 22.515
8.9224 22.447
8.9376 22.872
8.9528 22.772
8.9680 22.933
8.9831 22.671
8.9983 22.744
9.0135 22.511
9.0287 22.953
9.0438 22.754
9.0590 22.649
9.0742 22.771
9.0894 23.103
9.1045 23.073
9.1197 23.421
9.1349 22.839
9.1501 22.802
9.1652 23.091
9.1804 23.184
9.1956 23.520
9.2108 23.045
9.2259 23.109
9.2411 23.225
9.2563 23.322
9.2715 23.700
9.2866 23.180
9.3018 23.142
9.3170 23.268
9.3322 23.235
9.3473 23.138
9.3625 23.263
9.3777 23.440
9.3929 23.251
9.4080 23.161
9.4232 23.186
9.4384 23.459
9.4536 23.594
9.4687 23.182
9.4839 23.088
9.4991 23.322
9.5143 23.519
9.5294 22.972
9.5446 22.922
9.5598 23.371
9.5750 23.369
9.5901 23.108
9.6053 23.342
9.6205 23.828
9.6357 23.782
9.6508 23.692
9.6660 23.660
9.6812 23.855
9.6964 24.227
9.7115 24.123
9.7267 23.923
9.7419 23.927
9.7571 24.014
9.7722 24.355
9.7874 24.025
9.8026 23.601
9.8178 23.705
9.8329 23.513
9.8481 23.289
9.8633 23.113
9.8785 23.158
9.8936 23.270
9.9088 23.255
9.9240 23.463
9.9392 23.539
9.9543 23.497
9.9695 23.568
9.9847 23.951
9.9999 24.163
10.0150 23.721
10.0302 23.742
10.0454 24.001
10.0606 23.723
10.0757 23.725
10.0909 24.265
10.1061 24.266
10.1213 23.835
10.1364 23.596
10.1516 24.156
10.1668 24.407
10.1820 24.275
10.1971 24.328
10.2123 24.295
10.2275 24.336
10.2427 24.411
10.2578 24.026
10.2730 23.963
10.2882 23.966
10.3034 23.880
10.3185 23.403
10.3337 23.310
10.3489 23.112
10.3641 23.220
10.3792 23.256
10.3944 22.879
10.4096 22.832
10.4248 22.866
10.4399 22.930
10.4551 23.130
10.4703 22.707
10.4855 22.743
10.5006 22.942
10.5158 22.868
10.5310 23.139
10.5462 22.854
10.5613 22.625
10.5765 22.549
10.5917 22.565
10.6069 22.821
10.6220 22.574
10.6372 22.551
10.6524 22.642
10.6676 22.831
10.6827 22.715
10.6979 22.785
10.7131 22.804
10.7283 22.550
10.7434 22.353
10.7586 22.430
10.7738 22.336
10.7890 22.829
10.8041 22.355
10.8193 22.610
10.8345 22.456
10.8497 22.067
10.8648 22.209
10.8800 22.372
10.8952 22.697
10.9104 22.484
10.9255 22.465
10.9407 22.089
10.9559 22.146
10.9711 21.711
10.9862 21.925
11.0014 22.059
11.0166 21.765
11.0318 22.017
11.0469 21.948
11.0621 21.895
11.0773 21.893
11.0925 21.953
11.1076 22.147
11.1228 21.954
11.1380 21.748
11.1532 21.810
11.1683 21.659
11.1835 21.574
11.1987 21.757
11.2139 21.623
11.2290 22.052
11.2442 22.145
11.2594 22.113
11.2746 21.956
11.2897 21.928
11.3049 21.666
11.3201 21.890
11.3353 21.620
11.3504 21.956
11.3656 21.701
11.3808 21.478
11.3960 21.298
11.4111 21.249
11.4263 21.369
11.4415 21.566
11.4567 21.064
11.4718 21.186
11.4870 21.138
11.5022 20.983
11.5174 21.010
11.5325 21.211
11.5477 21.104
11.5629 21.053
11.5781 20.784
11.5932 21.277
11.6084 21.102
11.6236 20.826
11.6388 20.902
11.6539 21.062
11.6691 20.894
11.6843 20.814
11.6995 20.531
11.7146 20.528
11.7298 20.259
11.7450 20.127
11.7602 20.135
11.7753 20.599
11.7905 20.437
11.8057 20.242
11.8209 20.052
11.8360 20.291
11.8512 19.877
11.8664 19.725
11.8816 20.050
11.8967 19.899
11.9119 19.715
11.9271 19.646
11.9423 19.562
11.9574 19.600
11.9726 19.376
11.9878 18.888
12.0030 18.988
12.0181 19.014
12.0333 19.056
12.0485 19.145
12.0637 19.208
12.0788 18.745
12.0940 18.360
12.1092 18.447
12.1244 18.990
12.1395 18.730
12.1547 18.611
12.1699 18.536
12.1851 18.278
12.2002 18.404
12.2154 18.508
12.2306 18.306
12.2458 18.065
12.2609 17.943
12.2761 17.841
12.2913 17.830
12.3065 17.526
12.3216 17.617
12.3368 17.246
12.3520 17.034
12.3672 17.476
12.3823 17.443
12.3975 17.100
12.4127 16.891
12.4279 16.900
12.4430 17.143
12.4582 17.159
12.4734 17.033
12.4886 16.836
12.5037 16.609
12.5189 16.699
12.5341 16.864
12.5493 16.591
12.5644 16.535
12.5796 16.457
12.5948 16.349
12.6100 16.090
12.6251 15.861
12.6403 16.041
12.6555 16.009
12.6707 15.767
12.6858 15.427
12.7010 15.759
12.7162 15.776
12.7314 15.724
12.7465 15.712
12.7617 15.646
12.7769 15.569
12.7921 15.402
12.8072 15.351
12.8224 15.271
12.8376 15.006
12.8528 14.790
12.8679 14.826
12.8831 14.948
12.8983 14.763
12.9135 14.617
12.9286 14.763
12.9438 14.683
12.9590 14.436
12.9742 14.623
12.9893 14.759
13.0045 14.766
13.0197 14.598
13.0349 14.210
13.0500 14.004
13.0652 14.144
13.0804 14.165
13.0956 14.043
13.1107 13.804
13.1259 13.664
13.1411 13.696
13.1563 13.641
13.1714 13.690
13.1866 13.749
13.2018 13.698
13.2170 13.461
13.2321 13.383
13.2473 13.308
13.2625 13.222
13.2777 13.246
13.2928 13.163
13.3080 13.252
13.3232 13.268
13.3384 13.171
13.3535 13.145
13.3687 13.132
13.3839 12.937
13.3991 12.636
13.4142 12.736
13.4294 12.761
13.4446 12.702
13.4598 12.690
13.4749 12.766
13.4901 12.660
13.5053 12.511
13.5205 12.480
13.5356 12.542
13.5508 12.508
13.5660 12.181
13.5812 12.220
13.5963 12.331
13.6115 12.245
13.6267 12.097
13.6419 12.130
13.6570 12.092
13.6722 12.099
13.6874 12.144
13.7026 12.007
13.7177 11.939
13.7329 11.893
13.7481 11.970
13.7633 11.885
13.7784 11.932
13.7936 12.036
13.8088 12.191
13.8239 12.192
13.8391 12.289
13.8543 12.381
13.8695 12.139
13.8846 12.173
13.8998 12.198
13.9150 11.907
13.9302 12.019
13.9453 11.840
13.9605 11.815
13.9757 11.806
13.9909 11.502
14.0060 11.491
14.0212 11.391
14.0364 11.443
14.0516 11.638
14.0667 11.328
14.0819 11.566
14.0971 11.665
14.1123 11.648
14.1274 11.808
14.1426 11.389
14.1578 11.379
14.1730 11.780
14.1881 12.036
14.2033 11.561
14.2185 11.834
14.2337 12.134
14.2488 12.014
14.2640 11.881
14.2792 11.751
14.2944 12.102
14.3095 12.191
14.3247 12.613
14.3399 12.653
14.3551 12.830
14.3702 13.115
14.3854 13.686
14.4006 13.473
14.4158 13.168
14.4309 12.892
14.4461 13.183
14.4613 13.198
14.4765 13.142
14.4916 13.002
14.5068 12.919
14.5220 12.509
14.5372 12.554
14.5523 12.491
14.5675 12.536
14.5827 12.380
14.5979 11.981
14.6130 11.900
14.6282 11.905
14.6434 12.076
14.6586 11.536
14.6737 11.476
14.6889 11.223
14.7041 11.084
14.7193 11.111
14.7344 11.106
14.7496 10.993
14.7648 10.760
14.7800 10.814
14.7951 10.767
14.8103 10.695
14.8255 10.824
14.8407 10.578
14.8558 10.515
14.8710 10.288
14.8862 10.534
14.9014 10.592
14.9165 10.624
14.9317 10.993
14.9469 10.364
14.9621 10.653
14.9772 10.499
14.9924 10.452
15.0076 10.252
15.0228 10.627
15.0379 10.887
15.0531 10.246
15.0683 10.708
15.0835 10.675
15.0986 10.590
15.1138 10.546
15.1290 10.428
15.1442 10.748
15.1593 10.625
15.1745 10.287
15.1897 10.596
15.2049 10.520
15.2200 10.413
15.2352 10.528
15.2504 10.459
15.2656 10.352
15.2807 10.338
15.2959 10.274
15.3111 10.292
15.3263 10.567
15.3414 10.325
15.3566 10.638
15.3718 10.352
15.3870 10.350
15.4021 10.694
15.4173 10.583
15.4325 10.425
15.4477 10.404
15.4628 10.463
15.4780 10.610
15.4932 10.211
15.5084 10.474
15.5235 10.462
15.5387 10.474
15.5539 10.511
15.5691 10.320
15.5842 10.276
15.5994 10.189
15.6146 10.090
15.6298 10.059
15.6449 10.272
15.6601 10.344
15.6753 10.288
15.6905 10.161
15.7056 10.052
15.7208 10.154
15.7360 9.818
15.7512 10.081
15.7663 9.828
15.7815 10.021
15.7967 9.950
15.8119 9.893
15.8270 10.034
15.8422 9.812
15.8574 9.851
15.8726 9.852
15.8877 9.780
15.9029 9.662
15.9181 9.789
15.9333 9.801
15.9484 9.718
15.9636 9.879
15.9788 9.816
15.9940 9.914
16.0091 9.962
16.0243 9.813
16.0395 9.995
16.0547 9.741
16.0698 9.746
16.0850 9.539
16.1002 9.604
16.1154 9.790
16.1305 9.700
16.1457 9.799
16.1609 9.765
16.1761 9.600
16.1912 9.826
16.2064 9.948
16.2216 9.770
16.2368 9.857
16.2519 9.719
16.2671 10.029
16.2823 10.081
16.2975 9.935
16.3126 10.478
16.3278 10.419
16.3430 10.162
16.3582 10.078
16.3733 10.297
16.3885 10.359
16.4037 10.346
16.4189 10.240
16.4340 10.240
16.4492 10.075
16.4644 9.865
16.4796 9.791
16.4947 9.830
16.5099 9.762
16.5251 9.786
16.5403 9.844
16.5554 9.777
16.5706 9.780
16.5858 9.974
16.6010 10.062
16.6161 10.040
16.6313 9.963
16.6465 9.926
16.6617 9.808
16.6768 9.848
16.6920 9.916
16.7072 9.966
16.7224 10.079
16.7375 10.114
16.7527 10.116
16.7679 10.044
16.7831 10.063
16.7982 10.153
16.8134 10.058
16.8286 9.945
16.8438 9.974
16.8589 9.941
16.8741 9.953
16.8893 9.852
16.9045 9.651
16.9196 9.665
16.9348 9.874
16.9500 9.876
16.9652 9.906
16.9803 9.854
16.9955 9.877
17.0107 9.885
17.0259 9.983
17.0410 9.948
17.0562 9.821
17.0714 10.273
17.0866 10.539
17.1017 10.615
17.1169 10.846
17.1321 11.149
17.1473 11.432
17.1624 11.794
17.1776 12.466
17.1928 13.094
17.2080 14.096
17.2231 15.238
17.2383 16.265
17.2535 17.385
17.2687 18.349
17.2838 18.485
17.2990 17.916
17.3142 16.981
17.3294 16.066
17.3445 16.001
17.3597 16.087
17.3749 15.656
17.3901 15.146
17.4052 14.362
17.4204 13.160
17.4356 12.387
17.4508 11.899
17.4659 11.579
17.4811 11.736
17.4963 11.795
17.5115 11.501
17.5266 11.182
17.5418 11.132
17.5570 11.374
17.5722 11.693
17.5873 11.733
17.6025 11.542
17.6177 11.363
17.6329 11.087
17.6480 10.961
17.6632 11.013
17.6784 10.938
17.6936 11.071
17.7087 11.170
17.7239 10.986
17.7391 10.929
17.7543 10.949
17.7694 10.939
17.7846 10.972
17.7998 11.005
17.8150 11.162
17.8301 11.102
17.8453 11.244
17.8605 11.367
17.8757 11.210
17.8908 11.192
17.9060 11.153
17.9212 10.976
17.9364 10.914
17.9515 10.766
17.9667 10.689
17.9819 10.704
17.9971 10.692
18.0122 10.636
18.0274 10.579
18.0426 10.634
18.0578 10.549
18.0729 10.293
18.0881 10.166
18.1033 10.163
18.1185 10.179
18.1336 10.272
18.1488 10.140
18.1640 10.028
18.1792 9.980
18.1943 9.859
18.2095 9.768
18.2247 9.933
18.2399 9.871
18.2550 9.750
18.2702 9.787
18.2854 9.833
18.3006 10.027
18.3157 10.003
18.3309 9.670
18.3461 9.600
18.3613 9.639
18.3764 9.799
18.3916 9.904
18.4068 10.016
18.4220 9.866
18.4371 9.677
18.4523 9.812
18.4675 9.919
18.4827 9.770
18.4978 9.886
18.5130 9.871
18.5282 9.827
18.5434 9.660
18.5585 9.624
18.5737 9.692
18.5889 9.573
18.6041 9.635
18.6192 9.637
18.6344 9.851
18.6496 9.850
18.6648 9.727
18.6799 9.889
18.6951 10.007
18.7103 10.043
18.7255 10.077
18.7406 9.828
18.7558 9.645
18.7710 9.617
18.7862 9.904
18.8013 9.774
18.8165 9.619
18.8317 9.983
18.8469 10.028
18.8620 9.873
18.8772 10.040
18.8924 10.128
18.9076 10.042
18.9227 10.027
18.9379 10.148
18.9531 10.056
18.9683 9.908
18.9834 10.030
18.9986 10.216
19.0138 10.290
19.0290 10.209
19.0441 10.127
19.0593 10.163
19.0745 10.180
19.0897 10.227
19.1048 10.142
19.1200 10.117
19.1352 10.528
19.1504 10.522
19.1655 10.515
19.1807 10.689
19.1959 10.743
19.2111 10.470
19.2262 10.579
19.2414 10.794
19.2566 11.006
19.2718 11.143
19.2869 10.874
19.3021 10.812
19.3173 11.015
19.3325 11.088
19.3476 11.113
19.3628 11.190
19.3780 11.120
19.3932 11.187
19.4083 11.240
19.4235 11.271
19.4387 11.278
19.4539 11.287
19.4690 11.445
19.4842 11.502
19.4994 11.350
19.5146 11.555
19.5297 11.492
19.5449 11.630
19.5601 11.839
19.5753 11.602
19.5904 11.574
19.6056 11.763
19.6208 11.656
19.6360 11.529
19.6511 11.596
19.6663 11.642
19.6815 11.678
19.6967 11.750
19.7118 11.832
19.7270 11.652
19.7422 11.519
19.7574 11.714
19.7725 11.781
19.7877 11.813
19.8029 11.837
19.8180 11.852
19.8332 11.999
19.8484 12.264
19.8636 12.487
19.8787 12.619
19.8939 12.786
19.9091 13.133
19.9243 13.470
19.9394 13.473
19.9546 14.028
19.9698 14.353
19.9850 14.329
20.0001 14.442
20.0153 14.194
20.0305 14.017
20.0457 13.700
20.0608 13.553
20.0760 13.688
20.0912 13.623
20.1064 13.711
20.1215 13.520
20.1367 13.260
20.1519 13.171
20.1671 13.278
20.1822 12.778
20.1974 12.561
20.2126 12.840
20.2278 12.752
20.2429 12.828
20.2581 12.385
20.2733 12.160
20.2885 11.774
20.3036 11.806
20.3188 11.721
20.3340 11.632
20.3492 11.946
20.3643 11.777
20.3795 11.612
20.3947 11.426
20.4099 11.380
20.4250 11.323
20.4402 11.126
20.4554 11.086
20.4706 11.306
20.4857 11.228
20.5009 11.046
20.5161 11.145
20.5313 10.908
20.5464 10.625
20.5616 10.967
20.5768 11.012
20.5920 10.924
20.6071 11.048
20.6223 10.840
20.6375 11.055
20.6527 11.301
20.6678 11.320
20.6830 11.164
20.6982 10.890
20.7134 10.737
20.7285 10.702
20.7437 10.803
20.7589 10.726
20.7741 10.571
20.7892 10.557
20.8044 10.427
20.8196 10.599
20.8348 10.752
20.8499 10.505
20.8651 10.635
20.8803 10.553
20.8955 10.424
20.9106 10.468
20.9258 10.593
20.9410 10.411
20.9562 10.286
20.9713 10.247
20.9865 9.958
21.0017 10.014
21.0169 10.140
21.0320 9.909
21.0472 9.792
21.0624 9.779
21.0776 10.163
21.0927 10.047
21.1079 10.003
21.1231 9.919
21.1383 9.631
21.1534 9.751
21.1686 9.864
21.1838 9.947
21.1990 9.862
21.2141 9.693
21.2293 9.841
21.2445 9.469
21.2597 9.581
21.2748 9.879
21.2900 9.609
21.3052 9.578
21.3204 9.677
21.3355 9.922
21.3507 9.062
21.3659 9.353
21.3811 9.527
21.3962 9.665
21.4114 9.685
21.4266 9.444
21.4418 9.543
21.4569 9.414
21.4721 9.108
21.4873 9.358
21.5025 9.456
21.5176 9.426
21.5328 9.136
21.5480 9.517
21.5632 9.335
21.5783 9.274
21.5935 9.494
21.6087 9.425
21.6239 9.146
21.6390 9.232
21.6542 9.278
21.6694 9.401
21.6846 9.302
21.6997 9.425
21.7149 9.305
21.7301 9.151
21.7453 9.061
21.7604 9.167
21.7756 9.150
21.7908 8.991
21.8060 9.039
21.8211 8.982
21.8363 9.007
21.8515 9.025
21.8667 9.057
21.8818 9.199
21.8970 9.104
21.9122 9.019
21.9274 8.957
21.9425 8.879
21.9577 8.874
21.9729 8.880
21.9881 8.827
22.0032 8.962
22.0184 8.910
22.0336 8.963
22.0488 9.047
22.0639 8.782
22.0791 8.690
22.0943 8.674
22.1095 8.694
22.1246 8.775
22.1398 8.620
22.1550 8.471
22.1702 8.436
22.1853 8.620
22.2005 8.635
22.2157 8.877
22.2309 8.865
22.2460 8.681
22.2612 8.648
22.2764 8.735
22.2916 8.749
22.3067 8.647
22.3219 8.800
22.3371 8.871
22.3523 8.770
22.3674 8.608
22.3826 8.326
22.3978 8.236
22.4130 8.384
22.4281 8.341
22.4433 8.415
22.4585 8.376
22.4737 8.440
22.4888 8.439
22.5040 8.457
22.5192 8.367
22.5344 8.448
22.5495 8.348
22.5647 8.240
22.5799 8.457
22.5951 8.511
22.6102 8.596
22.6254 8.464
22.6406 8.440
22.6558 8.470
22.6709 8.535
22.6861 8.475
22.7013 8.232
22.7165 8.269
22.7316 6.476
