'Id: "" Comment: "" Operator: "Lab Manager" Anode: "Mo" Scantype: "Still (Eiger2R_500K (1D mode))" TimePerStep: "300" X: "11.8" Y: "9.4" Z: "11.284" 
7.2532 19.101
7.2684 18.552
7.2836 18.959
7.2987 18.769
7.3139 19.324
7.3291 18.853
7.3443 18.892
7.3594 18.739
7.3746 18.990
7.3898 19.415
7.4050 19.443
7.4201 19.708
7.4353 19.442
7.4505 19.496
7.4657 19.260
7.4808 19.552
7.4960 19.374
7.5112 19.693
7.5264 19.946
7.5415 20.003
7.5567 19.883
7.5719 19.769
7.5871 19.573
7.6022 19.849
7.6174 20.286
7.6326 20.304
7.6478 20.211
7.6629 20.130
7.6781 20.231
7.6933 20.119
7.7085 20.410
7.7236 20.482
7.7388 20.152
7.7540 20.062
7.7692 20.064
7.7843 20.237
7.7995 20.483
7.8147 20.528
7.8299 20.536
7.8450 20.851
7.8602 20.760
7.8754 20.635
7.8905 20.789
7.9057 20.987
7.9209 21.162
7.9361 21.002
7.9512 20.745
7.9664 20.922
7.9816 20.821
7.9968 20.711
8.0119 20.716
8.0271 20.767
8.0423 20.849
8.0575 21.104
8.0726 21.145
8.0878 21.377
8.1030 21.362
8.1182 21.746
8.1333 21.604
8.1485 21.309
8.1637 21.734
8.1789 21.413
8.1940 21.331
8.2092 21.949
8.2244 21.719
8.2396 21.535
8.2547 21.647
8.2699 21.739
8.2851 21.790
8.3003 21.432
8.3154 21.808
8.3306 21.561
8.3458 21.607
8.3610 22.130
8.3761 22.057
8.3913 21.881
8.4065 22.179
8.4217 22.225
8.4368 21.975
8.4520 21.858
8.4672 21.967
8.4824 22.291
8.4975 22.483
8.5127 21.839
8.5279 22.353
8.5431 21.926
8.5582 21.940
8.5734 22.100
8.5886 22.530
8.6038 22.152
8.6189 22.132
8.6341 22.616
8.6493 22.477
8.6645 22.753
8.6796 22.137
8.6948 22.097
8.7100 22.437
8.7252 22.723
8.7403 22.527
8.7555 22.833
8.7707 22.589
8.7859 22.423
8.8010 22.717
8.8162 22.477
8.8314 22.272
8.8466 22.102
8.8617 22.460
8.8769 22.795
8.8921 22.490
8.9073 22.224
8.9224 22.977
8.9376 22.756
8.9528 22.470
8.9680 22.738
8.9831 22.523
8.9983 22.763
9.0135 22.790
9.0287 22.497
9.0438 23.013
9.0590 22.532
9.0742 22.920
9.0894 22.837
9.1045 22.998
9.1197 22.676
9.1349 22.715
9.1501 22.690
9.1652 23.089
9.1804 22.723
9.1956 22.742
9.2108 22.834
9.2259 23.008
9.2411 23.229
9.2563 23.056
9.2715 23.136
9.2866 22.908
9.3018 23.045
9.3170 22.851
9.3322 23.192
9.3473 23.387
9.3625 22.966
9.3777 23.146
9.3929 23.109
9.4080 23.008
9.4232 23.177
9.4384 23.113
9.4536 22.996
9.4687 22.963
9.4839 23.057
9.4991 23.651
9.5143 23.682
9.5294 23.501
9.5446 23.257
9.5598 23.271
9.5750 23.333
9.5901 23.538
9.6053 23.479
9.6205 23.594
9.6357 23.559
9.6508 23.513
9.6660 23.343
9.6812 23.298
9.6964 23.598
9.7115 24.130
9.7267 24.303
9.7419 23.925
9.7571 23.825
9.7722 23.706
9.7874 23.666
9.8026 24.143
9.8178 24.127
9.8329 23.549
9.8481 23.168
9.8633 23.075
9.8785 23.410
9.8936 23.663
9.9088 23.299
9.9240 22.870
9.9392 22.768
9.9543 23.005
9.9695 23.062
9.9847 23.008
9.9999 22.999
10.0150 23.010
10.0302 23.305
10.0454 23.494
10.0606 23.257
10.0757 23.155
10.0909 23.297
10.1061 23.606
10.1213 23.399
10.1364 23.407
10.1516 23.369
10.1668 23.400
10.1820 23.028
10.1971 22.924
10.2123 22.862
10.2275 22.967
10.2427 23.248
10.2578 23.232
10.2730 23.031
10.2882 22.809
10.3034 23.152
10.3185 23.209
10.3337 22.629
10.3489 22.850
10.3641 22.765
10.3792 22.547
10.3944 22.798
10.4096 22.822
10.4248 22.697
10.4399 22.818
10.4551 22.567
10.4703 22.474
10.4855 22.700
10.5006 22.446
10.5158 22.761
10.5310 22.733
10.5462 22.568
10.5613 23.043
10.5765 22.823
10.5917 22.559
10.6069 22.549
10.6220 22.915
10.6372 22.885
10.6524 22.989
10.6676 23.092
10.6827 22.948
10.6979 22.619
10.7131 22.629
10.7283 22.549
10.7434 22.707
10.7586 22.671
10.7738 22.302
10.7890 22.190
10.8041 22.182
10.8193 22.297
10.8345 22.461
10.8497 22.144
10.8648 22.369
10.8800 22.188
10.8952 21.848
10.9104 22.138
10.9255 22.121
10.9407 22.309
10.9559 22.476
10.9711 22.084
10.9862 21.856
11.0014 21.995
11.0166 22.151
11.0318 22.634
11.0469 22.133
11.0621 21.585
11.0773 21.924
11.0925 22.141
11.1076 21.948
11.1228 21.588
11.1380 21.926
11.1532 21.847
11.1683 21.587
11.1835 21.573
11.1987 21.875
11.2139 22.083
11.2290 21.866
11.2442 21.469
11.2594 21.440
11.2746 21.565
11.2897 21.721
11.3049 21.466
11.3201 21.590
11.3353 21.788
11.3504 21.561
11.3656 21.754
11.3808 21.596
11.3960 21.660
11.4111 21.667
11.4263 21.402
11.4415 21.518
11.4567 21.427
11.4718 21.206
11.4870 21.349
11.5022 21.260
11.5174 21.293
11.5325 21.096
11.5477 21.191
11.5629 20.989
11.5781 21.180
11.5932 21.204
11.6084 20.801
11.6236 20.706
11.6388 20.617
11.6539 20.800
11.6691 20.613
11.6843 20.344
11.6995 20.342
11.7146 20.779
11.7298 20.609
11.7450 20.534
11.7602 20.350
11.7753 20.146
11.7905 20.161
11.8057 20.448
11.8209 20.367
11.8360 20.094
11.8512 19.467
11.8664 20.041
11.8816 20.015
11.8967 19.760
11.9119 19.597
11.9271 19.423
11.9423 19.284
11.9574 19.359
11.9726 19.291
11.9878 19.117
12.0030 19.281
12.0181 19.043
12.0333 18.814
12.0485 19.072
12.0637 19.099
12.0788 19.359
12.0940 18.972
12.1092 18.572
12.1244 18.898
12.1395 18.308
12.1547 17.959
12.1699 18.304
12.1851 18.408
12.2002 18.338
12.2154 18.356
12.2306 18.242
12.2458 18.350
12.2609 18.052
12.2761 17.855
12.2913 17.783
12.3065 17.627
12.3216 17.588
12.3368 17.353
12.3520 17.636
12.3672 17.524
12.3823 17.489
12.3975 17.447
12.4127 17.401
12.4279 17.273
12.4430 17.277
12.4582 17.122
12.4734 17.012
12.4886 16.646
12.5037 16.419
12.5189 16.669
12.5341 16.453
12.5493 16.351
12.5644 16.373
12.5796 16.140
12.5948 16.059
12.6100 15.733
12.6251 15.567
12.6403 15.719
12.6555 15.905
12.6707 16.141
12.6858 15.944
12.7010 15.751
12.7162 15.621
12.7314 15.643
12.7465 15.536
12.7617 15.488
12.7769 15.510
12.7921 15.144
12.8072 14.980
12.8224 15.097
12.8376 15.121
12.8528 14.884
12.8679 14.709
12.8831 14.585
12.8983 14.455
12.9135 14.727
12.9286 14.874
12.9438 14.526
12.9590 14.292
12.9742 14.562
12.9893 14.740
13.0045 14.517
13.0197 14.329
13.0349 14.183
13.0500 14.061
13.0652 14.074
13.0804 13.869
13.0956 13.766
13.1107 13.729
13.1259 13.509
13.1411 13.577
13.1563 13.751
13.1714 13.569
13.1866 13.401
13.2018 13.507
13.2170 13.567
13.2321 13.516
13.2473 13.481
13.2625 13.446
13.2777 13.253
13.2928 13.072
13.3080 13.133
13.3232 13.039
13.3384 13.017
13.3535 13.181
13.3687 13.074
13.3839 12.943
13.3991 12.919
13.4142 12.940
13.4294 12.728
13.4446 12.680
13.4598 12.555
13.4749 12.670
13.4901 12.825
13.5053 12.728
13.5205 12.585
13.5356 12.625
13.5508 12.579
13.5660 12.514
13.5812 12.348
13.5963 12.125
13.6115 12.369
13.6267 12.586
13.6419 12.352
13.6570 11.999
13.6722 12.001
13.6874 12.210
13.7026 12.172
13.7177 12.233
13.7329 12.292
13.7481 12.231
13.7633 12.042
13.7784 11.867
13.7936 12.063
13.8088 12.191
13.8239 12.360
13.8391 12.567
13.8543 12.821
13.8695 12.653
13.8846 12.257
13.8998 12.029
13.9150 11.979
13.9302 12.182
13.9453 12.115
13.9605 11.852
13.9757 11.800
13.9909 11.923
14.0060 11.680
14.0212 11.661
14.0364 11.700
14.0516 11.565
14.0667 11.530
14.0819 11.370
14.0971 11.335
14.1123 11.351
14.1274 11.489
14.1426 11.373
14.1578 11.524
14.1730 11.467
14.1881 11.670
14.2033 11.690
14.2185 11.634
14.2337 11.488
14.2488 11.879
14.2640 12.110
14.2792 12.127
14.2944 11.938
14.3095 12.355
14.3247 12.778
14.3399 13.157
14.3551 12.932
14.3702 13.232
14.3854 13.436
14.4006 13.460
14.4158 13.546
14.4309 13.432
14.4461 12.711
14.4613 12.587
14.4765 12.641
14.4916 12.451
14.5068 12.198
14.5220 11.765
14.5372 11.287
14.5523 11.243
14.5675 11.323
14.5827 11.179
14.5979 10.964
14.6130 10.961
14.6282 10.629
14.6434 11.358
14.6586 10.656
14.6737 11.039
14.6889 10.821
14.7041 10.616
14.7193 10.738
14.7344 10.838
14.7496 10.794
14.7648 10.763
14.7800 10.294
14.7951 10.610
14.8103 10.389
14.8255 11.029
14.8407 10.732
14.8558 10.485
14.8710 10.786
14.8862 10.714
14.9014 10.634
14.9165 10.874
14.9317 10.632
14.9469 10.574
14.9621 10.640
14.9772 10.478
14.9924 10.731
15.0076 10.189
15.0228 10.587
15.0379 10.701
15.0531 10.495
15.0683 10.671
15.0835 10.278
15.0986 10.286
15.1138 10.254
15.1290 10.443
15.1442 10.176
15.1593 10.206
15.1745 10.296
15.1897 10.056
15.2049 10.070
15.2200 10.534
15.2352 10.291
15.2504 10.203
15.2656 10.366
15.2807 10.374
15.2959 10.146
15.3111 9.985
15.3263 10.296
15.3414 10.216
15.3566 10.145
15.3718 10.321
15.3870 10.215
15.4021 9.968
15.4173 10.240
15.4325 10.208
15.4477 10.398
15.4628 10.112
15.4780 9.987
15.4932 10.248
15.5084 10.329
15.5235 10.294
15.5387 10.098
15.5539 10.263
15.5691 9.928
15.5842 10.179
15.5994 9.889
15.6146 10.217
15.6298 9.912
15.6449 9.771
15.6601 10.077
15.6753 9.692
15.6905 10.096
15.7056 9.700
15.7208 9.591
15.7360 9.838
15.7512 9.703
15.7663 9.821
15.7815 9.594
15.7967 9.796
15.8119 10.121
15.8270 9.864
15.8422 9.936
15.8574 9.923
15.8726 9.568
15.8877 9.648
15.9029 9.602
15.9181 9.766
15.9333 9.886
15.9484 9.678
15.9636 9.872
15.9788 9.870
15.9940 9.631
16.0091 9.663
16.0243 9.846
16.0395 9.659
16.0547 9.648
16.0698 9.481
16.0850 9.499
16.1002 9.725
16.1154 9.724
16.1305 9.548
16.1457 9.982
16.1609 9.932
16.1761 9.805
16.1912 9.867
16.2064 9.621
16.2216 9.935
16.2368 10.063
16.2519 9.717
16.2671 9.656
16.2823 9.553
16.2975 10.008
16.3126 9.983
16.3278 9.903
16.3430 9.830
16.3582 9.745
16.3733 9.977
16.3885 10.033
16.4037 9.786
16.4189 9.889
16.4340 9.925
16.4492 9.850
16.4644 9.990
16.4796 9.859
16.4947 9.788
16.5099 9.620
16.5251 9.526
16.5403 9.946
16.5554 9.917
16.5706 9.807
16.5858 9.887
16.6010 9.781
16.6161 9.773
16.6313 9.770
16.6465 9.592
16.6617 9.718
16.6768 9.938
16.6920 10.043
16.7072 10.098
16.7224 10.085
16.7375 10.211
16.7527 9.882
16.7679 10.067
16.7831 10.140
16.7982 10.132
16.8134 9.989
16.8286 9.870
16.8438 9.942
16.8589 10.056
16.8741 10.123
16.8893 10.032
16.9045 9.906
16.9196 9.919
16.9348 9.958
16.9500 9.971
16.9652 9.900
16.9803 9.772
16.9955 9.595
17.0107 9.656
17.0259 9.974
17.0410 10.151
17.0562 10.135
17.0714 9.921
17.0866 10.302
17.1017 10.638
17.1169 10.644
17.1321 10.771
17.1473 11.206
17.1624 11.955
17.1776 12.436
17.1928 12.941
17.2080 13.811
17.2231 14.825
17.2383 16.133
17.2535 17.495
17.2687 18.376
17.2838 18.444
17.2990 18.138
17.3142 17.129
17.3294 16.357
17.3445 16.329
17.3597 16.072
17.3749 15.801
17.3901 15.303
17.4052 14.176
17.4204 13.240
17.4356 12.495
17.4508 11.684
17.4659 11.375
17.4811 11.297
17.4963 11.244
17.5115 11.141
17.5266 11.097
17.5418 11.125
17.5570 11.074
17.5722 10.896
17.5873 10.924
17.6025 11.046
17.6177 11.252
17.6329 11.416
17.6480 11.530
17.6632 11.767
17.6784 11.670
17.6936 11.698
17.7087 11.668
17.7239 11.395
17.7391 11.174
17.7543 11.002
17.7694 11.160
17.7846 11.189
17.7998 11.085
17.8150 10.806
17.8301 10.466
17.8453 10.278
17.8605 10.255
17.8757 10.083
17.8908 10.072
17.9060 10.345
17.9212 10.278
17.9364 10.079
17.9515 10.046
17.9667 10.055
17.9819 10.381
17.9971 10.507
18.0122 10.444
18.0274 10.106
18.0426 9.966
18.0578 10.122
18.0729 10.073
18.0881 10.123
18.1033 10.025
18.1185 9.816
18.1336 9.955
18.1488 9.927
18.1640 9.974
18.1792 10.074
18.1943 9.840
18.2095 10.017
18.2247 10.081
18.2399 9.868
18.2550 9.838
18.2702 9.828
18.2854 9.877
18.3006 9.739
18.3157 9.715
18.3309 9.777
18.3461 9.614
18.3613 9.650
18.3764 9.689
18.3916 9.703
18.4068 9.636
18.4220 9.749
18.4371 9.990
18.4523 10.046
18.4675 9.834
18.4827 9.952
18.4978 9.910
18.5130 9.725
18.5282 9.664
18.5434 9.603
18.5585 9.608
18.5737 9.519
18.5889 9.551
18.6041 9.581
18.6192 9.566
18.6344 9.705
18.6496 9.800
18.6648 9.598
18.6799 9.724
18.6951 9.968
18.7103 9.814
18.7255 9.617
18.7406 9.711
18.7558 9.733
18.7710 9.669
18.7862 9.866
18.8013 9.678
18.8165 9.744
18.8317 9.958
18.8469 10.204
18.8620 10.144
18.8772 9.941
18.8924 9.974
18.9076 10.033
18.9227 9.951
18.9379 9.976
18.9531 9.980
18.9683 9.943
18.9834 9.935
18.9986 10.013
19.0138 10.227
19.0290 10.147
19.0441 9.996
19.0593 10.221
19.0745 10.297
19.0897 10.459
19.1048 10.402
19.1200 10.342
19.1352 10.667
19.1504 10.788
19.1655 10.472
19.1807 10.512
19.1959 10.699
19.2111 10.839
19.2262 10.840
19.2414 10.765
19.2566 10.832
19.2718 10.818
19.2869 10.693
19.3021 10.973
19.3173 11.131
19.3325 10.861
19.3476 11.031
19.3628 11.149
19.3780 11.238
19.3932 11.118
19.4083 11.221
19.4235 11.013
19.4387 10.791
19.4539 11.048
19.4690 11.125
19.4842 11.337
19.4994 11.476
19.5146 11.438
19.5297 11.491
19.5449 11.319
19.5601 11.328
19.5753 11.550
19.5904 11.587
19.6056 11.653
19.6208 11.728
19.6360 11.620
19.6511 11.425
19.6663 11.522
19.6815 11.617
19.6967 11.569
19.7118 11.790
19.7270 11.810
19.7422 11.674
19.7574 11.698
19.7725 11.883
19.7877 11.838
19.8029 11.923
19.8180 12.216
19.8332 12.230
19.8484 12.039
19.8636 12.137
19.8787 12.318
19.8939 12.470
19.9091 12.900
19.9243 13.309
19.9394 13.518
19.9546 13.952
19.9698 14.348
19.9850 14.391
20.0001 14.424
20.0153 14.317
20.0305 13.989
20.0457 13.629
20.0608 13.482
20.0760 13.630
20.0912 13.755
20.1064 13.693
20.1215 13.425
20.1367 13.110
20.1519 12.894
20.1671 12.857
20.1822 12.790
20.1974 12.731
20.2126 12.806
20.2278 12.641
20.2429 12.590
20.2581 12.378
20.2733 12.231
20.2885 12.035
20.3036 11.984
20.3188 11.895
20.3340 11.923
20.3492 12.329
20.3643 12.087
20.3795 12.131
20.3947 12.141
20.4099 11.863
20.4250 11.708
20.4402 11.969
20.4554 11.933
20.4706 11.989
20.4857 11.829
20.5009 11.812
20.5161 11.689
20.5313 11.754
20.5464 11.359
20.5616 11.125
20.5768 11.292
20.5920 11.509
20.6071 11.255
20.6223 10.987
20.6375 10.717
20.6527 10.656
20.6678 10.667
20.6830 10.793
20.6982 10.629
20.7134 10.646
20.7285 10.664
20.7437 10.539
20.7589 10.563
20.7741 10.375
20.7892 10.448
20.8044 10.299
20.8196 10.479
20.8348 10.045
20.8499 10.145
20.8651 10.360
20.8803 9.977
20.8955 10.177
20.9106 10.488
20.9258 10.004
20.9410 10.312
20.9562 10.038
20.9713 10.523
20.9865 10.073
21.0017 10.177
21.0169 9.911
21.0320 9.827
21.0472 10.051
21.0624 9.789
21.0776 10.025
21.0927 9.838
21.1079 10.279
21.1231 10.090
21.1383 9.673
21.1534 9.740
21.1686 9.871
21.1838 9.617
21.1990 9.772
21.2141 9.762
21.2293 9.609
21.2445 9.755
21.2597 9.713
21.2748 9.424
21.2900 9.825
21.3052 9.878
21.3204 9.789
21.3355 9.411
21.3507 9.738
21.3659 9.515
21.3811 9.743
21.3962 9.474
21.4114 9.940
21.4266 9.478
21.4418 9.391
21.4569 9.231
21.4721 9.277
21.4873 9.191
21.5025 9.260
21.5176 9.299
21.5328 9.400
21.5480 9.142
21.5632 9.301
21.5783 9.253
21.5935 9.255
21.6087 9.320
21.6239 9.212
21.6390 9.119
21.6542 9.101
21.6694 9.031
21.6846 9.066
21.6997 8.942
21.7149 9.221
21.7301 9.153
21.7453 8.986
21.7604 9.101
21.7756 9.321
21.7908 8.951
21.8060 9.160
21.8211 9.211
21.8363 8.944
21.8515 9.022
21.8667 8.999
21.8818 8.927
21.8970 9.088
21.9122 9.081
21.9274 8.968
21.9425 8.993
21.9577 8.925
21.9729 8.864
21.9881 9.033
22.0032 9.024
22.0184 9.036
22.0336 9.034
22.0488 8.965
22.0639 8.746
22.0791 8.658
22.0943 8.647
22.1095 8.621
22.1246 8.613
22.1398 8.668
22.1550 8.605
22.1702 8.601
22.1853 8.752
22.2005 8.730
22.2157 8.729
22.2309 8.598
22.2460 8.372
22.2612 8.420
22.2764 8.755
22.2916 8.690
22.3067 8.576
22.3219 8.395
22.3371 8.544
22.3523 8.467
22.3674 8.548
22.3826 8.526
22.3978 8.497
22.4130 8.686
22.4281 8.404
22.4433 8.175
22.4585 8.226
22.4737 8.177
22.4888 8.280
22.5040 8.387
22.5192 8.665
22.5344 8.569
22.5495 8.207
22.5647 8.470
22.5799 8.557
22.5951 8.533
22.6102 8.517
22.6254 8.495
22.6406 8.526
22.6558 8.404
22.6709 8.583
22.6861 8.551
22.7013 8.114
22.7165 7.967
22.7316 6.331
