'Id: "" Comment: "" Operator: "Lab Manager" Anode: "Mo" Scantype: "Still (Eiger2R_500K (1D mode))" TimePerStep: "300" X: "11.8" Y: "9.4" Z: "11.284" 
7.2532 18.727
7.2684 18.419
7.2836 18.570
7.2987 18.869
7.3139 19.008
7.3291 19.029
7.3443 19.035
7.3594 19.149
7.3746 19.018
7.3898 19.201
7.4050 19.365
7.4201 19.489
7.4353 19.246
7.4505 19.340
7.4657 19.671
7.4808 19.643
7.4960 19.766
7.5112 19.653
7.5264 19.601
7.5415 19.954
7.5567 19.536
7.5719 19.864
7.5871 19.733
7.6022 19.493
7.6174 19.469
7.6326 19.981
7.6478 20.271
7.6629 20.198
7.6781 20.290
7.6933 20.305
7.7085 20.101
7.7236 20.157
7.7388 20.174
7.7540 20.230
7.7692 20.113
7.7843 20.215
7.7995 20.300
7.8147 20.126
7.8299 20.134
7.8450 19.981
7.8602 20.164
7.8754 20.623
7.8905 20.502
7.9057 20.587
7.9209 20.840
7.9361 21.035
7.9512 21.001
7.9664 20.786
7.9816 21.204
7.9968 21.081
8.0119 20.826
8.0271 21.101
8.0423 20.501
8.0575 20.459
8.0726 20.904
8.0878 20.994
8.1030 20.934
8.1182 21.360
8.1333 21.723
8.1485 21.204
8.1637 21.047
8.1789 21.043
8.1940 21.010
8.2092 21.357
8.2244 21.215
8.2396 21.242
8.2547 21.635
8.2699 21.298
8.2851 21.735
8.3003 21.304
8.3154 21.327
8.3306 21.538
8.3458 21.179
8.3610 21.208
8.3761 21.465
8.3913 21.414
8.4065 21.531
8.4217 22.219
8.4368 22.057
8.4520 21.845
8.4672 21.720
8.4824 21.818
8.4975 22.305
8.5127 21.927
8.5279 22.239
8.5431 21.645
8.5582 22.411
8.5734 21.709
8.5886 22.274
8.6038 21.480
8.6189 21.716
8.6341 21.656
8.6493 21.766
8.6645 22.062
8.6796 21.696
8.6948 21.987
8.7100 21.987
8.7252 22.414
8.7403 22.352
8.7555 22.315
8.7707 22.216
8.7859 22.312
8.8010 22.011
8.8162 22.136
8.8314 22.683
8.8466 22.903
8.8617 22.316
8.8769 22.609
8.8921 22.362
8.9073 22.380
8.9224 22.200
8.9376 22.425
8.9528 22.114
8.9680 22.278
8.9831 22.200
8.9983 22.127
9.0135 22.445
9.0287 22.513
9.0438 22.527
9.0590 22.897
9.0742 22.879
9.0894 22.384
9.1045 22.744
9.1197 22.590
9.1349 22.803
9.1501 22.667
9.1652 22.569
9.1804 22.432
9.1956 22.761
9.2108 23.016
9.2259 23.007
9.2411 22.688
9.2563 23.042
9.2715 22.962
9.2866 22.559
9.3018 22.670
9.3170 23.007
9.3322 22.838
9.3473 22.986
9.3625 22.865
9.3777 22.418
9.3929 22.324
9.4080 22.776
9.4232 22.908
9.4384 22.634
9.4536 22.486
9.4687 22.532
9.4839 22.388
9.4991 22.708
9.5143 22.850
9.5294 22.693
9.5446 22.986
9.5598 23.104
9.5750 23.074
9.5901 23.012
9.6053 23.250
9.6205 22.962
9.6357 22.972
9.6508 23.388
9.6660 23.389
9.6812 23.441
9.6964 23.454
9.7115 23.687
9.7267 23.935
9.7419 24.218
9.7571 24.032
9.7722 23.584
9.7874 23.473
9.8026 23.426
9.8178 23.402
9.8329 23.362
9.8481 23.112
9.8633 23.063
9.8785 23.129
9.8936 23.235
9.9088 23.265
9.9240 23.197
9.9392 23.216
9.9543 23.105
9.9695 23.023
9.9847 22.846
9.9999 22.610
10.0150 22.853
10.0302 23.174
10.0454 22.964
10.0606 22.909
10.0757 23.126
10.0909 23.015
10.1061 23.279
10.1213 23.580
10.1364 23.100
10.1516 23.201
10.1668 23.528
10.1820 23.238
10.1971 23.052
10.2123 23.098
10.2275 22.954
10.2427 22.863
10.2578 23.089
10.2730 22.953
10.2882 22.814
10.3034 23.236
10.3185 23.169
10.3337 22.637
10.3489 22.529
10.3641 22.676
10.3792 22.752
10.3944 22.776
10.4096 22.756
10.4248 22.602
10.4399 22.575
10.4551 22.295
10.4703 22.491
10.4855 22.427
10.5006 22.671
10.5158 22.385
10.5310 22.522
10.5462 22.417
10.5613 22.196
10.5765 22.716
10.5917 22.359
10.6069 22.135
10.6220 22.250
10.6372 22.223
10.6524 22.536
10.6676 22.749
10.6827 22.939
10.6979 22.352
10.7131 22.147
10.7283 22.428
10.7434 22.159
10.7586 22.087
10.7738 22.070
10.7890 22.293
10.8041 22.279
10.8193 22.142
10.8345 22.008
10.8497 22.002
10.8648 21.655
10.8800 21.764
10.8952 21.739
10.9104 21.781
10.9255 22.038
10.9407 22.197
10.9559 22.324
10.9711 22.198
10.9862 21.964
11.0014 22.099
11.0166 22.366
11.0318 22.210
11.0469 21.892
11.0621 21.735
11.0773 21.667
11.0925 21.596
11.1076 21.395
11.1228 21.438
11.1380 21.872
11.1532 21.525
11.1683 21.605
11.1835 21.355
11.1987 21.660
11.2139 21.757
11.2290 21.658
11.2442 21.830
11.2594 21.510
11.2746 21.281
11.2897 21.586
11.3049 21.583
11.3201 21.565
11.3353 21.346
11.3504 21.450
11.3656 21.232
11.3808 21.447
11.3960 21.257
11.4111 21.218
11.4263 21.271
11.4415 21.249
11.4567 21.084
11.4718 21.055
11.4870 21.029
11.5022 20.976
11.5174 21.095
11.5325 21.195
11.5477 21.259
11.5629 21.342
11.5781 20.850
11.5932 20.826
11.6084 20.845
11.6236 20.643
11.6388 20.504
11.6539 20.320
11.6691 20.329
11.6843 20.568
11.6995 20.265
11.7146 20.353
11.7298 20.216
11.7450 20.212
11.7602 20.495
11.7753 20.255
11.7905 20.010
11.8057 19.804
11.8209 19.956
11.8360 19.895
11.8512 19.842
11.8664 19.847
11.8816 19.531
11.8967 19.588
11.9119 19.433
11.9271 19.383
11.9423 18.911
11.9574 18.966
11.9726 19.019
11.9878 18.913
12.0030 18.974
12.0181 18.809
12.0333 18.916
12.0485 18.778
12.0637 18.709
12.0788 18.847
12.0940 18.849
12.1092 18.659
12.1244 18.751
12.1395 18.661
12.1547 18.300
12.1699 18.434
12.1851 18.487
12.2002 18.196
12.2154 18.418
12.2306 18.166
12.2458 17.911
12.2609 17.797
12.2761 17.763
12.2913 17.734
12.3065 17.717
12.3216 17.646
12.3368 17.542
12.3520 17.377
12.3672 17.599
12.3823 17.103
12.3975 17.153
12.4127 17.440
12.4279 17.029
12.4430 17.067
12.4582 16.985
12.4734 17.037
12.4886 16.711
12.5037 16.553
12.5189 16.571
12.5341 16.769
12.5493 16.439
12.5644 16.163
12.5796 16.397
12.5948 16.477
12.6100 16.148
12.6251 15.910
12.6403 15.864
12.6555 15.869
12.6707 15.908
12.6858 15.766
12.7010 15.793
12.7162 15.786
12.7314 15.643
12.7465 15.344
12.7617 15.199
12.7769 14.875
12.7921 14.879
12.8072 15.050
12.8224 15.002
12.8376 14.946
12.8528 14.781
12.8679 14.404
12.8831 14.415
12.8983 14.653
12.9135 14.598
12.9286 14.556
12.9438 14.498
12.9590 14.359
12.9742 14.375
12.9893 14.386
13.0045 14.396
13.0197 14.272
13.0349 13.974
13.0500 13.865
13.0652 13.884
13.0804 13.653
13.0956 13.499
13.1107 13.658
13.1259 13.604
13.1411 13.488
13.1563 13.456
13.1714 13.518
13.1866 13.455
13.2018 13.391
13.2170 13.474
13.2321 13.324
13.2473 13.206
13.2625 13.129
13.2777 13.274
13.2928 13.425
13.3080 13.080
13.3232 12.810
13.3384 12.784
13.3535 12.722
13.3687 12.738
13.3839 12.882
13.3991 12.941
13.4142 12.784
13.4294 12.707
13.4446 12.681
13.4598 12.617
13.4749 12.379
13.4901 12.441
13.5053 12.681
13.5205 12.568
13.5356 12.507
13.5508 12.175
13.5660 12.036
13.5812 12.194
13.5963 12.177
13.6115 12.078
13.6267 12.285
13.6419 12.419
13.6570 12.278
13.6722 12.165
13.6874 12.124
13.7026 11.909
13.7177 11.820
13.7329 11.868
13.7481 11.935
13.7633 11.961
13.7784 11.909
13.7936 11.859
13.8088 12.247
13.8239 12.110
13.8391 12.021
13.8543 12.375
13.8695 12.373
13.8846 12.092
13.8998 12.292
13.9150 12.460
13.9302 11.909
13.9453 11.431
13.9605 11.760
13.9757 11.831
13.9909 11.515
14.0060 11.525
14.0212 11.537
14.0364 11.270
14.0516 11.346
14.0667 11.387
14.0819 11.230
14.0971 11.571
14.1123 11.540
14.1274 11.361
14.1426 11.420
14.1578 11.388
14.1730 11.388
14.1881 11.369
14.2033 11.362
14.2185 11.309
14.2337 11.339
14.2488 11.315
14.2640 11.346
14.2792 11.588
14.2944 11.585
14.3095 11.842
14.3247 11.949
14.3399 11.906
14.3551 12.173
14.3702 12.666
14.3854 12.728
14.4006 13.059
14.4158 13.045
14.4309 13.170
14.4461 13.256
14.4613 13.087
14.4765 12.663
14.4916 12.701
14.5068 12.542
14.5220 12.234
14.5372 11.993
14.5523 11.766
14.5675 11.472
14.5827 11.324
14.5979 11.169
14.6130 11.251
14.6282 10.904
14.6434 10.987
14.6586 11.060
14.6737 10.851
14.6889 10.579
14.7041 10.716
14.7193 11.050
14.7344 10.814
14.7496 10.814
14.7648 10.752
14.7800 10.744
14.7951 10.319
14.8103 10.796
14.8255 10.488
14.8407 10.533
14.8558 10.640
14.8710 10.599
14.8862 10.520
14.9014 9.970
14.9165 10.727
14.9317 10.674
14.9469 10.231
14.9621 10.249
14.9772 10.350
14.9924 10.460
15.0076 9.755
15.0228 10.228
15.0379 10.457
15.0531 10.187
15.0683 10.614
15.0835 10.101
15.0986 10.145
15.1138 10.103
15.1290 10.291
15.1442 9.764
15.1593 10.237
15.1745 10.174
15.1897 10.175
15.2049 9.864
15.2200 10.139
15.2352 10.364
15.2504 10.334
15.2656 10.301
15.2807 10.245
15.2959 10.047
15.3111 10.183
15.3263 9.853
15.3414 9.934
15.3566 10.174
15.3718 10.328
15.3870 10.045
15.4021 10.358
15.4173 10.170
15.4325 10.262
15.4477 10.201
15.4628 10.046
15.4780 10.204
15.4932 10.033
15.5084 10.237
15.5235 10.028
15.5387 9.865
15.5539 9.905
15.5691 9.905
15.5842 10.010
15.5994 9.892
15.6146 9.719
15.6298 9.929
15.6449 9.842
15.6601 9.967
15.6753 9.790
15.6905 9.813
15.7056 9.465
15.7208 9.618
15.7360 9.430
15.7512 9.593
15.7663 9.763
15.7815 9.482
15.7967 9.299
15.8119 9.734
15.8270 10.017
15.8422 9.892
15.8574 9.688
15.8726 9.738
15.8877 9.234
15.9029 9.258
15.9181 9.438
15.9333 9.509
15.9484 9.387
15.9636 9.434
15.9788 9.620
15.9940 9.415
16.0091 9.928
16.0243 9.692
16.0395 9.485
16.0547 9.403
16.0698 9.370
16.0850 9.668
16.1002 9.619
16.1154 9.441
16.1305 9.325
16.1457 9.507
16.1609 9.737
16.1761 9.717
16.1912 9.500
16.2064 9.316
16.2216 9.519
16.2368 9.829
16.2519 9.912
16.2671 9.827
16.2823 9.963
16.2975 9.878
16.3126 9.743
16.3278 9.623
16.3430 9.867
16.3582 10.048
16.3733 9.977
16.3885 9.874
16.4037 9.779
16.4189 9.977
16.4340 9.799
16.4492 9.619
16.4644 9.969
16.4796 9.744
16.4947 9.490
16.5099 9.633
16.5251 9.524
16.5403 9.627
16.5554 9.540
16.5706 9.511
16.5858 9.673
16.6010 9.596
16.6161 9.411
16.6313 9.603
16.6465 9.769
16.6617 9.663
16.6768 9.686
16.6920 9.865
16.7072 10.048
16.7224 9.936
16.7375 9.822
16.7527 9.730
16.7679 9.626
16.7831 9.630
16.7982 9.697
16.8134 9.913
16.8286 10.012
16.8438 9.867
16.8589 9.479
16.8741 9.436
16.8893 9.724
16.9045 9.809
16.9196 9.827
16.9348 9.768
16.9500 9.550
16.9652 9.669
16.9803 9.668
16.9955 9.587
17.0107 9.684
17.0259 9.851
17.0410 9.873
17.0562 9.857
17.0714 10.083
17.0866 10.312
17.1017 10.459
17.1169 10.712
17.1321 10.795
17.1473 10.958
17.1624 11.552
17.1776 12.160
17.1928 12.607
17.2080 13.424
17.2231 14.709
17.2383 16.048
17.2535 17.377
17.2687 18.175
17.2838 18.270
17.2990 17.858
17.3142 16.800
17.3294 15.976
17.3445 15.935
17.3597 16.134
17.3749 15.923
17.3901 15.110
17.4052 13.856
17.4204 12.832
17.4356 12.270
17.4508 11.990
17.4659 11.734
17.4811 11.351
17.4963 11.137
17.5115 10.860
17.5266 10.439
17.5418 10.276
17.5570 10.298
17.5722 10.363
17.5873 10.392
17.6025 10.501
17.6177 10.721
17.6329 10.538
17.6480 10.732
17.6632 10.904
17.6784 10.987
17.6936 11.415
17.7087 11.487
17.7239 11.456
17.7391 11.524
17.7543 11.358
17.7694 11.328
17.7846 11.211
17.7998 10.998
17.8150 11.086
17.8301 11.163
17.8453 10.774
17.8605 10.387
17.8757 10.481
17.8908 10.671
17.9060 10.669
17.9212 10.321
17.9364 10.042
17.9515 10.168
17.9667 10.246
17.9819 10.214
17.9971 10.187
18.0122 10.220
18.0274 10.337
18.0426 10.403
18.0578 10.157
18.0729 9.927
18.0881 9.897
18.1033 9.927
18.1185 10.001
18.1336 10.080
18.1488 9.999
18.1640 9.909
18.1792 9.839
18.1943 9.698
18.2095 9.729
18.2247 9.720
18.2399 9.707
18.2550 9.839
18.2702 9.762
18.2854 9.702
18.3006 9.630
18.3157 9.684
18.3309 9.668
18.3461 9.828
18.3613 9.897
18.3764 9.649
18.3916 9.633
18.4068 9.632
18.4220 9.541
18.4371 9.691
18.4523 10.003
18.4675 9.966
18.4827 9.840
18.4978 9.707
18.5130 9.647
18.5282 9.709
18.5434 9.802
18.5585 9.821
18.5737 9.846
18.5889 9.770
18.6041 9.581
18.6192 9.495
18.6344 9.522
18.6496 9.784
18.6648 9.699
18.6799 9.739
18.6951 9.647
18.7103 9.491
18.7255 9.491
18.7406 9.430
18.7558 9.519
18.7710 9.855
18.7862 9.802
18.8013 9.634
18.8165 9.558
18.8317 9.661
18.8469 9.841
18.8620 9.761
18.8772 9.990
18.8924 9.904
18.9076 9.709
18.9227 9.948
18.9379 9.976
18.9531 9.982
18.9683 9.946
18.9834 9.787
18.9986 9.921
19.0138 10.045
19.0290 9.945
19.0441 10.067
19.0593 9.898
19.0745 10.075
19.0897 10.305
19.1048 10.106
19.1200 10.203
19.1352 10.237
19.1504 10.252
19.1655 10.267
19.1807 10.516
19.1959 10.588
19.2111 10.533
19.2262 10.462
19.2414 10.524
19.2566 10.493
19.2718 10.585
19.2869 10.668
19.3021 10.846
19.3173 11.179
19.3325 11.083
19.3476 10.860
19.3628 10.953
19.3780 11.159
19.3932 11.293
19.4083 11.429
19.4235 11.424
19.4387 11.305
19.4539 11.231
19.4690 11.243
19.4842 11.360
19.4994 11.321
19.5146 11.409
19.5297 11.530
19.5449 11.405
19.5601 11.492
19.5753 11.563
19.5904 11.725
19.6056 11.559
19.6208 11.385
19.6360 11.630
19.6511 11.546
19.6663 11.418
19.6815 11.521
19.6967 11.561
19.7118 11.498
19.7270 11.514
19.7422 11.470
19.7574 11.605
19.7725 11.671
19.7877 11.679
19.8029 11.798
19.8180 11.968
19.8332 11.905
19.8484 11.580
19.8636 11.799
19.8787 12.437
19.8939 12.769
19.9091 12.964
19.9243 13.150
19.9394 13.512
19.9546 13.774
19.9698 14.122
19.9850 14.350
20.0001 14.452
20.0153 14.089
20.0305 13.510
20.0457 13.405
20.0608 13.573
20.0760 13.621
20.0912 13.453
20.1064 13.621
20.1215 13.535
20.1367 13.065
20.1519 12.859
20.1671 12.692
20.1822 12.523
20.1974 12.586
20.2126 12.606
20.2278 12.556
20.2429 12.236
20.2581 11.990
20.2733 11.759
20.2885 11.461
20.3036 11.755
20.3188 11.839
20.3340 11.516
20.3492 11.427
20.3643 11.357
20.3795 11.145
20.3947 11.198
20.4099 11.186
20.4250 11.393
20.4402 11.561
20.4554 11.715
20.4706 11.493
20.4857 11.751
20.5009 11.624
20.5161 11.269
20.5313 11.279
20.5464 11.490
20.5616 11.251
20.5768 11.111
20.5920 11.292
20.6071 11.373
20.6223 11.209
20.6375 10.947
20.6527 10.804
20.6678 10.894
20.6830 11.071
20.6982 10.615
20.7134 10.590
20.7285 10.332
20.7437 10.498
20.7589 10.171
20.7741 10.385
20.7892 10.306
20.8044 10.194
20.8196 10.485
20.8348 10.311
20.8499 9.917
20.8651 9.814
20.8803 10.283
20.8955 10.058
20.9106 10.080
20.9258 10.085
20.9410 9.979
20.9562 10.039
20.9713 9.757
20.9865 10.031
21.0017 10.114
21.0169 9.941
21.0320 10.156
21.0472 10.054
21.0624 9.894
21.0776 9.982
21.0927 9.748
21.1079 9.941
21.1231 9.758
21.1383 9.504
21.1534 9.984
21.1686 9.713
21.1838 9.538
21.1990 9.684
21.2141 9.916
21.2293 9.792
21.2445 9.602
21.2597 9.774
21.2748 9.555
21.2900 9.614
21.3052 9.619
21.3204 9.599
21.3355 9.359
21.3507 9.414
21.3659 9.553
21.3811 9.132
21.3962 9.191
21.4114 9.593
21.4266 9.197
21.4418 9.404
21.4569 9.410
21.4721 9.251
21.4873 9.276
21.5025 9.109
21.5176 9.294
21.5328 9.156
21.5480 9.371
21.5632 9.291
21.5783 9.226
21.5935 9.148
21.6087 9.064
21.6239 9.225
21.6390 9.143
21.6542 9.054
21.6694 8.841
21.6846 8.850
21.6997 8.948
21.7149 8.862
21.7301 8.768
21.7453 8.961
21.7604 9.302
21.7756 9.147
21.7908 8.853
21.8060 9.012
21.8211 8.992
21.8363 8.980
21.8515 8.859
21.8667 8.814
21.8818 8.986
21.8970 9.070
21.9122 8.913
21.9274 8.939
21.9425 8.782
21.9577 8.794
21.9729 9.003
21.9881 8.884
22.0032 8.732
22.0184 8.768
22.0336 8.802
22.0488 8.958
22.0639 8.818
22.0791 8.676
22.0943 8.762
22.1095 8.769
22.1246 8.650
22.1398 8.502
22.1550 8.439
22.1702 8.599
22.1853 8.717
22.2005 8.536
22.2157 8.382
22.2309 8.444
22.2460 8.453
22.2612 8.368
22.2764 8.424
22.2916 8.311
22.3067 8.305
22.3219 8.378
22.3371 8.260
22.3523 8.267
22.3674 8.671
22.3826 8.597
22.3978 8.199
22.4130 8.525
22.4281 8.455
22.4433 8.363
22.4585 8.684
22.4737 8.375
22.4888 8.149
22.5040 8.707
22.5192 8.456
22.5344 8.268
22.5495 8.210
22.5647 8.523
22.5799 8.330
22.5951 8.394
22.6102 8.205
22.6254 8.480
22.6406 8.346
22.6558 8.128
22.6709 8.331
22.6861 8.218
22.7013 8.290
22.7165 7.714
22.7316 6.522
