'Id: "" Comment: "" Operator: "Lab Manager" Anode: "Mo" Scantype: "Still (Eiger2R_500K (1D mode))" TimePerStep: "300" X: "11.8" Y: "9.4" Z: "11.284" 
7.2532 18.794
7.2684 18.474
7.2836 18.784
7.2987 19.216
7.3139 19.106
7.3291 18.746
7.3443 18.983
7.3594 19.172
7.3746 19.274
7.3898 19.115
7.4050 19.204
7.4201 19.259
7.4353 19.756
7.4505 19.605
7.4657 19.338
7.4808 19.577
7.4960 19.563
7.5112 19.696
7.5264 19.510
7.5415 19.644
7.5567 19.602
7.5719 19.997
7.5871 20.199
7.6022 20.097
7.6174 20.117
7.6326 20.279
7.6478 20.050
7.6629 20.246
7.6781 20.505
7.6933 20.271
7.7085 20.285
7.7236 20.452
7.7388 20.576
7.7540 20.365
7.7692 20.547
7.7843 20.852
7.7995 20.839
7.8147 20.960
7.8299 20.944
7.8450 21.063
7.8602 20.842
7.8754 20.788
7.8905 21.056
7.9057 21.100
7.9209 21.240
7.9361 21.284
7.9512 21.201
7.9664 21.050
7.9816 21.436
7.9968 21.475
8.0119 21.378
8.0271 21.104
8.0423 21.029
8.0575 21.189
8.0726 21.303
8.0878 21.436
8.1030 21.488
8.1182 21.322
8.1333 21.378
8.1485 21.275
8.1637 21.649
8.1789 21.754
8.1940 20.989
8.2092 21.208
8.2244 21.565
8.2396 21.310
8.2547 21.738
8.2699 21.960
8.2851 21.567
8.3003 21.637
8.3154 21.718
8.3306 21.918
8.3458 21.985
8.3610 21.740
8.3761 22.276
8.3913 22.366
8.4065 22.124
8.4217 21.987
8.4368 21.967
8.4520 22.115
8.4672 22.453
8.4824 22.204
8.4975 22.178
8.5127 22.114
8.5279 22.156
8.5431 22.198
8.5582 22.326
8.5734 22.469
8.5886 22.532
8.6038 22.550
8.6189 22.576
8.6341 22.617
8.6493 22.411
8.6645 22.160
8.6796 22.291
8.6948 22.618
8.7100 22.273
8.7252 22.980
8.7403 22.773
8.7555 23.008
8.7707 23.331
8.7859 22.921
8.8010 22.901
8.8162 23.244
8.8314 22.911
8.8466 22.623
8.8617 22.835
8.8769 22.936
8.8921 22.807
8.9073 22.345
8.9224 22.646
8.9376 22.990
8.9528 22.623
8.9680 22.437
8.9831 22.984
8.9983 22.609
9.0135 22.860
9.0287 22.825
9.0438 22.967
9.0590 22.781
9.0742 22.466
9.0894 22.861
9.1045 23.210
9.1197 22.979
9.1349 23.209
9.1501 22.742
9.1652 22.924
9.1804 22.993
9.1956 22.924
9.2108 22.791
9.2259 23.044
9.2411 23.123
9.2563 23.235
9.2715 23.111
9.2866 23.477
9.3018 23.391
9.3170 23.488
9.3322 23.400
9.3473 23.361
9.3625 22.995
9.3777 23.000
9.3929 23.145
9.4080 23.190
9.4232 23.007
9.4384 23.155
9.4536 23.425
9.4687 23.606
9.4839 23.530
9.4991 23.342
9.5143 23.586
9.5294 23.522
9.5446 23.104
9.5598 23.295
9.5750 23.258
9.5901 23.168
9.6053 23.427
9.6205 23.673
9.6357 23.745
9.6508 23.643
9.6660 23.542
9.6812 23.435
9.6964 23.823
9.7115 24.113
9.7267 23.877
9.7419 23.993
9.7571 24.226
9.7722 23.844
9.7874 23.802
9.8026 23.760
9.8178 23.663
9.8329 23.607
9.8481 23.644
9.8633 24.022
9.8785 23.834
9.8936 23.398
9.9088 23.426
9.9240 23.544
9.9392 23.195
9.9543 23.140
9.9695 23.473
9.9847 23.747
9.9999 23.622
10.0150 23.387
10.0302 23.683
10.0454 23.901
10.0606 23.623
10.0757 23.423
10.0909 23.569
10.1061 23.456
10.1213 23.388
10.1364 23.627
10.1516 23.795
10.1668 23.650
10.1820 23.654
10.1971 23.845
10.2123 24.017
10.2275 23.975
10.2427 23.995
10.2578 23.907
10.2730 23.836
10.2882 23.410
10.3034 23.504
10.3185 23.234
10.3337 22.904
10.3489 23.333
10.3641 23.380
10.3792 23.038
10.3944 22.976
10.4096 22.959
10.4248 22.783
10.4399 22.952
10.4551 23.029
10.4703 22.805
10.4855 22.758
10.5006 22.847
10.5158 22.932
10.5310 22.961
10.5462 22.827
10.5613 22.547
10.5765 22.728
10.5917 22.636
10.6069 22.612
10.6220 22.680
10.6372 22.906
10.6524 23.006
10.6676 22.856
10.6827 22.731
10.6979 22.808
10.7131 22.715
10.7283 22.733
10.7434 22.717
10.7586 22.190
10.7738 22.267
10.7890 22.399
10.8041 22.523
10.8193 22.252
10.8345 22.304
10.8497 22.161
10.8648 22.208
10.8800 22.306
10.8952 22.215
10.9104 22.132
10.9255 22.393
10.9407 22.370
10.9559 22.062
10.9711 22.397
10.9862 21.926
11.0014 21.875
11.0166 22.482
11.0318 22.353
11.0469 22.163
11.0621 22.246
11.0773 21.908
11.0925 22.026
11.1076 21.905
11.1228 22.141
11.1380 22.031
11.1532 22.106
11.1683 21.979
11.1835 21.989
11.1987 21.748
11.2139 21.800
11.2290 22.231
11.2442 22.162
11.2594 21.925
11.2746 21.486
11.2897 21.484
11.3049 21.809
11.3201 21.531
11.3353 21.857
11.3504 21.694
11.3656 21.403
11.3808 21.842
11.3960 21.414
11.4111 21.384
11.4263 21.436
11.4415 21.632
11.4567 21.451
11.4718 21.262
11.4870 21.111
11.5022 21.401
11.5174 21.395
11.5325 21.084
11.5477 20.960
11.5629 21.145
11.5781 21.239
11.5932 20.911
11.6084 20.783
11.6236 20.740
11.6388 20.654
11.6539 20.818
11.6691 20.677
11.6843 20.953
11.6995 20.696
11.7146 20.467
11.7298 20.445
11.7450 20.533
11.7602 20.673
11.7753 20.585
11.7905 20.479
11.8057 20.265
11.8209 20.275
11.8360 20.149
11.8512 19.944
11.8664 19.968
11.8816 20.000
11.8967 19.672
11.9119 19.824
11.9271 19.670
11.9423 19.578
11.9574 19.745
11.9726 19.773
11.9878 19.338
12.0030 19.114
12.0181 19.141
12.0333 19.061
12.0485 18.848
12.0637 19.087
12.0788 18.901
12.0940 18.608
12.1092 18.702
12.1244 19.051
12.1395 18.928
12.1547 18.489
12.1699 18.670
12.1851 18.478
12.2002 18.240
12.2154 18.033
12.2306 18.002
12.2458 18.081
12.2609 18.027
12.2761 18.160
12.2913 17.799
12.3065 17.452
12.3216 17.637
12.3368 17.617
12.3520 17.694
12.3672 17.383
12.3823 17.209
12.3975 17.208
12.4127 17.256
12.4279 17.497
12.4430 17.650
12.4582 17.415
12.4734 17.376
12.4886 17.413
12.5037 17.014
12.5189 16.714
12.5341 16.796
12.5493 16.689
12.5644 16.541
12.5796 16.609
12.5948 16.628
12.6100 16.215
12.6251 16.178
12.6403 15.978
12.6555 15.668
12.6707 15.671
12.6858 15.808
12.7010 15.957
12.7162 15.711
12.7314 15.826
12.7465 15.937
12.7617 15.498
12.7769 15.313
12.7921 15.536
12.8072 15.421
12.8224 15.092
12.8376 15.227
12.8528 15.010
12.8679 14.881
12.8831 15.185
12.8983 15.128
12.9135 14.949
12.9286 14.737
12.9438 14.652
12.9590 14.659
12.9742 14.546
12.9893 14.478
13.0045 14.571
13.0197 14.553
13.0349 14.386
13.0500 14.338
13.0652 14.246
13.0804 14.050
13.0956 14.154
13.1107 14.049
13.1259 13.710
13.1411 13.741
13.1563 13.672
13.1714 13.556
13.1866 13.548
13.2018 13.692
13.2170 13.762
13.2321 13.489
13.2473 13.194
13.2625 13.250
13.2777 13.584
13.2928 13.299
13.3080 13.041
13.3232 13.227
13.3384 13.378
13.3535 13.224
13.3687 12.934
13.3839 13.025
13.3991 12.824
13.4142 12.992
13.4294 13.274
13.4446 12.837
13.4598 12.691
13.4749 12.781
13.4901 12.641
13.5053 12.717
13.5205 12.490
13.5356 12.518
13.5508 12.566
13.5660 12.365
13.5812 12.253
13.5963 12.385
13.6115 12.360
13.6267 12.321
13.6419 12.368
13.6570 12.348
13.6722 12.220
13.6874 12.124
13.7026 11.995
13.7177 11.943
13.7329 11.746
13.7481 11.786
13.7633 11.940
13.7784 12.226
13.7936 12.298
13.8088 12.492
13.8239 12.469
13.8391 12.374
13.8543 12.143
13.8695 12.292
13.8846 12.491
13.8998 12.340
13.9150 12.369
13.9302 12.196
13.9453 11.904
13.9605 11.910
13.9757 11.738
13.9909 11.885
14.0060 11.681
14.0212 11.790
14.0364 11.626
14.0516 11.768
14.0667 11.937
14.0819 11.803
14.0971 11.446
14.1123 11.486
14.1274 11.580
14.1426 11.608
14.1578 11.805
14.1730 11.691
14.1881 11.568
14.2033 11.529
14.2185 11.749
14.2337 12.428
14.2488 12.227
14.2640 11.764
14.2792 11.846
14.2944 12.165
14.3095 12.292
14.3247 12.488
14.3399 12.609
14.3551 12.678
14.3702 12.895
14.3854 13.089
14.4006 13.303
14.4158 12.777
14.4309 12.635
14.4461 12.549
14.4613 12.766
14.4765 12.312
14.4916 12.062
14.5068 12.020
14.5220 11.976
14.5372 11.801
14.5523 11.353
14.5675 11.405
14.5827 11.272
14.5979 11.180
14.6130 11.088
14.6282 11.132
14.6434 11.064
14.6586 11.221
14.6737 11.118
14.6889 11.116
14.7041 11.322
14.7193 10.808
14.7344 10.922
14.7496 10.818
14.7648 10.663
14.7800 11.025
14.7951 10.871
14.8103 10.615
14.8255 10.975
14.8407 10.775
14.8558 10.430
14.8710 10.728
14.8862 10.766
14.9014 10.611
14.9165 10.932
14.9317 10.950
14.9469 10.406
14.9621 10.565
14.9772 10.475
14.9924 10.110
15.0076 10.623
15.0228 10.607
15.0379 10.410
15.0531 10.573
15.0683 10.202
15.0835 10.807
15.0986 10.863
15.1138 10.512
15.1290 10.844
15.1442 10.632
15.1593 10.580
15.1745 10.536
15.1897 10.327
15.2049 10.297
15.2200 10.422
15.2352 10.512
15.2504 10.595
15.2656 10.116
15.2807 10.555
15.2959 10.149
15.3111 10.512
15.3263 10.205
15.3414 10.476
15.3566 10.544
15.3718 10.593
15.3870 10.346
15.4021 10.216
15.4173 10.302
15.4325 10.365
15.4477 10.449
15.4628 10.558
15.4780 10.895
15.4932 10.476
15.5084 10.123
15.5235 10.625
15.5387 10.368
15.5539 10.447
15.5691 10.550
15.5842 10.484
15.5994 10.037
15.6146 9.972
15.6298 9.960
15.6449 10.117
15.6601 10.082
15.6753 10.309
15.6905 10.148
15.7056 9.958
15.7208 9.589
15.7360 9.638
15.7512 9.877
15.7663 9.864
15.7815 9.760
15.7967 9.568
15.8119 9.428
15.8270 9.777
15.8422 9.646
15.8574 9.682
15.8726 9.794
15.8877 9.705
15.9029 9.823
15.9181 9.783
15.9333 9.890
15.9484 9.823
15.9636 9.673
15.9788 9.609
15.9940 9.629
16.0091 9.864
16.0243 10.005
16.0395 9.883
16.0547 9.863
16.0698 9.812
16.0850 9.664
16.1002 9.818
16.1154 9.850
16.1305 9.769
16.1457 9.904
16.1609 10.105
16.1761 9.791
16.1912 9.686
16.2064 9.487
16.2216 9.645
16.2368 9.959
16.2519 9.963
16.2671 9.987
16.2823 10.015
16.2975 10.090
16.3126 10.039
16.3278 10.168
16.3430 10.154
16.3582 9.929
16.3733 9.924
16.3885 10.135
16.4037 10.005
16.4189 9.715
16.4340 10.070
16.4492 10.198
16.4644 9.847
16.4796 9.710
16.4947 9.768
16.5099 9.743
16.5251 9.777
16.5403 9.861
16.5554 9.685
16.5706 9.636
16.5858 9.601
16.6010 9.490
16.6161 9.773
16.6313 9.859
16.6465 9.970
16.6617 9.836
16.6768 9.917
16.6920 10.075
16.7072 10.178
16.7224 9.994
16.7375 9.903
16.7527 10.091
16.7679 9.917
16.7831 9.835
16.7982 9.883
16.8134 9.928
16.8286 9.881
16.8438 9.852
16.8589 9.827
16.8741 9.684
16.8893 9.760
16.9045 9.794
16.9196 9.816
16.9348 9.817
16.9500 9.982
16.9652 9.929
16.9803 9.924
16.9955 10.036
17.0107 9.958
17.0259 9.889
17.0410 10.185
17.0562 10.333
17.0714 10.270
17.0866 10.179
17.1017 10.496
17.1169 10.902
17.1321 11.025
17.1473 11.279
17.1624 11.741
17.1776 12.480
17.1928 13.212
17.2080 13.976
17.2231 15.059
17.2383 16.299
17.2535 17.474
17.2687 18.608
17.2838 18.937
17.2990 18.265
17.3142 17.112
17.3294 16.206
17.3445 16.110
17.3597 16.318
17.3749 16.144
17.3901 15.350
17.4052 14.386
17.4204 13.396
17.4356 12.566
17.4508 12.094
17.4659 11.664
17.4811 11.568
17.4963 11.715
17.5115 11.551
17.5266 11.393
17.5418 11.293
17.5570 11.340
17.5722 11.598
17.5873 11.579
17.6025 11.546
17.6177 11.424
17.6329 11.204
17.6480 11.126
17.6632 10.907
17.6784 10.831
17.6936 10.952
17.7087 11.036
17.7239 10.828
17.7391 10.531
17.7543 10.373
17.7694 10.320
17.7846 10.295
17.7998 10.448
17.8150 10.499
17.8301 10.142
17.8453 10.198
17.8605 10.474
17.8757 10.286
17.8908 10.070
17.9060 10.391
17.9212 10.439
17.9364 10.217
17.9515 9.963
17.9667 10.200
17.9819 10.409
17.9971 10.130
18.0122 10.145
18.0274 10.289
18.0426 10.307
18.0578 10.326
18.0729 10.234
18.0881 10.151
18.1033 10.195
18.1185 10.160
18.1336 10.052
18.1488 10.062
18.1640 9.993
18.1792 9.823
18.1943 9.818
18.2095 9.947
18.2247 9.998
18.2399 9.734
18.2550 9.876
18.2702 9.980
18.2854 9.833
18.3006 9.667
18.3157 9.817
18.3309 9.737
18.3461 9.713
18.3613 9.746
18.3764 9.867
18.3916 9.991
18.4068 10.012
18.4220 9.875
18.4371 9.663
18.4523 9.723
18.4675 9.903
18.4827 9.762
18.4978 9.654
18.5130 9.862
18.5282 9.962
18.5434 10.001
18.5585 9.809
18.5737 9.664
18.5889 9.717
18.6041 9.576
18.6192 9.548
18.6344 9.728
18.6496 9.797
18.6648 9.755
18.6799 9.700
18.6951 9.740
18.7103 9.738
18.7255 9.746
18.7406 9.634
18.7558 9.542
18.7710 9.607
18.7862 9.818
18.8013 9.752
18.8165 9.814
18.8317 9.761
18.8469 9.810
18.8620 9.885
18.8772 9.968
18.8924 9.991
18.9076 9.794
18.9227 9.769
18.9379 9.936
18.9531 10.126
18.9683 9.972
18.9834 9.991
18.9986 10.150
19.0138 10.102
19.0290 9.893
19.0441 10.013
19.0593 10.235
19.0745 10.253
19.0897 10.350
19.1048 10.338
19.1200 10.351
19.1352 10.571
19.1504 10.674
19.1655 10.658
19.1807 10.660
19.1959 10.649
19.2111 10.531
19.2262 10.570
19.2414 10.642
19.2566 10.714
19.2718 10.888
19.2869 10.800
19.3021 10.690
19.3173 10.813
19.3325 10.987
19.3476 11.000
19.3628 10.935
19.3780 10.977
19.3932 11.016
19.4083 11.043
19.4235 11.129
19.4387 11.152
19.4539 11.309
19.4690 11.511
19.4842 11.437
19.4994 11.414
19.5146 11.472
19.5297 11.432
19.5449 11.595
19.5601 11.605
19.5753 11.436
19.5904 11.585
19.6056 11.650
19.6208 11.736
19.6360 11.658
19.6511 11.683
19.6663 11.697
19.6815 11.626
19.6967 11.663
19.7118 11.738
19.7270 11.687
19.7422 11.761
19.7574 12.017
19.7725 11.915
19.7877 11.821
19.8029 12.046
19.8180 12.133
19.8332 12.122
19.8484 12.285
19.8636 12.515
19.8787 12.519
19.8939 12.760
19.9091 13.119
19.9243 13.535
19.9394 13.658
19.9546 13.720
19.9698 14.399
19.9850 14.796
20.0001 14.516
20.0153 14.106
20.0305 13.873
20.0457 13.840
20.0608 13.939
20.0760 13.682
20.0912 13.803
20.1064 13.667
20.1215 13.310
20.1367 13.381
20.1519 13.299
20.1671 12.964
20.1822 12.981
20.1974 13.040
20.2126 12.867
20.2278 12.775
20.2429 12.641
20.2581 12.246
20.2733 11.951
20.2885 12.053
20.3036 12.087
20.3188 11.962
20.3340 11.659
20.3492 11.778
20.3643 11.794
20.3795 11.717
20.3947 11.602
20.4099 11.354
20.4250 11.004
20.4402 10.960
20.4554 10.845
20.4706 10.661
20.4857 10.784
20.5009 10.909
20.5161 10.757
20.5313 10.583
20.5464 10.927
20.5616 10.873
20.5768 10.951
20.5920 10.736
20.6071 10.555
20.6223 10.373
20.6375 10.517
20.6527 10.738
20.6678 10.814
20.6830 10.698
20.6982 10.612
20.7134 10.428
20.7285 10.425
20.7437 10.409
20.7589 10.434
20.7741 10.381
20.7892 10.553
20.8044 10.299
20.8196 10.311
20.8348 10.320
20.8499 10.126
20.8651 10.015
20.8803 10.245
20.8955 10.284
20.9106 10.170
20.9258 10.127
20.9410 10.060
20.9562 9.961
20.9713 9.977
20.9865 10.233
21.0017 10.312
21.0169 10.270
21.0320 9.973
21.0472 10.237
21.0624 9.839
21.0776 9.903
21.0927 10.166
21.1079 9.978
21.1231 10.134
21.1383 9.876
21.1534 9.794
21.1686 9.810
21.1838 9.849
21.1990 9.494
21.2141 9.672
21.2293 10.052
21.2445 9.452
21.2597 9.859
21.2748 9.427
21.2900 9.354
21.3052 9.859
21.3204 9.673
21.3355 9.780
21.3507 9.605
21.3659 9.553
21.3811 9.500
21.3962 9.325
21.4114 9.415
21.4266 9.654
21.4418 9.688
21.4569 9.515
21.4721 9.283
21.4873 9.247
21.5025 9.573
21.5176 9.301
21.5328 8.925
21.5480 9.063
21.5632 9.216
21.5783 9.149
21.5935 9.275
21.6087 9.221
21.6239 9.279
21.6390 9.112
21.6542 9.151
21.6694 9.047
21.6846 9.079
21.6997 9.308
21.7149 9.078
21.7301 9.275
21.7453 9.022
21.7604 9.125
21.7756 9.141
21.7908 8.872
21.8060 9.072
21.8211 9.062
21.8363 8.972
21.8515 9.221
21.8667 9.196
21.8818 9.111
21.8970 8.997
21.9122 9.007
21.9274 9.061
21.9425 8.919
21.9577 9.018
21.9729 9.041
21.9881 9.097
22.0032 8.994
22.0184 8.978
22.0336 8.996
22.0488 8.939
22.0639 8.778
22.0791 8.794
22.0943 8.710
22.1095 8.635
22.1246 8.804
22.1398 8.723
22.1550 8.600
22.1702 8.477
22.1853 8.648
22.2005 8.728
22.2157 8.693
22.2309 8.844
22.2460 8.975
22.2612 8.768
22.2764 8.823
22.2916 8.842
22.3067 8.767
22.3219 8.612
22.3371 8.499
22.3523 8.484
22.3674 8.395
22.3826 8.474
22.3978 8.461
22.4130 8.779
22.4281 8.572
22.4433 8.862
22.4585 8.711
22.4737 8.581
22.4888 8.524
22.5040 8.600
22.5192 8.317
22.5344 8.543
22.5495 8.338
22.5647 8.399
22.5799 8.729
22.5951 8.685
22.6102 8.429
22.6254 8.619
22.6406 8.489
22.6558 8.561
22.6709 8.666
22.6861 8.382
22.7013 8.451
22.7165 8.202
22.7316 6.523
