'Id: "" Comment: "" Operator: "Lab Manager" Anode: "Mo" Scantype: "Still (Eiger2R_500K (1D mode))" TimePerStep: "300" X: "11.8" Y: "9.4" Z: "11.284" 
7.2532 18.371
7.2684 18.897
7.2836 19.099
7.2987 19.068
7.3139 18.860
7.3291 18.905
7.3443 19.170
7.3594 19.210
7.3746 19.209
7.3898 19.215
7.4050 19.308
7.4201 19.740
7.4353 19.374
7.4505 19.234
7.4657 19.491
7.4808 19.616
7.4960 19.874
7.5112 19.814
7.5264 19.701
7.5415 19.741
7.5567 19.852
7.5719 19.769
7.5871 19.675
7.6022 19.951
7.6174 20.011
7.6326 19.896
7.6478 20.045
7.6629 20.209
7.6781 20.377
7.6933 20.292
7.7085 20.164
7.7236 20.075
7.7388 20.168
7.7540 20.134
7.7692 20.466
7.7843 20.648
7.7995 20.480
7.8147 20.595
7.8299 20.655
7.8450 20.479
7.8602 20.488
7.8754 20.545
7.8905 20.359
7.9057 20.386
7.9209 20.624
7.9361 20.867
7.9512 20.954
7.9664 20.904
7.9816 20.906
7.9968 20.573
8.0119 20.677
8.0271 20.894
8.0423 21.075
8.0575 21.177
8.0726 21.179
8.0878 20.698
8.1030 21.422
8.1182 21.257
8.1333 21.410
8.1485 21.697
8.1637 21.299
8.1789 20.899
8.1940 21.396
8.2092 21.480
8.2244 21.566
8.2396 21.714
8.2547 21.590
8.2699 21.086
8.2851 21.391
8.3003 21.651
8.3154 21.529
8.3306 21.825
8.3458 21.591
8.3610 21.797
8.3761 21.819
8.3913 21.343
8.4065 21.578
8.4217 22.158
8.4368 22.080
8.4520 21.589
8.4672 21.936
8.4824 21.872
8.4975 22.325
8.5127 22.209
8.5279 22.293
8.5431 21.939
8.5582 22.073
8.5734 21.884
8.5886 22.027
8.6038 22.468
8.6189 22.060
8.6341 21.870
8.6493 22.059
8.6645 22.692
8.6796 22.398
8.6948 21.967
8.7100 21.713
8.7252 22.756
8.7403 21.754
8.7555 22.342
8.7707 22.282
8.7859 22.175
8.8010 21.992
8.8162 22.348
8.8314 22.584
8.8466 22.617
8.8617 22.408
8.8769 22.205
8.8921 22.224
8.9073 22.216
8.9224 22.581
8.9376 22.950
8.9528 22.739
8.9680 22.306
8.9831 22.415
8.9983 22.908
9.0135 23.401
9.0287 23.232
9.0438 22.927
9.0590 22.901
9.0742 22.742
9.0894 22.563
9.1045 22.631
9.1197 22.632
9.1349 23.189
9.1501 22.735
9.1652 22.829
9.1804 22.767
9.1956 22.494
9.2108 22.874
9.2259 22.982
9.2411 22.846
9.2563 22.554
9.2715 22.870
9.2866 23.087
9.3018 23.078
9.3170 23.235
9.3322 23.438
9.3473 23.251
9.3625 22.901
9.3777 22.992
9.3929 22.863
9.4080 23.159
9.4232 23.292
9.4384 23.315
9.4536 22.843
9.4687 22.836
9.4839 23.096
9.4991 23.118
9.5143 22.918
9.5294 23.175
9.5446 23.227
9.5598 22.904
9.5750 23.106
9.5901 23.106
9.6053 23.070
9.6205 22.913
9.6357 22.935
9.6508 23.078
9.6660 23.405
9.6812 23.483
9.6964 23.610
9.7115 23.733
9.7267 23.721
9.7419 23.899
9.7571 23.625
9.7722 23.594
9.7874 23.635
9.8026 23.332
9.8178 23.313
9.8329 23.476
9.8481 23.298
9.8633 23.134
9.8785 23.301
9.8936 23.148
9.9088 23.147
9.9240 23.430
9.9392 23.444
9.9543 23.242
9.9695 23.441
9.9847 23.883
9.9999 23.858
10.0150 23.261
10.0302 23.065
10.0454 23.247
10.0606 23.347
10.0757 23.064
10.0909 23.098
10.1061 23.252
10.1213 23.416
10.1364 23.401
10.1516 23.166
10.1668 23.271
10.1820 23.120
10.1971 23.131
10.2123 23.167
10.2275 23.120
10.2427 22.864
10.2578 22.886
10.2730 23.024
10.2882 22.989
10.3034 22.670
10.3185 22.817
10.3337 23.159
10.3489 22.696
10.3641 22.990
10.3792 22.939
10.3944 22.543
10.4096 22.369
10.4248 22.884
10.4399 22.676
10.4551 22.416
10.4703 22.708
10.4855 22.492
10.5006 22.444
10.5158 22.788
10.5310 23.060
10.5462 22.895
10.5613 22.313
10.5765 22.299
10.5917 22.651
10.6069 22.448
10.6220 22.386
10.6372 22.709
10.6524 22.896
10.6676 22.594
10.6827 22.604
10.6979 22.743
10.7131 22.464
10.7283 22.280
10.7434 22.498
10.7586 22.596
10.7738 22.382
10.7890 22.150
10.8041 22.061
10.8193 22.107
10.8345 22.289
10.8497 22.472
10.8648 22.018
10.8800 22.265
10.8952 22.440
10.9104 21.891
10.9255 21.897
10.9407 22.325
10.9559 22.001
10.9711 21.998
10.9862 21.939
11.0014 21.868
11.0166 22.356
11.0318 22.228
11.0469 21.972
11.0621 21.800
11.0773 21.764
11.0925 21.889
11.1076 21.790
11.1228 21.339
11.1380 21.234
11.1532 21.714
11.1683 21.690
11.1835 21.898
11.1987 22.028
11.2139 21.486
11.2290 21.744
11.2442 21.547
11.2594 22.070
11.2746 21.911
11.2897 21.624
11.3049 21.361
11.3201 21.445
11.3353 21.595
11.3504 21.376
11.3656 21.507
11.3808 21.636
11.3960 21.702
11.4111 21.453
11.4263 21.267
11.4415 21.094
11.4567 21.085
11.4718 21.278
11.4870 20.911
11.5022 20.629
11.5174 20.845
11.5325 21.144
11.5477 20.820
11.5629 20.878
11.5781 20.873
11.5932 20.738
11.6084 20.719
11.6236 20.877
11.6388 21.066
11.6539 20.456
11.6691 20.360
11.6843 20.543
11.6995 20.837
11.7146 20.569
11.7298 20.284
11.7450 20.062
11.7602 20.057
11.7753 19.978
11.7905 20.296
11.8057 20.096
11.8209 19.530
11.8360 19.932
11.8512 19.913
11.8664 19.475
11.8816 19.747
11.8967 19.892
11.9119 19.711
11.9271 19.334
11.9423 19.276
11.9574 19.082
11.9726 19.042
11.9878 19.446
12.0030 19.143
12.0181 19.033
12.0333 18.998
12.0485 19.140
12.0637 18.863
12.0788 18.701
12.0940 18.564
12.1092 18.845
12.1244 18.780
12.1395 18.468
12.1547 18.426
12.1699 18.242
12.1851 18.393
12.2002 17.952
12.2154 17.881
12.2306 18.226
12.2458 18.106
12.2609 18.193
12.2761 17.953
12.2913 17.685
12.3065 17.562
12.3216 17.743
12.3368 17.514
12.3520 17.524
12.3672 17.369
12.3823 17.044
12.3975 17.045
12.4127 17.075
12.4279 17.034
12.4430 17.128
12.4582 17.034
12.4734 16.924
12.4886 16.848
12.5037 16.759
12.5189 16.619
12.5341 16.634
12.5493 16.391
12.5644 16.341
12.5796 16.330
12.5948 16.093
12.6100 16.385
12.6251 15.937
12.6403 15.622
12.6555 15.564
12.6707 15.693
12.6858 15.838
12.7010 15.526
12.7162 15.558
12.7314 15.522
12.7465 15.401
12.7617 15.267
12.7769 15.276
12.7921 15.317
12.8072 15.150
12.8224 15.027
12.8376 15.196
12.8528 15.001
12.8679 14.759
12.8831 14.599
12.8983 14.699
12.9135 14.747
12.9286 14.564
12.9438 14.493
12.9590 14.441
12.9742 14.350
12.9893 14.320
13.0045 14.119
13.0197 14.088
13.0349 14.199
13.0500 14.033
13.0652 13.879
13.0804 13.992
13.0956 14.123
13.1107 13.947
13.1259 13.826
13.1411 13.808
13.1563 13.721
13.1714 13.749
13.1866 13.809
13.2018 13.531
13.2170 13.333
13.2321 13.411
13.2473 13.461
13.2625 13.535
13.2777 13.398
13.2928 13.332
13.3080 13.268
13.3232 13.111
13.3384 13.049
13.3535 13.110
13.3687 13.136
13.3839 13.107
13.3991 13.033
13.4142 12.765
13.4294 12.870
13.4446 12.689
13.4598 12.533
13.4749 12.611
13.4901 12.702
13.5053 12.791
13.5205 12.806
13.5356 12.781
13.5508 12.725
13.5660 12.472
13.5812 12.230
13.5963 12.254
13.6115 12.123
13.6267 12.148
13.6419 12.278
13.6570 12.148
13.6722 12.102
13.6874 12.104
13.7026 12.180
13.7177 12.137
13.7329 12.100
13.7481 11.960
13.7633 11.870
13.7784 12.001
13.7936 12.193
13.8088 12.227
13.8239 12.125
13.8391 12.301
13.8543 12.546
13.8695 12.553
13.8846 12.365
13.8998 12.155
13.9150 11.999
13.9302 12.101
13.9453 12.071
13.9605 11.841
13.9757 11.728
13.9909 11.836
14.0060 11.862
14.0212 11.593
14.0364 11.791
14.0516 11.447
14.0667 11.476
14.0819 11.337
14.0971 11.665
14.1123 11.557
14.1274 11.653
14.1426 11.685
14.1578 11.681
14.1730 11.642
14.1881 11.617
14.2033 11.978
14.2185 11.843
14.2337 11.815
14.2488 11.789
14.2640 11.963
14.2792 11.786
14.2944 12.197
14.3095 12.072
14.3247 12.183
14.3399 12.499
14.3551 12.644
14.3702 12.654
14.3854 12.846
14.4006 13.003
14.4158 13.056
14.4309 13.050
14.4461 12.817
14.4613 12.661
14.4765 12.488
14.4916 12.232
14.5068 11.955
14.5220 11.534
14.5372 11.423
14.5523 11.107
14.5675 11.379
14.5827 10.789
14.5979 10.837
14.6130 10.717
14.6282 10.752
14.6434 10.765
14.6586 10.904
14.6737 11.022
14.6889 10.521
14.7041 10.891
14.7193 10.670
14.7344 10.944
14.7496 10.813
14.7648 10.676
14.7800 10.434
14.7951 10.463
14.8103 10.582
14.8255 10.457
14.8407 10.812
14.8558 10.578
14.8710 10.490
14.8862 10.606
14.9014 10.865
14.9165 10.947
14.9317 11.037
14.9469 10.501
14.9621 10.428
14.9772 10.223
14.9924 10.098
15.0076 10.101
15.0228 10.399
15.0379 10.382
15.0531 10.499
15.0683 9.929
15.0835 10.403
15.0986 10.026
15.1138 9.995
15.1290 10.422
15.1442 9.972
15.1593 10.104
15.1745 10.265
15.1897 10.230
15.2049 10.109
15.2200 10.236
15.2352 9.988
15.2504 10.129
15.2656 10.189
15.2807 10.313
15.2959 10.146
15.3111 10.085
15.3263 10.212
15.3414 10.296
15.3566 10.396
15.3718 10.037
15.3870 10.096
15.4021 10.011
15.4173 9.987
15.4325 10.448
15.4477 10.366
15.4628 10.440
15.4780 9.864
15.4932 10.169
15.5084 10.168
15.5235 10.219
15.5387 10.032
15.5539 10.096
15.5691 10.096
15.5842 9.624
15.5994 9.914
15.6146 9.850
15.6298 9.907
15.6449 9.919
15.6601 9.755
15.6753 9.717
15.6905 9.652
15.7056 9.860
15.7208 10.018
15.7360 9.788
15.7512 9.804
15.7663 9.680
15.7815 9.840
15.7967 9.606
15.8119 9.680
15.8270 9.628
15.8422 9.651
15.8574 9.429
15.8726 9.328
15.8877 9.874
15.9029 9.507
15.9181 9.630
15.9333 9.573
15.9484 9.721
15.9636 9.644
15.9788 9.776
15.9940 9.596
16.0091 9.715
16.0243 9.743
16.0395 9.596
16.0547 9.501
16.0698 9.695
16.0850 9.712
16.1002 9.636
16.1154 9.609
16.1305 9.713
16.1457 9.808
16.1609 9.849
16.1761 9.702
16.1912 9.770
16.2064 9.718
16.2216 9.661
16.2368 9.884
16.2519 9.784
16.2671 9.885
16.2823 9.984
16.2975 9.763
16.3126 9.739
16.3278 10.021
16.3430 9.715
16.3582 9.752
16.3733 9.572
16.3885 9.452
16.4037 9.665
16.4189 9.767
16.4340 10.004
16.4492 9.917
16.4644 10.073
16.4796 9.925
16.4947 9.721
16.5099 9.732
16.5251 9.439
16.5403 9.615
16.5554 9.768
16.5706 9.722
16.5858 9.759
16.6010 9.666
16.6161 9.642
16.6313 9.442
16.6465 9.726
16.6617 9.573
16.6768 9.864
16.6920 10.037
16.7072 9.846
16.7224 10.087
16.7375 10.051
16.7527 9.900
16.7679 9.996
16.7831 9.968
16.7982 9.808
16.8134 9.757
16.8286 9.626
16.8438 9.725
16.8589 9.851
16.8741 9.772
16.8893 9.646
16.9045 9.931
16.9196 10.049
16.9348 9.981
16.9500 9.637
16.9652 9.530
16.9803 9.804
16.9955 9.840
17.0107 9.700
17.0259 9.853
17.0410 9.890
17.0562 9.839
17.0714 10.121
17.0866 10.294
17.1017 10.271
17.1169 10.488
17.1321 10.813
17.1473 11.298
17.1624 11.923
17.1776 12.450
17.1928 13.203
17.2080 14.157
17.2231 15.258
17.2383 16.413
17.2535 17.606
17.2687 18.393
17.2838 18.417
17.2990 17.747
17.3142 16.595
17.3294 16.142
17.3445 16.224
17.3597 16.260
17.3749 15.920
17.3901 15.312
17.4052 14.356
17.4204 13.095
17.4356 12.553
17.4508 12.327
17.4659 11.966
17.4811 11.840
17.4963 11.744
17.5115 11.419
17.5266 11.284
17.5418 11.191
17.5570 11.013
17.5722 11.027
17.5873 11.101
17.6025 11.105
17.6177 11.126
17.6329 11.078
17.6480 11.235
17.6632 11.535
17.6784 11.633
17.6936 11.661
17.7087 11.463
17.7239 11.339
17.7391 11.181
17.7543 11.047
17.7694 11.086
17.7846 10.825
17.7998 10.645
17.8150 10.696
17.8301 10.586
17.8453 10.454
17.8605 10.430
17.8757 10.287
17.8908 10.264
17.9060 10.065
17.9212 10.207
17.9364 10.144
17.9515 10.027
17.9667 10.290
17.9819 10.259
17.9971 10.111
18.0122 10.061
18.0274 10.081
18.0426 9.977
18.0578 9.805
18.0729 9.938
18.0881 9.949
18.1033 9.784
18.1185 9.949
18.1336 9.949
18.1488 9.765
18.1640 9.960
18.1792 9.942
18.1943 10.031
18.2095 9.984
18.2247 9.927
18.2399 9.856
18.2550 9.823
18.2702 9.922
18.2854 9.920
18.3006 9.901
18.3157 9.885
18.3309 9.861
18.3461 9.966
18.3613 9.909
18.3764 9.704
18.3916 9.728
18.4068 9.852
18.4220 9.955
18.4371 9.801
18.4523 9.978
18.4675 9.928
18.4827 9.695
18.4978 9.740
18.5130 9.880
18.5282 9.615
18.5434 9.619
18.5585 9.675
18.5737 9.856
18.5889 9.849
18.6041 9.709
18.6192 9.737
18.6344 9.850
18.6496 9.807
18.6648 9.894
18.6799 9.847
18.6951 9.698
18.7103 9.904
18.7255 9.711
18.7406 9.602
18.7558 9.692
18.7710 9.675
18.7862 9.836
18.8013 9.700
18.8165 9.544
18.8317 9.879
18.8469 9.836
18.8620 9.692
18.8772 9.825
18.8924 10.144
18.9076 10.110
18.9227 9.759
18.9379 9.617
18.9531 9.947
18.9683 10.028
18.9834 9.935
18.9986 10.151
19.0138 10.282
19.0290 10.158
19.0441 10.132
19.0593 10.014
19.0745 9.901
19.0897 9.853
19.1048 9.925
19.1200 10.179
19.1352 10.603
19.1504 10.542
19.1655 10.418
19.1807 10.247
19.1959 10.433
19.2111 10.857
19.2262 10.962
19.2414 10.901
19.2566 10.919
19.2718 10.909
19.2869 10.923
19.3021 10.973
19.3173 10.872
19.3325 10.893
19.3476 10.919
19.3628 10.941
19.3780 11.162
19.3932 11.111
19.4083 11.014
19.4235 11.069
19.4387 11.156
19.4539 11.324
19.4690 11.410
19.4842 11.480
19.4994 11.575
19.5146 11.538
19.5297 11.693
19.5449 11.584
19.5601 11.392
19.5753 11.512
19.5904 11.737
19.6056 11.619
19.6208 11.349
19.6360 11.369
19.6511 11.521
19.6663 11.618
19.6815 11.651
19.6967 11.535
19.7118 11.444
19.7270 11.493
19.7422 11.573
19.7574 11.823
19.7725 11.850
19.7877 11.631
19.8029 11.829
19.8180 11.962
19.8332 12.038
19.8484 12.304
19.8636 12.321
19.8787 12.554
19.8939 12.594
19.9091 12.759
19.9243 13.146
19.9394 13.442
19.9546 13.813
19.9698 14.023
19.9850 14.302
20.0001 14.603
20.0153 14.475
20.0305 13.878
20.0457 13.539
20.0608 13.600
20.0760 13.734
20.0912 13.875
20.1064 13.593
20.1215 13.338
20.1367 13.223
20.1519 12.919
20.1671 12.659
20.1822 12.933
20.1974 13.001
20.2126 12.793
20.2278 12.622
20.2429 12.586
20.2581 12.344
20.2733 12.185
20.2885 12.037
20.3036 12.237
20.3188 12.267
20.3340 12.310
20.3492 12.270
20.3643 12.118
20.3795 11.797
20.3947 11.773
20.4099 11.754
20.4250 11.868
20.4402 11.845
20.4554 11.880
20.4706 11.743
20.4857 11.700
20.5009 11.566
20.5161 11.507
20.5313 11.370
20.5464 11.196
20.5616 11.302
20.5768 11.205
20.5920 11.363
20.6071 11.457
20.6223 10.899
20.6375 10.987
20.6527 10.876
20.6678 10.940
20.6830 10.551
20.6982 10.553
20.7134 10.592
20.7285 10.617
20.7437 10.479
20.7589 10.391
20.7741 10.495
20.7892 10.462
20.8044 10.741
20.8196 10.545
20.8348 10.407
20.8499 10.500
20.8651 10.601
20.8803 10.216
20.8955 10.108
20.9106 9.890
20.9258 10.302
20.9410 10.249
20.9562 10.290
20.9713 9.933
20.9865 10.096
21.0017 9.851
21.0169 10.009
21.0320 9.836
21.0472 10.061
21.0624 10.147
21.0776 9.736
21.0927 9.893
21.1079 9.628
21.1231 9.740
21.1383 9.607
21.1534 9.901
21.1686 9.839
21.1838 9.787
21.1990 9.721
21.2141 9.598
21.2293 9.624
21.2445 9.953
21.2597 9.472
21.2748 9.479
21.2900 9.667
21.3052 9.510
21.3204 9.701
21.3355 9.635
21.3507 9.753
21.3659 9.627
21.3811 9.395
21.3962 9.322
21.4114 9.358
21.4266 9.398
21.4418 9.442
21.4569 9.084
21.4721 9.412
21.4873 9.429
21.5025 9.499
21.5176 9.417
21.5328 9.341
21.5480 9.365
21.5632 9.743
21.5783 9.426
21.5935 9.257
21.6087 9.189
21.6239 8.974
21.6390 9.033
21.6542 9.185
21.6694 9.152
21.6846 9.023
21.6997 8.980
21.7149 9.013
21.7301 8.949
21.7453 9.032
21.7604 8.968
21.7756 9.106
21.7908 9.134
21.8060 8.961
21.8211 8.746
21.8363 8.933
21.8515 9.058
21.8667 9.025
21.8818 8.990
21.8970 9.124
21.9122 9.109
21.9274 8.985
21.9425 8.977
21.9577 8.981
21.9729 8.896
21.9881 8.869
22.0032 8.878
22.0184 8.819
22.0336 8.791
22.0488 8.891
22.0639 8.732
22.0791 8.725
22.0943 8.801
22.1095 8.707
22.1246 8.630
22.1398 8.753
22.1550 8.538
22.1702 8.260
22.1853 8.586
22.2005 8.748
22.2157 8.730
22.2309 8.589
22.2460 8.505
22.2612 8.507
22.2764 8.515
22.2916 8.264
22.3067 8.339
22.3219 8.434
22.3371 8.312
22.3523 8.348
22.3674 8.665
22.3826 8.400
22.3978 8.444
22.4130 8.467
22.4281 8.466
22.4433 8.599
22.4585 8.672
22.4737 8.461
22.4888 8.620
22.5040 8.549
22.5192 8.531
22.5344 8.264
22.5495 8.386
22.5647 8.251
22.5799 8.460
22.5951 8.186
22.6102 8.205
22.6254 8.455
22.6406 8.304
22.6558 8.389
22.6709 8.218
22.6861 8.385
22.7013 7.943
22.7165 7.898
22.7316 6.464
