'Id: "" Comment: "" Operator: "Lab Manager" Anode: "Mo" Scantype: "Still (Eiger2R_500K (1D mode))" TimePerStep: "300" X: "11.8" Y: "9.4" Z: "11.284" 
7.2532 18.659
7.2684 18.831
7.2836 19.113
7.2987 18.479
7.3139 18.668
7.3291 18.942
7.3443 18.952
7.3594 18.949
7.3746 19.116
7.3898 19.059
7.4050 18.638
7.4201 19.191
7.4353 19.248
7.4505 19.510
7.4657 19.598
7.4808 19.536
7.4960 19.482
7.5112 19.718
7.5264 19.781
7.5415 19.611
7.5567 19.829
7.5719 19.861
7.5871 19.451
7.6022 19.514
7.6174 19.699
7.6326 19.820
7.6478 19.985
7.6629 20.304
7.6781 20.363
7.6933 20.372
7.7085 19.960
7.7236 19.897
7.7388 20.464
7.7540 20.326
7.7692 20.222
7.7843 20.514
7.7995 20.643
7.8147 20.558
7.8299 20.350
7.8450 20.493
7.8602 20.638
7.8754 20.401
7.8905 20.346
7.9057 20.471
7.9209 20.787
7.9361 20.613
7.9512 20.704
7.9664 20.849
7.9816 20.821
7.9968 20.748
8.0119 20.846
8.0271 21.112
8.0423 20.878
8.0575 21.092
8.0726 21.330
8.0878 21.037
8.1030 21.015
8.1182 21.115
8.1333 21.023
8.1485 21.243
8.1637 21.122
8.1789 21.166
8.1940 21.355
8.2092 21.517
8.2244 20.892
8.2396 20.982
8.2547 21.093
8.2699 21.470
8.2851 21.625
8.3003 21.558
8.3154 21.538
8.3306 21.738
8.3458 21.570
8.3610 21.459
8.3761 21.868
8.3913 21.926
8.4065 21.956
8.4217 21.625
8.4368 21.319
8.4520 21.801
8.4672 21.829
8.4824 21.862
8.4975 21.902
8.5127 21.437
8.5279 22.247
8.5431 21.534
8.5582 21.963
8.5734 21.629
8.5886 22.123
8.6038 22.449
8.6189 22.275
8.6341 22.000
8.6493 21.576
8.6645 22.011
8.6796 21.874
8.6948 21.942
8.7100 22.098
8.7252 21.876
8.7403 22.185
8.7555 21.761
8.7707 22.161
8.7859 22.514
8.8010 22.334
8.8162 22.377
8.8314 22.367
8.8466 22.521
8.8617 22.458
8.8769 22.369
8.8921 22.492
8.9073 22.310
8.9224 22.206
8.9376 22.497
8.9528 22.538
8.9680 22.601
8.9831 22.331
8.9983 22.649
9.0135 22.555
9.0287 22.461
9.0438 22.287
9.0590 22.768
9.0742 22.818
9.0894 22.419
9.1045 22.756
9.1197 23.030
9.1349 22.761
9.1501 22.234
9.1652 22.295
9.1804 22.744
9.1956 22.653
9.2108 22.665
9.2259 22.856
9.2411 22.686
9.2563 22.613
9.2715 22.732
9.2866 22.531
9.3018 22.340
9.3170 22.807
9.3322 22.509
9.3473 22.496
9.3625 22.961
9.3777 23.005
9.3929 22.953
9.4080 23.061
9.4232 22.917
9.4384 22.791
9.4536 22.696
9.4687 22.646
9.4839 22.948
9.4991 22.890
9.5143 22.833
9.5294 22.828
9.5446 23.186
9.5598 23.211
9.5750 22.846
9.5901 23.172
9.6053 23.450
9.6205 23.433
9.6357 23.334
9.6508 23.587
9.6660 23.716
9.6812 23.658
9.6964 23.543
9.7115 23.677
9.7267 23.727
9.7419 23.813
9.7571 23.968
9.7722 23.716
9.7874 23.535
9.8026 23.372
9.8178 23.472
9.8329 23.592
9.8481 23.350
9.8633 23.289
9.8785 23.157
9.8936 23.120
9.9088 23.294
9.9240 23.252
9.9392 23.382
9.9543 23.249
9.9695 23.018
9.9847 23.022
9.9999 22.945
10.0150 22.750
10.0302 22.808
10.0454 23.437
10.0606 23.491
10.0757 23.000
10.0909 23.018
10.1061 23.282
10.1213 23.187
10.1364 23.194
10.1516 23.276
10.1668 23.266
10.1820 23.097
10.1971 22.723
10.2123 22.767
10.2275 22.753
10.2427 23.024
10.2578 23.290
10.2730 23.430
10.2882 23.059
10.3034 22.925
10.3185 22.739
10.3337 22.722
10.3489 22.301
10.3641 22.097
10.3792 22.390
10.3944 22.735
10.4096 22.334
10.4248 22.244
10.4399 22.564
10.4551 22.270
10.4703 22.462
10.4855 22.916
10.5006 22.485
10.5158 22.593
10.5310 22.419
10.5462 22.443
10.5613 22.400
10.5765 22.372
10.5917 22.462
10.6069 22.352
10.6220 22.126
10.6372 22.358
10.6524 22.688
10.6676 22.378
10.6827 22.447
10.6979 22.298
10.7131 22.154
10.7283 22.261
10.7434 22.182
10.7586 22.036
10.7738 22.194
10.7890 22.130
10.8041 22.182
10.8193 22.162
10.8345 22.395
10.8497 22.420
10.8648 22.063
10.8800 21.914
10.8952 22.333
10.9104 22.117
10.9255 22.131
10.9407 21.816
10.9559 21.687
10.9711 22.009
10.9862 21.977
11.0014 22.168
11.0166 21.991
11.0318 21.978
11.0469 21.889
11.0621 21.780
11.0773 21.840
11.0925 21.895
11.1076 21.443
11.1228 21.591
11.1380 22.040
11.1532 21.860
11.1683 21.619
11.1835 21.556
11.1987 21.657
11.2139 21.627
11.2290 21.684
11.2442 21.535
11.2594 21.657
11.2746 21.376
11.2897 21.336
11.3049 21.387
11.3201 21.431
11.3353 21.341
11.3504 21.430
11.3656 21.731
11.3808 21.389
11.3960 21.138
11.4111 21.266
11.4263 21.424
11.4415 21.249
11.4567 21.057
11.4718 20.919
11.4870 20.991
11.5022 21.220
11.5174 21.279
11.5325 20.671
11.5477 20.385
11.5629 20.957
11.5781 21.060
11.5932 20.877
11.6084 20.871
11.6236 20.560
11.6388 20.672
11.6539 20.748
11.6691 20.373
11.6843 20.293
11.6995 20.289
11.7146 20.506
11.7298 20.615
11.7450 20.615
11.7602 20.663
11.7753 20.094
11.7905 19.941
11.8057 19.938
11.8209 20.000
11.8360 19.969
11.8512 20.214
11.8664 20.118
11.8816 19.481
11.8967 19.475
11.9119 19.719
11.9271 19.657
11.9423 19.487
11.9574 19.516
11.9726 19.261
11.9878 19.106
12.0030 19.419
12.0181 19.403
12.0333 19.151
12.0485 18.937
12.0637 18.976
12.0788 19.052
12.0940 18.780
12.1092 18.420
12.1244 18.478
12.1395 18.563
12.1547 18.229
12.1699 18.061
12.1851 18.142
12.2002 18.063
12.2154 18.041
12.2306 17.940
12.2458 17.653
12.2609 17.862
12.2761 17.683
12.2913 17.435
12.3065 17.607
12.3216 17.514
12.3368 17.466
12.3520 17.808
12.3672 17.895
12.3823 17.597
12.3975 17.528
12.4127 17.473
12.4279 17.194
12.4430 17.031
12.4582 16.855
12.4734 16.788
12.4886 16.852
12.5037 16.575
12.5189 16.568
12.5341 16.640
12.5493 16.577
12.5644 16.271
12.5796 16.150
12.5948 16.127
12.6100 15.968
12.6251 16.061
12.6403 16.011
12.6555 15.716
12.6707 15.702
12.6858 15.857
12.7010 15.662
12.7162 15.492
12.7314 15.515
12.7465 15.360
12.7617 15.116
12.7769 15.087
12.7921 15.045
12.8072 15.077
12.8224 15.009
12.8376 14.874
12.8528 15.057
12.8679 14.862
12.8831 14.504
12.8983 14.367
12.9135 14.396
12.9286 14.515
12.9438 14.315
12.9590 14.245
12.9742 14.390
12.9893 14.334
13.0045 14.344
13.0197 14.330
13.0349 14.117
13.0500 14.045
13.0652 13.826
13.0804 14.020
13.0956 14.225
13.1107 13.784
13.1259 13.717
13.1411 13.778
13.1563 13.501
13.1714 13.323
13.1866 13.341
13.2018 13.328
13.2170 13.346
13.2321 13.336
13.2473 13.414
13.2625 13.251
13.2777 13.238
13.2928 13.361
13.3080 13.125
13.3232 13.160
13.3384 13.258
13.3535 13.257
13.3687 13.096
13.3839 13.145
13.3991 13.057
13.4142 12.810
13.4294 12.892
13.4446 13.083
13.4598 12.839
13.4749 12.500
13.4901 12.400
13.5053 12.566
13.5205 12.604
13.5356 12.421
13.5508 12.319
13.5660 12.221
13.5812 12.357
13.5963 12.443
13.6115 11.976
13.6267 11.898
13.6419 12.197
13.6570 11.826
13.6722 11.831
13.6874 12.262
13.7026 12.166
13.7177 12.062
13.7329 12.135
13.7481 12.303
13.7633 12.190
13.7784 12.226
13.7936 12.244
13.8088 12.259
13.8239 12.546
13.8391 12.484
13.8543 12.168
13.8695 12.053
13.8846 12.044
13.8998 12.113
13.9150 12.209
13.9302 11.994
13.9453 12.018
13.9605 11.851
13.9757 11.729
13.9909 11.608
14.0060 11.562
14.0212 11.698
14.0364 11.693
14.0516 11.611
14.0667 11.558
14.0819 11.633
14.0971 11.490
14.1123 11.591
14.1274 11.643
14.1426 11.663
14.1578 11.692
14.1730 11.613
14.1881 11.440
14.2033 11.219
14.2185 11.604
14.2337 11.668
14.2488 11.455
14.2640 11.555
14.2792 11.662
14.2944 11.637
14.3095 12.018
14.3247 12.175
14.3399 12.106
14.3551 12.334
14.3702 12.820
14.3854 12.832
14.4006 13.015
14.4158 12.941
14.4309 13.089
14.4461 12.766
14.4613 12.731
14.4765 12.446
14.4916 12.022
14.5068 11.632
14.5220 11.682
14.5372 11.396
14.5523 11.403
14.5675 11.019
14.5827 11.244
14.5979 10.956
14.6130 10.902
14.6282 10.848
14.6434 10.709
14.6586 10.842
14.6737 10.406
14.6889 10.818
14.7041 10.488
14.7193 10.257
14.7344 10.412
14.7496 10.702
14.7648 10.477
14.7800 10.307
14.7951 10.497
14.8103 10.397
14.8255 10.591
14.8407 10.327
14.8558 10.279
14.8710 10.298
14.8862 10.231
14.9014 10.191
14.9165 10.609
14.9317 10.296
14.9469 10.312
14.9621 10.227
14.9772 10.450
14.9924 9.958
15.0076 9.899
15.0228 10.296
15.0379 10.471
15.0531 10.249
15.0683 10.109
15.0835 9.980
15.0986 10.506
15.1138 10.092
15.1290 9.773
15.1442 10.223
15.1593 10.225
15.1745 9.911
15.1897 10.146
15.2049 10.184
15.2200 10.238
15.2352 10.491
15.2504 9.727
15.2656 10.065
15.2807 10.187
15.2959 10.237
15.3111 10.191
15.3263 9.971
15.3414 9.970
15.3566 9.959
15.3718 10.016
15.3870 10.277
15.4021 10.069
15.4173 9.922
15.4325 10.219
15.4477 10.338
15.4628 10.129
15.4780 10.086
15.4932 10.214
15.5084 10.203
15.5235 10.080
15.5387 9.768
15.5539 10.059
15.5691 10.072
15.5842 9.835
15.5994 9.732
15.6146 9.910
15.6298 9.763
15.6449 9.572
15.6601 9.657
15.6753 9.909
15.6905 9.816
15.7056 9.508
15.7208 9.781
15.7360 9.987
15.7512 9.640
15.7663 9.624
15.7815 9.349
15.7967 9.637
15.8119 9.594
15.8270 9.522
15.8422 9.602
15.8574 9.520
15.8726 9.658
15.8877 9.475
15.9029 9.558
15.9181 9.329
15.9333 9.264
15.9484 9.298
15.9636 9.573
15.9788 9.581
15.9940 9.582
16.0091 9.517
16.0243 9.544
16.0395 9.586
16.0547 9.455
16.0698 9.548
16.0850 9.482
16.1002 9.270
16.1154 9.244
16.1305 9.616
16.1457 9.785
16.1609 9.446
16.1761 9.398
16.1912 9.603
16.2064 9.557
16.2216 9.609
16.2368 9.582
16.2519 9.931
16.2671 9.894
16.2823 9.815
16.2975 9.599
16.3126 9.672
16.3278 9.810
16.3430 9.590
16.3582 9.451
16.3733 9.609
16.3885 9.626
16.4037 9.839
16.4189 9.655
16.4340 9.613
16.4492 9.737
16.4644 9.630
16.4796 9.539
16.4947 9.505
16.5099 9.464
16.5251 9.444
16.5403 9.589
16.5554 9.457
16.5706 9.450
16.5858 9.678
16.6010 9.491
16.6161 9.471
16.6313 9.538
16.6465 9.732
16.6617 9.761
16.6768 9.681
16.6920 9.778
16.7072 9.887
16.7224 10.089
16.7375 9.922
16.7527 9.803
16.7679 9.693
16.7831 9.692
16.7982 9.829
16.8134 9.576
16.8286 9.793
16.8438 9.866
16.8589 9.683
16.8741 9.541
16.8893 9.456
16.9045 9.635
16.9196 9.808
16.9348 9.771
16.9500 9.668
16.9652 9.707
16.9803 9.897
16.9955 9.935
17.0107 9.861
17.0259 9.978
17.0410 10.011
17.0562 9.904
17.0714 10.003
17.0866 10.065
17.1017 10.175
17.1169 10.641
17.1321 11.021
17.1473 11.401
17.1624 11.820
17.1776 12.450
17.1928 13.099
17.2080 13.693
17.2231 14.921
17.2383 16.330
17.2535 17.463
17.2687 18.443
17.2838 18.768
17.2990 17.830
17.3142 16.717
17.3294 16.495
17.3445 16.281
17.3597 15.885
17.3749 15.658
17.3901 15.266
17.4052 14.395
17.4204 13.189
17.4356 12.401
17.4508 12.064
17.4659 11.736
17.4811 11.480
17.4963 11.310
17.5115 11.140
17.5266 10.768
17.5418 10.644
17.5570 10.806
17.5722 10.758
17.5873 10.911
17.6025 11.058
17.6177 11.244
17.6329 11.589
17.6480 11.527
17.6632 11.452
17.6784 11.691
17.6936 11.897
17.7087 11.830
17.7239 11.395
17.7391 11.173
17.7543 11.409
17.7694 11.341
17.7846 10.927
17.7998 11.022
17.8150 11.151
17.8301 10.519
17.8453 10.387
17.8605 10.526
17.8757 10.340
17.8908 10.290
17.9060 10.144
17.9212 10.104
17.9364 9.882
17.9515 9.739
17.9667 9.863
17.9819 10.205
17.9971 10.307
18.0122 10.161
18.0274 9.981
18.0426 10.050
18.0578 10.172
18.0729 10.077
18.0881 10.057
18.1033 10.151
18.1185 9.958
18.1336 9.913
18.1488 9.838
18.1640 9.793
18.1792 9.829
18.1943 9.626
18.2095 9.723
18.2247 9.870
18.2399 9.771
18.2550 9.878
18.2702 9.824
18.2854 9.791
18.3006 9.861
18.3157 9.831
18.3309 9.690
18.3461 9.585
18.3613 9.792
18.3764 9.839
18.3916 9.857
18.4068 9.830
18.4220 9.698
18.4371 9.866
18.4523 9.906
18.4675 9.884
18.4827 9.666
18.4978 9.481
18.5130 9.658
18.5282 9.797
18.5434 9.842
18.5585 9.838
18.5737 9.690
18.5889 9.831
18.6041 9.814
18.6192 9.532
18.6344 9.773
18.6496 9.754
18.6648 9.600
18.6799 9.854
18.6951 9.865
18.7103 9.851
18.7255 9.833
18.7406 9.824
18.7558 9.826
18.7710 9.967
18.7862 9.940
18.8013 9.720
18.8165 9.673
18.8317 9.768
18.8469 10.081
18.8620 9.934
18.8772 9.771
18.8924 9.853
18.9076 9.904
18.9227 9.921
18.9379 9.873
18.9531 9.953
18.9683 9.916
18.9834 9.941
18.9986 10.042
19.0138 10.108
19.0290 10.081
19.0441 9.917
19.0593 9.763
19.0745 10.156
19.0897 10.401
19.1048 10.623
19.1200 10.438
19.1352 10.299
19.1504 10.494
19.1655 10.778
19.1807 10.740
19.1959 10.718
19.2111 10.741
19.2262 10.805
19.2414 10.805
19.2566 10.562
19.2718 10.695
19.2869 10.849
19.3021 10.852
19.3173 10.928
19.3325 11.004
19.3476 10.845
19.3628 10.998
19.3780 11.163
19.3932 11.047
19.4083 11.230
19.4235 11.239
19.4387 11.065
19.4539 11.462
19.4690 11.549
19.4842 11.514
19.4994 11.427
19.5146 11.232
19.5297 11.367
19.5449 11.347
19.5601 11.561
19.5753 11.680
19.5904 11.304
19.6056 11.307
19.6208 11.591
19.6360 11.772
19.6511 11.886
19.6663 11.730
19.6815 11.532
19.6967 11.793
19.7118 11.864
19.7270 11.928
19.7422 11.999
19.7574 11.782
19.7725 11.894
19.7877 11.891
19.8029 11.868
19.8180 12.205
19.8332 12.300
19.8484 12.294
19.8636 12.517
19.8787 12.775
19.8939 12.978
19.9091 13.251
19.9243 13.646
19.9394 13.895
19.9546 13.899
19.9698 14.198
19.9850 14.533
20.0001 14.506
20.0153 14.181
20.0305 14.017
20.0457 14.030
20.0608 14.034
20.0760 14.037
20.0912 13.652
20.1064 13.605
20.1215 13.633
20.1367 13.406
20.1519 13.355
20.1671 13.312
20.1822 12.899
20.1974 12.717
20.2126 12.921
20.2278 12.776
20.2429 12.637
20.2581 12.509
20.2733 12.079
20.2885 11.975
20.3036 12.176
20.3188 12.156
20.3340 11.956
20.3492 11.991
20.3643 11.970
20.3795 11.990
20.3947 12.058
20.4099 12.118
20.4250 11.977
20.4402 11.991
20.4554 11.820
20.4706 11.591
20.4857 11.855
20.5009 11.893
20.5161 11.792
20.5313 11.761
20.5464 11.772
20.5616 11.482
20.5768 11.413
20.5920 11.268
20.6071 11.260
20.6223 11.101
20.6375 10.940
20.6527 11.188
20.6678 11.007
20.6830 10.614
20.6982 10.425
20.7134 10.563
20.7285 10.493
20.7437 10.494
20.7589 10.442
20.7741 10.584
20.7892 10.535
20.8044 10.764
20.8196 10.381
20.8348 10.104
20.8499 10.397
20.8651 10.446
20.8803 10.253
20.8955 10.302
20.9106 10.319
20.9258 10.420
20.9410 10.351
20.9562 10.154
20.9713 9.750
20.9865 10.072
21.0017 10.024
21.0169 9.996
21.0320 9.911
21.0472 10.231
21.0624 9.956
21.0776 10.159
21.0927 9.965
21.1079 9.736
21.1231 10.018
21.1383 9.674
21.1534 9.941
21.1686 10.008
21.1838 9.733
21.1990 9.845
21.2141 9.725
21.2293 9.602
21.2445 9.652
21.2597 9.785
21.2748 9.800
21.2900 10.055
21.3052 9.818
21.3204 9.749
21.3355 9.514
21.3507 9.373
21.3659 9.395
21.3811 9.730
21.3962 9.572
21.4114 9.638
21.4266 9.583
21.4418 9.521
21.4569 9.450
21.4721 9.366
21.4873 9.179
21.5025 9.400
21.5176 9.436
21.5328 9.206
21.5480 9.316
21.5632 9.378
21.5783 9.563
21.5935 9.451
21.6087 9.459
21.6239 9.255
21.6390 9.158
21.6542 9.046
21.6694 9.038
21.6846 9.215
21.6997 9.276
21.7149 9.002
21.7301 8.831
21.7453 8.819
21.7604 8.904
21.7756 8.998
21.7908 9.055
21.8060 9.043
21.8211 8.937
21.8363 9.066
21.8515 9.109
21.8667 9.000
21.8818 9.045
21.8970 9.091
21.9122 9.081
21.9274 9.121
21.9425 8.985
21.9577 8.841
21.9729 8.763
21.9881 8.862
22.0032 9.140
22.0184 9.019
22.0336 9.021
22.0488 8.913
22.0639 8.860
22.0791 8.873
22.0943 8.663
22.1095 8.599
22.1246 8.749
22.1398 8.592
22.1550 8.660
22.1702 8.809
22.1853 8.717
22.2005 8.681
22.2157 8.456
22.2309 8.431
22.2460 8.626
22.2612 8.693
22.2764 8.598
22.2916 8.474
22.3067 8.417
22.3219 8.312
22.3371 8.480
22.3523 8.605
22.3674 8.615
22.3826 8.530
22.3978 8.278
22.4130 8.596
22.4281 8.492
22.4433 8.350
22.4585 8.553
22.4737 8.589
22.4888 8.404
22.5040 8.327
22.5192 8.250
22.5344 8.280
22.5495 8.468
22.5647 8.481
22.5799 8.317
22.5951 8.335
22.6102 8.202
22.6254 8.302
22.6406 8.260
22.6558 8.713
22.6709 8.475
22.6861 8.591
22.7013 8.222
22.7165 7.830
22.7316 6.392
