'Id: "" Comment: "" Operator: "Lab Manager" Anode: "Mo" Scantype: "Still (Eiger2R_500K (1D mode))" TimePerStep: "300" X: "11.8" Y: "9.4" Z: "11.284" 
7.2532 18.790
7.2684 18.900
7.2836 18.441
7.2987 18.916
7.3139 18.738
7.3291 19.057
7.3443 19.270
7.3594 19.458
7.3746 19.420
7.3898 19.311
7.4050 19.565
7.4201 19.080
7.4353 19.419
7.4505 19.418
7.4657 19.174
7.4808 19.455
7.4960 19.700
7.5112 19.640
7.5264 19.778
7.5415 20.016
7.5567 20.274
7.5719 19.831
7.5871 19.673
7.6022 20.070
7.6174 20.374
7.6326 20.282
7.6478 20.495
7.6629 20.028
7.6781 20.171
7.6933 20.564
7.7085 20.882
7.7236 20.440
7.7388 20.351
7.7540 20.453
7.7692 20.410
7.7843 20.676
7.7995 20.792
7.8147 20.650
7.8299 20.631
7.8450 20.520
7.8602 20.709
7.8754 20.900
7.8905 21.009
7.9057 21.222
7.9209 21.173
7.9361 21.108
7.9512 20.948
7.9664 20.863
7.9816 21.193
7.9968 21.007
8.0119 20.764
8.0271 21.348
8.0423 21.668
8.0575 21.144
8.0726 21.587
8.0878 21.834
8.1030 21.127
8.1182 21.351
8.1333 21.443
8.1485 21.377
8.1637 20.919
8.1789 21.125
8.1940 21.490
8.2092 21.359
8.2244 21.421
8.2396 21.586
8.2547 21.874
8.2699 22.377
8.2851 21.905
8.3003 21.960
8.3154 22.037
8.3306 21.913
8.3458 22.099
8.3610 22.234
8.3761 22.001
8.3913 22.192
8.4065 22.170
8.4217 22.392
8.4368 22.783
8.4520 22.601
8.4672 21.993
8.4824 21.877
8.4975 22.070
8.5127 22.190
8.5279 22.040
8.5431 22.098
8.5582 22.247
8.5734 22.701
8.5886 22.732
8.6038 22.494
8.6189 22.366
8.6341 22.623
8.6493 22.470
8.6645 22.619
8.6796 22.628
8.6948 23.157
8.7100 23.304
8.7252 23.251
8.7403 22.746
8.7555 22.390
8.7707 22.626
8.7859 22.513
8.8010 22.720
8.8162 22.561
8.8314 22.744
8.8466 22.494
8.8617 22.649
8.8769 22.614
8.8921 22.489
8.9073 22.814
8.9224 22.451
8.9376 22.675
8.9528 22.972
8.9680 22.469
8.9831 22.825
8.9983 23.024
9.0135 22.907
9.0287 22.915
9.0438 22.787
9.0590 23.183
9.0742 22.578
9.0894 22.986
9.1045 22.973
9.1197 23.187
9.1349 23.007
9.1501 22.910
9.1652 22.898
9.1804 22.849
9.1956 22.926
9.2108 23.097
9.2259 22.934
9.2411 23.107
9.2563 23.152
9.2715 22.996
9.2866 23.171
9.3018 23.048
9.3170 23.157
9.3322 23.231
9.3473 23.369
9.3625 23.366
9.3777 23.303
9.3929 23.372
9.4080 23.045
9.4232 23.118
9.4384 22.988
9.4536 23.091
9.4687 23.202
9.4839 23.004
9.4991 23.258
9.5143 23.347
9.5294 23.278
9.5446 23.309
9.5598 23.494
9.5750 23.425
9.5901 23.327
9.6053 23.544
9.6205 23.365
9.6357 23.273
9.6508 23.465
9.6660 23.504
9.6812 23.733
9.6964 23.705
9.7115 23.976
9.7267 24.018
9.7419 24.077
9.7571 24.260
9.7722 24.203
9.7874 24.017
9.8026 23.860
9.8178 23.719
9.8329 23.837
9.8481 23.608
9.8633 23.289
9.8785 23.491
9.8936 23.505
9.9088 23.294
9.9240 23.053
9.9392 23.303
9.9543 23.402
9.9695 23.440
9.9847 23.463
9.9999 23.658
10.0150 23.410
10.0302 22.901
10.0454 23.594
10.0606 23.597
10.0757 23.234
10.0909 23.446
10.1061 23.629
10.1213 23.520
10.1364 23.223
10.1516 23.240
10.1668 23.422
10.1820 23.506
10.1971 23.991
10.2123 24.171
10.2275 23.852
10.2427 23.816
10.2578 23.854
10.2730 23.655
10.2882 23.600
10.3034 23.509
10.3185 22.948
10.3337 22.844
10.3489 22.968
10.3641 23.151
10.3792 23.100
10.3944 22.703
10.4096 22.612
10.4248 22.920
10.4399 22.882
10.4551 22.728
10.4703 22.598
10.4855 22.783
10.5006 22.582
10.5158 22.413
10.5310 22.554
10.5462 22.429
10.5613 22.479
10.5765 22.470
10.5917 23.291
10.6069 23.371
10.6220 22.957
10.6372 22.402
10.6524 22.386
10.6676 22.485
10.6827 22.836
10.6979 22.492
10.7131 22.721
10.7283 22.607
10.7434 22.890
10.7586 23.028
10.7738 22.370
10.7890 22.293
10.8041 22.711
10.8193 22.411
10.8345 22.183
10.8497 22.320
10.8648 21.868
10.8800 22.065
10.8952 22.315
10.9104 22.194
10.9255 22.036
10.9407 22.167
10.9559 22.142
10.9711 22.182
10.9862 22.125
11.0014 21.961
11.0166 21.971
11.0318 22.063
11.0469 21.779
11.0621 21.766
11.0773 21.852
11.0925 21.933
11.1076 22.173
11.1228 22.181
11.1380 21.998
11.1532 21.916
11.1683 21.887
11.1835 21.824
11.1987 21.802
11.2139 21.761
11.2290 22.219
11.2442 22.057
11.2594 21.756
11.2746 21.943
11.2897 21.919
11.3049 22.132
11.3201 21.876
11.3353 21.352
11.3504 21.270
11.3656 21.322
11.3808 21.424
11.3960 21.662
11.4111 21.664
11.4263 21.464
11.4415 21.164
11.4567 21.388
11.4718 21.371
11.4870 21.209
11.5022 21.372
11.5174 21.503
11.5325 21.448
11.5477 21.360
11.5629 21.117
11.5781 20.910
11.5932 20.959
11.6084 20.553
11.6236 20.620
11.6388 21.128
11.6539 21.067
11.6691 20.711
11.6843 20.603
11.6995 20.562
11.7146 20.353
11.7298 20.410
11.7450 20.557
11.7602 20.261
11.7753 20.607
11.7905 20.506
11.8057 20.024
11.8209 20.033
11.8360 19.975
11.8512 19.805
11.8664 19.914
11.8816 19.707
11.8967 19.637
11.9119 19.842
11.9271 19.727
11.9423 19.872
11.9574 19.762
11.9726 19.501
11.9878 19.613
12.0030 19.602
12.0181 19.494
12.0333 19.191
12.0485 19.064
12.0637 18.911
12.0788 19.058
12.0940 18.972
12.1092 18.694
12.1244 18.460
12.1395 18.687
12.1547 18.711
12.1699 18.728
12.1851 18.834
12.2002 18.389
12.2154 18.117
12.2306 18.187
12.2458 18.251
12.2609 18.104
12.2761 18.026
12.2913 18.366
12.3065 18.262
12.3216 17.901
12.3368 17.437
12.3520 17.354
12.3672 17.374
12.3823 17.633
12.3975 17.139
12.4127 17.187
12.4279 17.253
12.4430 16.989
12.4582 17.191
12.4734 17.120
12.4886 17.182
12.5037 17.403
12.5189 16.869
12.5341 16.712
12.5493 16.820
12.5644 16.705
12.5796 16.583
12.5948 16.538
12.6100 16.361
12.6251 16.344
12.6403 16.201
12.6555 15.930
12.6707 15.801
12.6858 15.731
12.7010 15.978
12.7162 15.979
12.7314 15.721
12.7465 15.719
12.7617 15.617
12.7769 15.548
12.7921 15.381
12.8072 15.358
12.8224 15.361
12.8376 15.190
12.8528 14.969
12.8679 15.067
12.8831 15.173
12.8983 15.186
12.9135 15.007
12.9286 14.693
12.9438 14.502
12.9590 14.605
12.9742 14.688
12.9893 14.508
13.0045 14.376
13.0197 14.224
13.0349 14.111
13.0500 14.307
13.0652 14.193
13.0804 13.861
13.0956 13.892
13.1107 13.822
13.1259 13.908
13.1411 13.883
13.1563 13.704
13.1714 13.752
13.1866 13.727
13.2018 13.483
13.2170 13.412
13.2321 13.588
13.2473 13.475
13.2625 13.306
13.2777 13.295
13.2928 13.350
13.3080 13.323
13.3232 13.229
13.3384 13.286
13.3535 13.410
13.3687 13.202
13.3839 12.935
13.3991 12.775
13.4142 12.809
13.4294 12.793
13.4446 12.757
13.4598 12.911
13.4749 12.695
13.4901 12.464
13.5053 12.474
13.5205 12.617
13.5356 12.740
13.5508 12.483
13.5660 12.439
13.5812 12.316
13.5963 12.362
13.6115 12.259
13.6267 12.371
13.6419 12.405
13.6570 12.284
13.6722 12.324
13.6874 12.078
13.7026 12.032
13.7177 12.197
13.7329 12.187
13.7481 11.990
13.7633 12.224
13.7784 12.436
13.7936 12.258
13.8088 12.128
13.8239 12.326
13.8391 12.466
13.8543 12.330
13.8695 12.339
13.8846 12.311
13.8998 12.069
13.9150 12.118
13.9302 12.206
13.9453 12.024
13.9605 12.249
13.9757 11.872
13.9909 11.590
14.0060 11.663
14.0212 11.545
14.0364 11.471
14.0516 11.789
14.0667 11.595
14.0819 11.612
14.0971 11.680
14.1123 11.702
14.1274 11.685
14.1426 11.361
14.1578 11.176
14.1730 11.676
14.1881 11.781
14.2033 11.802
14.2185 12.103
14.2337 11.840
14.2488 11.863
14.2640 11.887
14.2792 11.870
14.2944 12.000
14.3095 12.071
14.3247 12.277
14.3399 12.294
14.3551 12.610
14.3702 12.489
14.3854 12.943
14.4006 13.095
14.4158 12.900
14.4309 12.629
14.4461 12.639
14.4613 12.216
14.4765 12.002
14.4916 12.197
14.5068 11.780
14.5220 11.370
14.5372 11.684
14.5523 11.063
14.5675 11.491
14.5827 11.660
14.5979 11.407
14.6130 11.183
14.6282 11.083
14.6434 11.185
14.6586 11.256
14.6737 11.189
14.6889 10.941
14.7041 10.885
14.7193 10.954
14.7344 10.907
14.7496 11.052
14.7648 10.848
14.7800 10.880
14.7951 10.798
14.8103 10.536
14.8255 10.552
14.8407 10.505
14.8558 10.582
14.8710 10.526
14.8862 10.213
14.9014 10.765
14.9165 10.808
14.9317 10.911
14.9469 10.706
14.9621 10.795
14.9772 10.604
14.9924 10.697
15.0076 10.384
15.0228 10.348
15.0379 10.725
15.0531 10.556
15.0683 10.622
15.0835 10.220
15.0986 10.245
15.1138 10.680
15.1290 10.548
15.1442 10.323
15.1593 10.723
15.1745 10.577
15.1897 10.512
15.2049 10.130
15.2200 10.065
15.2352 10.685
15.2504 10.711
15.2656 10.373
15.2807 10.001
15.2959 10.361
15.3111 10.184
15.3263 10.358
15.3414 10.456
15.3566 10.278
15.3718 10.303
15.3870 10.513
15.4021 10.328
15.4173 10.342
15.4325 10.688
15.4477 10.421
15.4628 10.710
15.4780 10.643
15.4932 10.282
15.5084 10.285
15.5235 10.472
15.5387 10.307
15.5539 10.228
15.5691 10.478
15.5842 10.300
15.5994 10.208
15.6146 9.953
15.6298 10.054
15.6449 10.116
15.6601 9.909
15.6753 10.101
15.6905 9.948
15.7056 9.830
15.7208 10.006
15.7360 9.692
15.7512 9.717
15.7663 10.106
15.7815 10.128
15.7967 10.066
15.8119 9.902
15.8270 9.891
15.8422 9.810
15.8574 9.707
15.8726 9.947
15.8877 9.906
15.9029 9.828
15.9181 9.670
15.9333 9.699
15.9484 9.961
15.9636 9.965
15.9788 9.984
15.9940 9.648
16.0091 9.836
16.0243 10.284
16.0395 10.017
16.0547 9.539
16.0698 9.746
16.0850 9.781
16.1002 9.578
16.1154 9.517
16.1305 9.924
16.1457 9.777
16.1609 9.738
16.1761 9.772
16.1912 9.745
16.2064 9.846
16.2216 9.996
16.2368 9.948
16.2519 10.129
16.2671 9.986
16.2823 10.054
16.2975 10.341
16.3126 10.062
16.3278 10.210
16.3430 10.090
16.3582 10.163
16.3733 10.073
16.3885 10.074
16.4037 10.289
16.4189 10.062
16.4340 9.946
16.4492 9.975
16.4644 9.894
16.4796 9.939
16.4947 9.905
16.5099 9.949
16.5251 10.081
16.5403 9.820
16.5554 9.782
16.5706 9.664
16.5858 9.361
16.6010 9.343
16.6161 9.584
16.6313 9.986
16.6465 10.124
16.6617 9.928
16.6768 10.068
16.6920 10.360
16.7072 10.045
16.7224 9.825
16.7375 10.155
16.7527 10.030
16.7679 9.914
16.7831 9.995
16.7982 10.133
16.8134 10.027
16.8286 9.948
16.8438 9.914
16.8589 9.867
16.8741 9.904
16.8893 9.888
16.9045 10.080
16.9196 9.912
16.9348 9.802
16.9500 9.736
16.9652 9.648
16.9803 9.680
16.9955 9.934
17.0107 10.069
17.0259 10.147
17.0410 9.924
17.0562 10.026
17.0714 10.287
17.0866 10.340
17.1017 10.481
17.1169 10.780
17.1321 11.237
17.1473 11.482
17.1624 12.016
17.1776 12.581
17.1928 13.123
17.2080 13.952
17.2231 15.075
17.2383 16.601
17.2535 17.986
17.2687 18.830
17.2838 18.927
17.2990 18.320
17.3142 17.294
17.3294 16.605
17.3445 16.399
17.3597 16.333
17.3749 16.046
17.3901 15.334
17.4052 14.301
17.4204 13.504
17.4356 12.920
17.4508 12.132
17.4659 11.720
17.4811 11.651
17.4963 11.699
17.5115 11.686
17.5266 11.462
17.5418 11.227
17.5570 11.295
17.5722 11.497
17.5873 11.512
17.6025 11.478
17.6177 11.284
17.6329 11.041
17.6480 10.808
17.6632 10.591
17.6784 10.705
17.6936 10.972
17.7087 10.730
17.7239 10.382
17.7391 10.633
17.7543 10.638
17.7694 10.283
17.7846 10.164
17.7998 10.174
17.8150 10.071
17.8301 10.158
17.8453 10.094
17.8605 10.258
17.8757 10.388
17.8908 10.339
17.9060 10.463
17.9212 10.479
17.9364 10.198
17.9515 10.161
17.9667 10.347
17.9819 10.197
17.9971 10.261
18.0122 10.322
18.0274 10.453
18.0426 10.418
18.0578 10.239
18.0729 10.121
18.0881 10.085
18.1033 10.128
18.1185 9.992
18.1336 9.942
18.1488 9.908
18.1640 9.901
18.1792 10.056
18.1943 10.191
18.2095 10.131
18.2247 10.027
18.2399 9.877
18.2550 9.953
18.2702 9.892
18.2854 9.585
18.3006 9.742
18.3157 10.138
18.3309 9.985
18.3461 9.659
18.3613 10.017
18.3764 9.891
18.3916 9.973
18.4068 9.993
18.4220 9.855
18.4371 9.714
18.4523 9.677
18.4675 9.719
18.4827 9.960
18.4978 10.004
18.5130 9.831
18.5282 9.832
18.5434 9.925
18.5585 9.822
18.5737 9.840
18.5889 9.731
18.6041 9.574
18.6192 9.706
18.6344 9.821
18.6496 9.930
18.6648 9.674
18.6799 9.677
18.6951 9.731
18.7103 9.685
18.7255 9.594
18.7406 9.657
18.7558 9.940
18.7710 10.078
18.7862 10.071
18.8013 9.822
18.8165 9.735
18.8317 9.885
18.8469 10.023
18.8620 10.230
18.8772 10.322
18.8924 9.925
18.9076 9.734
18.9227 9.857
18.9379 9.748
18.9531 10.184
18.9683 10.229
18.9834 10.295
18.9986 10.223
19.0138 9.976
19.0290 10.012
19.0441 10.237
19.0593 10.062
19.0745 10.103
19.0897 10.280
19.1048 10.413
19.1200 10.504
19.1352 10.414
19.1504 10.355
19.1655 10.530
19.1807 10.713
19.1959 10.688
19.2111 10.696
19.2262 10.840
19.2414 10.893
19.2566 10.941
19.2718 10.750
19.2869 10.776
19.3021 10.922
19.3173 11.078
19.3325 10.996
19.3476 11.062
19.3628 11.147
19.3780 10.992
19.3932 11.111
19.4083 11.262
19.4235 11.383
19.4387 11.521
19.4539 11.101
19.4690 10.824
19.4842 11.155
19.4994 11.219
19.5146 11.327
19.5297 11.565
19.5449 11.340
19.5601 11.369
19.5753 11.580
19.5904 11.545
19.6056 11.536
19.6208 11.653
19.6360 11.656
19.6511 11.701
19.6663 11.732
19.6815 11.788
19.6967 11.907
19.7118 11.703
19.7270 11.696
19.7422 11.791
19.7574 11.795
19.7725 11.785
19.7877 11.763
19.8029 11.700
19.8180 11.894
19.8332 12.109
19.8484 12.060
19.8636 12.478
19.8787 12.648
19.8939 12.702
19.9091 13.035
19.9243 13.385
19.9394 13.553
19.9546 13.856
19.9698 14.349
19.9850 14.392
20.0001 14.281
20.0153 14.228
20.0305 14.071
20.0457 13.922
20.0608 13.966
20.0760 13.761
20.0912 13.645
20.1064 13.917
20.1215 13.528
20.1367 12.829
20.1519 12.914
20.1671 13.210
20.1822 12.820
20.1974 12.765
20.2126 13.079
20.2278 12.906
20.2429 12.666
20.2581 12.513
20.2733 12.324
20.2885 11.974
20.3036 11.850
20.3188 11.605
20.3340 11.623
20.3492 11.715
20.3643 11.800
20.3795 11.631
20.3947 11.371
20.4099 11.063
20.4250 10.984
20.4402 10.831
20.4554 10.738
20.4706 10.619
20.4857 10.770
20.5009 10.628
20.5161 10.769
20.5313 10.861
20.5464 10.874
20.5616 10.752
20.5768 11.004
20.5920 10.678
20.6071 10.796
20.6223 10.806
20.6375 10.750
20.6527 10.831
20.6678 10.783
20.6830 10.291
20.6982 10.502
20.7134 10.393
20.7285 10.615
20.7437 10.625
20.7589 10.429
20.7741 10.380
20.7892 10.363
20.8044 9.967
20.8196 10.239
20.8348 10.197
20.8499 10.315
20.8651 10.270
20.8803 10.327
20.8955 10.351
20.9106 10.323
20.9258 10.446
20.9410 10.240
20.9562 10.244
20.9713 10.238
20.9865 9.847
21.0017 10.051
21.0169 10.007
21.0320 9.698
21.0472 10.201
21.0624 9.743
21.0776 10.085
21.0927 10.107
21.1079 9.943
21.1231 9.934
21.1383 9.613
21.1534 9.818
21.1686 9.562
21.1838 9.944
21.1990 9.710
21.2141 9.870
21.2293 9.630
21.2445 9.513
21.2597 9.358
21.2748 9.716
21.2900 9.768
21.3052 9.601
21.3204 9.734
21.3355 9.894
21.3507 9.556
21.3659 9.535
21.3811 9.639
21.3962 9.600
21.4114 9.418
21.4266 9.531
21.4418 9.418
21.4569 9.433
21.4721 9.376
21.4873 9.333
21.5025 9.453
21.5176 9.419
21.5328 9.395
21.5480 9.362
21.5632 9.200
21.5783 9.312
21.5935 9.451
21.6087 9.067
21.6239 9.143
21.6390 9.185
21.6542 9.226
21.6694 9.206
21.6846 9.102
21.6997 9.184
21.7149 9.090
21.7301 9.113
21.7453 9.034
21.7604 8.955
21.7756 9.151
21.7908 9.008
21.8060 8.854
21.8211 9.088
21.8363 9.116
21.8515 9.146
21.8667 9.082
21.8818 9.033
21.8970 9.143
21.9122 9.111
21.9274 8.905
21.9425 8.857
21.9577 8.954
21.9729 8.700
21.9881 8.679
22.0032 8.873
22.0184 8.810
22.0336 8.838
22.0488 8.660
22.0639 8.732
22.0791 9.030
22.0943 8.910
22.1095 8.769
22.1246 8.858
22.1398 8.709
22.1550 8.707
22.1702 8.816
22.1853 8.620
22.2005 8.541
22.2157 8.483
22.2309 8.518
22.2460 8.551
22.2612 8.400
22.2764 8.475
22.2916 8.458
22.3067 8.501
22.3219 8.586
22.3371 8.537
22.3523 8.717
22.3674 8.736
22.3826 8.741
22.3978 8.632
22.4130 8.262
22.4281 8.601
22.4433 8.393
22.4585 8.286
22.4737 8.611
22.4888 8.304
22.5040 8.285
22.5192 8.665
22.5344 8.456
22.5495 8.781
22.5647 8.398
22.5799 8.532
22.5951 8.594
22.6102 8.600
22.6254 8.518
22.6406 8.428
22.6558 8.375
22.6709 8.449
22.6861 8.288
22.7013 8.286
22.7165 8.029
22.7316 6.393
