'Id: "" Comment: "" Operator: "Lab Manager" Anode: "Mo" Scantype: "Still (Eiger2R_500K (1D mode))" TimePerStep: "300" X: "11.8" Y: "9.4" Z: "11.284" 
7.2532 19.208
7.2684 18.836
7.2836 18.665
7.2987 18.606
7.3139 18.925
7.3291 19.154
7.3443 19.343
7.3594 19.473
7.3746 19.615
7.3898 19.040
7.4050 18.931
7.4201 19.861
7.4353 19.078
7.4505 19.448
7.4657 19.840
7.4808 19.886
7.4960 19.462
7.5112 19.825
7.5264 19.852
7.5415 19.783
7.5567 20.192
7.5719 20.043
7.5871 19.991
7.6022 20.134
7.6174 20.339
7.6326 20.197
7.6478 20.044
7.6629 19.964
7.6781 19.929
7.6933 20.193
7.7085 20.480
7.7236 20.306
7.7388 20.295
7.7540 20.494
7.7692 20.713
7.7843 20.751
7.7995 20.737
7.8147 20.669
7.8299 20.414
7.8450 20.634
7.8602 20.924
7.8754 20.746
7.8905 20.471
7.9057 20.656
7.9209 20.714
7.9361 20.673
7.9512 20.766
7.9664 21.096
7.9816 20.899
7.9968 21.109
8.0119 21.307
8.0271 21.337
8.0423 21.306
8.0575 20.908
8.0726 21.367
8.0878 21.175
8.1030 21.458
8.1182 21.466
8.1333 21.758
8.1485 21.529
8.1637 21.463
8.1789 21.601
8.1940 21.568
8.2092 21.650
8.2244 21.795
8.2396 21.762
8.2547 21.748
8.2699 21.829
8.2851 21.879
8.3003 22.279
8.3154 21.791
8.3306 21.754
8.3458 21.448
8.3610 21.552
8.3761 21.519
8.3913 21.745
8.4065 21.896
8.4217 22.149
8.4368 22.049
8.4520 21.702
8.4672 21.442
8.4824 22.187
8.4975 22.410
8.5127 22.247
8.5279 21.912
8.5431 22.303
8.5582 22.007
8.5734 22.156
8.5886 22.685
8.6038 22.562
8.6189 22.173
8.6341 22.662
8.6493 22.958
8.6645 22.020
8.6796 22.816
8.6948 22.296
8.7100 22.847
8.7252 21.798
8.7403 22.024
8.7555 22.126
8.7707 22.425
8.7859 22.279
8.8010 22.138
8.8162 22.407
8.8314 22.439
8.8466 22.341
8.8617 22.770
8.8769 22.798
8.8921 22.756
8.9073 22.329
8.9224 22.580
8.9376 23.172
8.9528 22.803
8.9680 22.380
8.9831 22.778
8.9983 22.597
9.0135 22.632
9.0287 22.429
9.0438 22.720
9.0590 22.552
9.0742 23.033
9.0894 23.029
9.1045 22.953
9.1197 22.587
9.1349 22.490
9.1501 22.633
9.1652 22.815
9.1804 22.743
9.1956 22.725
9.2108 23.076
9.2259 22.793
9.2411 22.994
9.2563 22.991
9.2715 22.733
9.2866 23.131
9.3018 23.264
9.3170 22.961
9.3322 23.061
9.3473 22.793
9.3625 23.031
9.3777 23.226
9.3929 23.096
9.4080 22.834
9.4232 23.059
9.4384 23.007
9.4536 23.264
9.4687 23.327
9.4839 23.099
9.4991 23.132
9.5143 23.176
9.5294 23.086
9.5446 23.614
9.5598 23.708
9.5750 23.215
9.5901 23.476
9.6053 23.319
9.6205 23.351
9.6357 23.527
9.6508 23.395
9.6660 23.618
9.6812 23.953
9.6964 24.016
9.7115 23.897
9.7267 23.855
9.7419 24.097
9.7571 23.981
9.7722 24.125
9.7874 24.123
9.8026 23.977
9.8178 23.856
9.8329 23.629
9.8481 23.483
9.8633 23.248
9.8785 23.363
9.8936 23.858
9.9088 24.023
9.9240 23.656
9.9392 23.467
9.9543 23.238
9.9695 23.320
9.9847 23.665
9.9999 23.536
10.0150 23.457
10.0302 23.082
10.0454 23.241
10.0606 23.212
10.0757 23.145
10.0909 23.119
10.1061 23.387
10.1213 23.277
10.1364 23.027
10.1516 23.118
10.1668 23.562
10.1820 23.243
10.1971 23.313
10.2123 23.287
10.2275 23.126
10.2427 23.122
10.2578 23.031
10.2730 23.274
10.2882 23.317
10.3034 23.365
10.3185 23.145
10.3337 22.960
10.3489 23.152
10.3641 23.018
10.3792 22.657
10.3944 22.786
10.4096 23.067
10.4248 22.921
10.4399 22.790
10.4551 22.800
10.4703 22.944
10.4855 22.822
10.5006 22.669
10.5158 22.457
10.5310 22.514
10.5462 22.396
10.5613 22.392
10.5765 22.904
10.5917 22.832
10.6069 22.587
10.6220 22.798
10.6372 22.680
10.6524 22.829
10.6676 22.503
10.6827 22.407
10.6979 22.826
10.7131 22.528
10.7283 22.155
10.7434 22.164
10.7586 22.694
10.7738 22.550
10.7890 22.556
10.8041 22.383
10.8193 22.468
10.8345 22.496
10.8497 22.063
10.8648 21.868
10.8800 22.496
10.8952 22.224
10.9104 22.056
10.9255 22.296
10.9407 22.269
10.9559 22.207
10.9711 22.133
10.9862 22.120
11.0014 22.087
11.0166 22.361
11.0318 22.521
11.0469 22.296
11.0621 21.549
11.0773 21.614
11.0925 22.224
11.1076 21.976
11.1228 21.753
11.1380 21.887
11.1532 21.904
11.1683 21.965
11.1835 21.653
11.1987 21.481
11.2139 21.631
11.2290 21.900
11.2442 21.971
11.2594 21.785
11.2746 21.488
11.2897 21.713
11.3049 21.567
11.3201 21.525
11.3353 21.249
11.3504 21.593
11.3656 21.579
11.3808 21.539
11.3960 21.162
11.4111 21.055
11.4263 21.390
11.4415 21.021
11.4567 21.121
11.4718 21.087
11.4870 21.203
11.5022 21.096
11.5174 21.251
11.5325 21.365
11.5477 21.334
11.5629 21.305
11.5781 21.078
11.5932 20.961
11.6084 20.899
11.6236 20.976
11.6388 20.859
11.6539 20.864
11.6691 20.743
11.6843 20.601
11.6995 20.832
11.7146 20.869
11.7298 20.346
11.7450 20.285
11.7602 20.547
11.7753 20.468
11.7905 20.020
11.8057 20.334
11.8209 19.946
11.8360 19.608
11.8512 19.921
11.8664 19.912
11.8816 19.976
11.8967 19.889
11.9119 19.708
11.9271 19.745
11.9423 19.973
11.9574 19.685
11.9726 19.429
11.9878 19.593
12.0030 19.423
12.0181 19.081
12.0333 18.997
12.0485 18.997
12.0637 19.035
12.0788 18.935
12.0940 18.865
12.1092 19.032
12.1244 18.691
12.1395 18.588
12.1547 18.710
12.1699 18.626
12.1851 18.437
12.2002 18.288
12.2154 18.384
12.2306 18.362
12.2458 18.369
12.2609 18.056
12.2761 17.813
12.2913 17.635
12.3065 17.539
12.3216 17.959
12.3368 17.861
12.3520 17.652
12.3672 17.621
12.3823 17.513
12.3975 17.353
12.4127 17.164
12.4279 17.380
12.4430 17.239
12.4582 16.986
12.4734 17.147
12.4886 16.934
12.5037 16.863
12.5189 16.765
12.5341 16.544
12.5493 16.347
12.5644 16.232
12.5796 16.265
12.5948 16.224
12.6100 16.259
12.6251 16.165
12.6403 15.971
12.6555 15.835
12.6707 15.891
12.6858 15.573
12.7010 15.516
12.7162 15.438
12.7314 15.276
12.7465 15.502
12.7617 15.629
12.7769 15.205
12.7921 14.834
12.8072 15.225
12.8224 15.617
12.8376 15.377
12.8528 15.194
12.8679 15.182
12.8831 14.967
12.8983 14.839
12.9135 14.907
12.9286 14.778
12.9438 14.743
12.9590 14.431
12.9742 14.475
12.9893 14.680
13.0045 14.501
13.0197 14.430
13.0349 14.341
13.0500 14.384
13.0652 14.308
13.0804 14.064
13.0956 14.029
13.1107 14.022
13.1259 13.792
13.1411 13.668
13.1563 13.717
13.1714 13.685
13.1866 13.706
13.2018 13.575
13.2170 13.389
13.2321 13.325
13.2473 13.158
13.2625 13.288
13.2777 13.532
13.2928 13.382
13.3080 13.305
13.3232 13.295
13.3384 13.151
13.3535 13.208
13.3687 13.244
13.3839 13.095
13.3991 13.026
13.4142 13.023
13.4294 12.983
13.4446 12.901
13.4598 12.776
13.4749 12.638
13.4901 12.622
13.5053 12.667
13.5205 12.690
13.5356 12.642
13.5508 12.517
13.5660 12.510
13.5812 12.604
13.5963 12.361
13.6115 12.547
13.6267 12.472
13.6419 12.281
13.6570 12.219
13.6722 12.023
13.6874 11.962
13.7026 12.146
13.7177 12.337
13.7329 12.085
13.7481 12.224
13.7633 12.173
13.7784 12.166
13.7936 12.141
13.8088 12.229
13.8239 12.272
13.8391 12.170
13.8543 12.441
13.8695 12.485
13.8846 12.540
13.8998 12.421
13.9150 12.327
13.9302 12.113
13.9453 11.956
13.9605 12.194
13.9757 12.119
13.9909 11.794
14.0060 11.389
14.0212 11.616
14.0364 11.786
14.0516 11.659
14.0667 11.560
14.0819 11.327
14.0971 11.590
14.1123 11.617
14.1274 11.349
14.1426 11.407
14.1578 11.642
14.1730 11.803
14.1881 11.458
14.2033 11.533
14.2185 11.559
14.2337 11.459
14.2488 11.277
14.2640 11.386
14.2792 11.354
14.2944 11.452
14.3095 11.522
14.3247 11.862
14.3399 11.862
14.3551 12.051
14.3702 12.091
14.3854 12.546
14.4006 12.335
14.4158 12.393
14.4309 12.540
14.4461 12.489
14.4613 12.476
14.4765 12.268
14.4916 12.068
14.5068 12.183
14.5220 11.756
14.5372 11.918
14.5523 11.874
14.5675 11.417
14.5827 11.477
14.5979 11.233
14.6130 10.929
14.6282 11.118
14.6434 10.791
14.6586 11.050
14.6737 11.157
14.6889 11.187
14.7041 11.129
14.7193 11.212
14.7344 11.246
14.7496 11.424
14.7648 11.009
14.7800 11.051
14.7951 10.923
14.8103 10.893
14.8255 10.709
14.8407 10.742
14.8558 10.936
14.8710 10.725
14.8862 10.402
14.9014 10.736
14.9165 10.950
14.9317 10.761
14.9469 10.841
14.9621 10.833
14.9772 10.756
14.9924 10.512
15.0076 10.673
15.0228 10.478
15.0379 10.184
15.0531 10.410
15.0683 10.845
15.0835 10.500
15.0986 10.460
15.1138 10.544
15.1290 10.567
15.1442 10.491
15.1593 10.344
15.1745 10.639
15.1897 10.532
15.2049 10.313
15.2200 10.208
15.2352 10.482
15.2504 10.330
15.2656 10.340
15.2807 10.398
15.2959 10.440
15.3111 10.278
15.3263 10.048
15.3414 10.299
15.3566 10.115
15.3718 10.165
15.3870 10.269
15.4021 10.194
15.4173 10.280
15.4325 10.367
15.4477 10.339
15.4628 10.407
15.4780 10.740
15.4932 10.395
15.5084 10.331
15.5235 10.132
15.5387 10.278
15.5539 10.176
15.5691 10.279
15.5842 10.280
15.5994 10.273
15.6146 10.219
15.6298 10.271
15.6449 10.133
15.6601 10.156
15.6753 10.190
15.6905 10.259
15.7056 9.968
15.7208 10.102
15.7360 9.845
15.7512 9.909
15.7663 10.040
15.7815 9.777
15.7967 10.012
15.8119 10.023
15.8270 10.054
15.8422 9.962
15.8574 10.173
15.8726 9.971
15.8877 9.859
15.9029 9.594
15.9181 9.926
15.9333 9.764
15.9484 9.967
15.9636 9.769
15.9788 9.878
15.9940 10.247
16.0091 9.989
16.0243 9.941
16.0395 9.887
16.0547 9.950
16.0698 9.864
16.0850 10.073
16.1002 9.860
16.1154 9.890
16.1305 9.863
16.1457 10.008
16.1609 9.936
16.1761 9.557
16.1912 9.401
16.2064 9.673
16.2216 9.828
16.2368 9.645
16.2519 10.052
16.2671 10.259
16.2823 10.183
16.2975 10.002
16.3126 10.063
16.3278 10.190
16.3430 10.065
16.3582 10.117
16.3733 10.366
16.3885 10.242
16.4037 9.889
16.4189 9.975
16.4340 9.854
16.4492 9.859
16.4644 9.898
16.4796 9.959
16.4947 9.959
16.5099 9.922
16.5251 9.933
16.5403 9.925
16.5554 10.021
16.5706 10.045
16.5858 9.928
16.6010 9.783
16.6161 9.841
16.6313 9.870
16.6465 9.990
16.6617 9.986
16.6768 9.899
16.6920 10.065
16.7072 10.086
16.7224 10.179
16.7375 10.173
16.7527 10.035
16.7679 10.143
16.7831 10.194
16.7982 9.933
16.8134 9.977
16.8286 9.928
16.8438 9.842
16.8589 9.845
16.8741 9.743
16.8893 9.972
16.9045 10.054
16.9196 10.173
16.9348 9.678
16.9500 9.582
16.9652 9.882
16.9803 9.831
16.9955 9.968
17.0107 9.989
17.0259 9.985
17.0410 9.996
17.0562 10.079
17.0714 10.280
17.0866 10.732
17.1017 10.680
17.1169 10.590
17.1321 10.951
17.1473 11.368
17.1624 11.813
17.1776 12.455
17.1928 13.270
17.2080 14.126
17.2231 15.084
17.2383 16.257
17.2535 17.683
17.2687 18.992
17.2838 19.144
17.2990 18.078
17.3142 17.130
17.3294 16.813
17.3445 16.424
17.3597 16.242
17.3749 16.085
17.3901 15.286
17.4052 14.221
17.4204 13.346
17.4356 12.566
17.4508 11.910
17.4659 11.606
17.4811 11.483
17.4963 11.354
17.5115 11.088
17.5266 10.963
17.5418 10.627
17.5570 10.318
17.5722 10.488
17.5873 10.519
17.6025 10.403
17.6177 10.526
17.6329 10.434
17.6480 10.332
17.6632 10.446
17.6784 10.269
17.6936 10.060
17.7087 10.109
17.7239 10.280
17.7391 10.146
17.7543 10.199
17.7694 10.444
17.7846 10.485
17.7998 10.514
17.8150 10.519
17.8301 10.530
17.8453 10.749
17.8605 10.658
17.8757 10.382
17.8908 10.339
17.9060 10.518
17.9212 10.808
17.9364 10.611
17.9515 10.282
17.9667 10.504
17.9819 10.566
17.9971 10.683
18.0122 10.507
18.0274 10.232
18.0426 10.358
18.0578 10.194
18.0729 10.072
18.0881 10.080
18.1033 10.077
18.1185 10.131
18.1336 10.093
18.1488 10.025
18.1640 9.992
18.1792 10.149
18.1943 10.032
18.2095 9.987
18.2247 10.068
18.2399 9.955
18.2550 9.870
18.2702 9.850
18.2854 9.820
18.3006 10.043
18.3157 10.003
18.3309 9.778
18.3461 9.782
18.3613 9.840
18.3764 9.799
18.3916 9.690
18.4068 9.521
18.4220 9.917
18.4371 10.021
18.4523 10.037
18.4675 9.946
18.4827 9.716
18.4978 9.721
18.5130 9.820
18.5282 9.787
18.5434 9.525
18.5585 9.483
18.5737 9.659
18.5889 9.866
18.6041 10.030
18.6192 9.744
18.6344 9.683
18.6496 9.620
18.6648 9.497
18.6799 9.576
18.6951 9.695
18.7103 9.628
18.7255 9.629
18.7406 9.722
18.7558 9.654
18.7710 9.723
18.7862 9.849
18.8013 9.858
18.8165 9.682
18.8317 9.632
18.8469 9.775
18.8620 9.835
18.8772 9.995
18.8924 10.035
18.9076 10.147
18.9227 9.994
18.9379 9.967
18.9531 10.195
18.9683 10.289
18.9834 9.935
18.9986 9.854
19.0138 10.013
19.0290 10.172
19.0441 10.112
19.0593 10.230
19.0745 10.163
19.0897 10.265
19.1048 10.478
19.1200 10.463
19.1352 10.401
19.1504 10.570
19.1655 10.666
19.1807 10.526
19.1959 10.748
19.2111 10.562
19.2262 10.529
19.2414 10.657
19.2566 10.879
19.2718 10.900
19.2869 10.898
19.3021 10.826
19.3173 10.833
19.3325 11.301
19.3476 11.458
19.3628 11.261
19.3780 11.309
19.3932 11.195
19.4083 11.118
19.4235 11.375
19.4387 11.455
19.4539 11.325
19.4690 11.438
19.4842 11.444
19.4994 11.425
19.5146 11.587
19.5297 11.527
19.5449 11.454
19.5601 11.591
19.5753 11.922
19.5904 11.905
19.6056 11.773
19.6208 11.911
19.6360 11.972
19.6511 11.869
19.6663 11.785
19.6815 11.759
19.6967 11.723
19.7118 11.690
19.7270 11.887
19.7422 11.787
19.7574 11.649
19.7725 11.771
19.7877 11.824
19.8029 11.973
19.8180 12.060
19.8332 11.833
19.8484 12.071
19.8636 12.453
19.8787 12.636
19.8939 12.728
19.9091 12.996
19.9243 13.464
19.9394 13.904
19.9546 14.107
19.9698 14.220
19.9850 14.486
20.0001 14.585
20.0153 14.506
20.0305 14.057
20.0457 13.779
20.0608 13.621
20.0760 13.664
20.0912 13.828
20.1064 13.680
20.1215 13.469
20.1367 13.482
20.1519 13.187
20.1671 12.836
20.1822 12.715
20.1974 12.729
20.2126 12.535
20.2278 12.525
20.2429 12.602
20.2581 12.118
20.2733 11.818
20.2885 11.738
20.3036 11.412
20.3188 11.636
20.3340 11.678
20.3492 11.560
20.3643 11.395
20.3795 11.113
20.3947 11.073
20.4099 10.985
20.4250 11.071
20.4402 10.977
20.4554 10.878
20.4706 10.911
20.4857 10.887
20.5009 10.555
20.5161 10.559
20.5313 10.647
20.5464 10.688
20.5616 10.694
20.5768 10.598
20.5920 10.497
20.6071 10.775
20.6223 10.487
20.6375 10.341
20.6527 10.888
20.6678 10.735
20.6830 10.474
20.6982 10.568
20.7134 10.339
20.7285 10.392
20.7437 10.330
20.7589 10.149
20.7741 10.167
20.7892 10.287
20.8044 10.287
20.8196 10.596
20.8348 10.445
20.8499 10.146
20.8651 10.227
20.8803 10.289
20.8955 10.327
20.9106 10.211
20.9258 10.267
20.9410 10.443
20.9562 10.465
20.9713 10.389
20.9865 10.311
21.0017 10.051
21.0169 10.388
21.0320 10.111
21.0472 10.231
21.0624 10.399
21.0776 10.132
21.0927 9.968
21.1079 10.201
21.1231 9.581
21.1383 9.560
21.1534 9.664
21.1686 9.613
21.1838 9.831
21.1990 9.869
21.2141 9.524
21.2293 9.577
21.2445 9.892
21.2597 9.919
21.2748 9.852
21.2900 10.095
21.3052 9.256
21.3204 9.434
21.3355 9.393
21.3507 9.476
21.3659 9.658
21.3811 9.687
21.3962 9.379
21.4114 9.668
21.4266 9.577
21.4418 9.607
21.4569 9.758
21.4721 9.513
21.4873 9.314
21.5025 9.237
21.5176 9.164
21.5328 9.311
21.5480 9.015
21.5632 9.206
21.5783 8.915
21.5935 9.210
21.6087 9.330
21.6239 9.084
21.6390 8.938
21.6542 9.120
21.6694 9.132
21.6846 9.084
21.6997 9.011
21.7149 8.915
21.7301 8.884
21.7453 9.093
21.7604 9.163
21.7756 9.264
21.7908 9.179
21.8060 8.940
21.8211 9.092
21.8363 9.020
21.8515 9.072
21.8667 9.145
21.8818 9.171
21.8970 9.045
21.9122 9.045
21.9274 8.842
21.9425 8.814
21.9577 8.891
21.9729 9.060
21.9881 9.097
22.0032 9.090
22.0184 8.997
22.0336 8.888
22.0488 8.942
22.0639 8.970
22.0791 8.938
22.0943 8.889
22.1095 8.715
22.1246 8.757
22.1398 8.789
22.1550 8.603
22.1702 8.700
22.1853 9.042
22.2005 8.796
22.2157 8.633
22.2309 8.648
22.2460 8.558
22.2612 8.547
22.2764 8.645
22.2916 8.634
22.3067 8.420
22.3219 8.570
22.3371 8.599
22.3523 8.412
22.3674 8.616
22.3826 8.515
22.3978 8.580
22.4130 8.409
22.4281 8.165
22.4433 8.314
22.4585 8.484
22.4737 8.864
22.4888 8.600
22.5040 8.149
22.5192 8.528
22.5344 8.458
22.5495 8.594
22.5647 8.766
22.5799 8.544
22.5951 8.686
22.6102 8.528
22.6254 8.449
22.6406 8.457
22.6558 8.278
22.6709 8.635
22.6861 8.485
22.7013 8.191
22.7165 8.103
22.7316 6.549
