'Id: "" Comment: "" Operator: "Lab Manager" Anode: "Mo" Scantype: "Still (Eiger2R_500K (1D mode))" TimePerStep: "300" X: "11.8" Y: "9.4" Z: "11.284" 
7.2532 18.752
7.2684 18.961
7.2836 18.823
7.2987 19.179
7.3139 18.955
7.3291 19.322
7.3443 18.932
7.3594 19.501
7.3746 19.309
7.3898 19.581
7.4050 19.559
7.4201 19.327
7.4353 19.355
7.4505 19.259
7.4657 19.577
7.4808 19.527
7.4960 19.464
7.5112 19.794
7.5264 19.985
7.5415 19.763
7.5567 19.795
7.5719 19.969
7.5871 20.166
7.6022 20.110
7.6174 19.838
7.6326 20.339
7.6478 20.333
7.6629 20.092
7.6781 20.185
7.6933 20.231
7.7085 20.370
7.7236 20.300
7.7388 20.367
7.7540 20.751
7.7692 20.863
7.7843 20.482
7.7995 20.521
7.8147 20.532
7.8299 20.476
7.8450 20.421
7.8602 20.553
7.8754 20.947
7.8905 20.943
7.9057 20.896
7.9209 20.942
7.9361 21.045
7.9512 20.944
7.9664 20.443
7.9816 20.653
7.9968 21.231
8.0119 21.126
8.0271 20.943
8.0423 21.138
8.0575 21.050
8.0726 21.126
8.0878 21.939
8.1030 21.655
8.1182 21.214
8.1333 21.479
8.1485 21.701
8.1637 21.443
8.1789 21.853
8.1940 21.819
8.2092 21.650
8.2244 22.094
8.2396 21.550
8.2547 21.487
8.2699 21.813
8.2851 21.826
8.3003 21.973
8.3154 21.717
8.3306 21.556
8.3458 21.625
8.3610 21.917
8.3761 22.150
8.3913 21.995
8.4065 21.643
8.4217 21.870
8.4368 21.993
8.4520 21.553
8.4672 22.284
8.4824 22.464
8.4975 21.926
8.5127 22.117
8.5279 22.473
8.5431 22.358
8.5582 22.156
8.5734 21.961
8.5886 22.228
8.6038 22.321
8.6189 22.714
8.6341 22.345
8.6493 22.309
8.6645 22.783
8.6796 22.260
8.6948 22.877
8.7100 21.843
8.7252 22.441
8.7403 22.710
8.7555 22.376
8.7707 22.548
8.7859 23.185
8.8010 22.329
8.8162 22.526
8.8314 22.481
8.8466 22.783
8.8617 22.697
8.8769 22.275
8.8921 22.672
8.9073 22.633
8.9224 22.457
8.9376 22.084
8.9528 22.280
8.9680 22.598
8.9831 22.757
8.9983 22.633
9.0135 22.685
9.0287 22.762
9.0438 22.740
9.0590 22.580
9.0742 22.474
9.0894 22.635
9.1045 22.651
9.1197 22.999
9.1349 22.868
9.1501 23.290
9.1652 23.045
9.1804 23.227
9.1956 23.496
9.2108 22.956
9.2259 22.898
9.2411 23.103
9.2563 23.138
9.2715 23.671
9.2866 23.295
9.3018 23.094
9.3170 23.201
9.3322 23.347
9.3473 23.371
9.3625 23.107
9.3777 23.065
9.3929 23.267
9.4080 23.293
9.4232 23.173
9.4384 23.185
9.4536 23.361
9.4687 23.358
9.4839 23.414
9.4991 23.120
9.5143 23.238
9.5294 23.426
9.5446 23.320
9.5598 23.510
9.5750 23.517
9.5901 23.509
9.6053 23.357
9.6205 23.283
9.6357 23.109
9.6508 23.149
9.6660 23.509
9.6812 23.513
9.6964 23.542
9.7115 23.763
9.7267 24.110
9.7419 24.090
9.7571 23.972
9.7722 23.912
9.7874 24.043
9.8026 23.924
9.8178 23.614
9.8329 23.214
9.8481 23.236
9.8633 23.208
9.8785 23.177
9.8936 23.523
9.9088 23.365
9.9240 23.310
9.9392 23.465
9.9543 23.832
9.9695 23.961
9.9847 23.519
9.9999 23.630
10.0150 23.694
10.0302 23.397
10.0454 23.567
10.0606 23.737
10.0757 23.340
10.0909 23.061
10.1061 23.093
10.1213 23.278
10.1364 23.486
10.1516 23.300
10.1668 23.075
10.1820 23.308
10.1971 23.239
10.2123 22.998
10.2275 23.440
10.2427 23.646
10.2578 23.274
10.2730 23.239
10.2882 23.221
10.3034 23.221
10.3185 23.306
10.3337 23.552
10.3489 23.005
10.3641 22.927
10.3792 23.354
10.3944 23.020
10.4096 22.909
10.4248 22.369
10.4399 22.707
10.4551 22.782
10.4703 22.651
10.4855 22.290
10.5006 22.382
10.5158 22.657
10.5310 22.694
10.5462 22.654
10.5613 22.489
10.5765 22.771
10.5917 22.771
10.6069 22.520
10.6220 22.724
10.6372 22.756
10.6524 22.434
10.6676 22.250
10.6827 22.261
10.6979 22.267
10.7131 22.537
10.7283 22.822
10.7434 22.148
10.7586 22.448
10.7738 22.341
10.7890 22.337
10.8041 22.311
10.8193 22.423
10.8345 22.481
10.8497 22.546
10.8648 22.207
10.8800 22.241
10.8952 22.200
10.9104 22.175
10.9255 22.085
10.9407 21.969
10.9559 21.852
10.9711 22.206
10.9862 22.448
11.0014 22.272
11.0166 22.157
11.0318 22.066
11.0469 21.879
11.0621 22.047
11.0773 22.078
11.0925 21.655
11.1076 21.709
11.1228 21.874
11.1380 21.828
11.1532 21.842
11.1683 21.731
11.1835 21.734
11.1987 21.745
11.2139 21.706
11.2290 21.787
11.2442 22.109
11.2594 21.925
11.2746 21.432
11.2897 21.610
11.3049 21.928
11.3201 21.648
11.3353 21.447
11.3504 21.667
11.3656 21.493
11.3808 21.319
11.3960 21.541
11.4111 21.265
11.4263 21.402
11.4415 21.649
11.4567 21.314
11.4718 21.627
11.4870 21.291
11.5022 21.405
11.5174 21.404
11.5325 21.563
11.5477 21.212
11.5629 21.365
11.5781 21.392
11.5932 21.032
11.6084 20.889
11.6236 20.619
11.6388 20.789
11.6539 20.717
11.6691 20.860
11.6843 20.724
11.6995 20.508
11.7146 20.448
11.7298 20.622
11.7450 20.037
11.7602 20.182
11.7753 20.377
11.7905 19.913
11.8057 19.974
11.8209 19.929
11.8360 20.061
11.8512 20.180
11.8664 19.895
11.8816 19.538
11.8967 19.240
11.9119 19.444
11.9271 19.664
11.9423 19.569
11.9574 19.643
11.9726 19.538
11.9878 19.237
12.0030 19.175
12.0181 19.317
12.0333 19.411
12.0485 18.922
12.0637 18.643
12.0788 19.073
12.0940 19.099
12.1092 18.783
12.1244 18.544
12.1395 18.688
12.1547 18.717
12.1699 18.224
12.1851 18.133
12.2002 18.508
12.2154 18.121
12.2306 18.194
12.2458 18.291
12.2609 18.004
12.2761 18.048
12.2913 17.615
12.3065 17.543
12.3216 17.482
12.3368 17.616
12.3520 17.363
12.3672 17.313
12.3823 17.242
12.3975 17.230
12.4127 17.421
12.4279 17.428
12.4430 17.380
12.4582 16.806
12.4734 16.816
12.4886 16.905
12.5037 16.899
12.5189 17.011
12.5341 16.764
12.5493 16.581
12.5644 16.279
12.5796 16.195
12.5948 16.292
12.6100 16.347
12.6251 16.103
12.6403 16.180
12.6555 16.148
12.6707 15.903
12.6858 16.114
12.7010 15.793
12.7162 15.481
12.7314 15.654
12.7465 15.753
12.7617 15.740
12.7769 15.368
12.7921 15.163
12.8072 15.361
12.8224 15.385
12.8376 15.306
12.8528 15.183
12.8679 15.046
12.8831 14.940
12.8983 14.796
12.9135 14.690
12.9286 14.731
12.9438 14.460
12.9590 14.425
12.9742 14.820
12.9893 14.874
13.0045 14.470
13.0197 14.167
13.0349 14.405
13.0500 14.541
13.0652 14.270
13.0804 14.064
13.0956 14.003
13.1107 13.918
13.1259 13.660
13.1411 13.414
13.1563 13.331
13.1714 13.480
13.1866 13.760
13.2018 13.671
13.2170 13.294
13.2321 13.187
13.2473 13.409
13.2625 13.336
13.2777 13.093
13.2928 13.185
13.3080 13.383
13.3232 13.372
13.3384 13.202
13.3535 13.176
13.3687 13.120
13.3839 13.111
13.3991 13.274
13.4142 13.208
13.4294 13.161
13.4446 13.163
13.4598 12.929
13.4749 12.771
13.4901 12.593
13.5053 12.450
13.5205 12.504
13.5356 12.537
13.5508 12.531
13.5660 12.312
13.5812 12.357
13.5963 12.417
13.6115 12.489
13.6267 12.401
13.6419 12.346
13.6570 12.262
13.6722 12.304
13.6874 12.146
13.7026 11.949
13.7177 12.012
13.7329 12.243
13.7481 12.485
13.7633 12.376
13.7784 12.376
13.7936 12.220
13.8088 12.365
13.8239 12.481
13.8391 12.622
13.8543 12.499
13.8695 12.476
13.8846 12.203
13.8998 12.146
13.9150 12.307
13.9302 12.114
13.9453 12.080
13.9605 11.978
13.9757 11.911
13.9909 11.714
14.0060 11.661
14.0212 11.665
14.0364 11.593
14.0516 11.622
14.0667 11.698
14.0819 11.569
14.0971 11.395
14.1123 11.637
14.1274 11.706
14.1426 11.261
14.1578 11.344
14.1730 11.465
14.1881 11.534
14.2033 11.522
14.2185 11.692
14.2337 11.748
14.2488 11.609
14.2640 11.752
14.2792 11.680
14.2944 11.430
14.3095 11.816
14.3247 11.949
14.3399 11.786
14.3551 12.034
14.3702 12.335
14.3854 12.696
14.4006 12.415
14.4158 12.496
14.4309 12.308
14.4461 12.315
14.4613 12.415
14.4765 12.280
14.4916 12.080
14.5068 11.639
14.5220 11.446
14.5372 11.568
14.5523 11.604
14.5675 11.661
14.5827 11.292
14.5979 11.255
14.6130 11.195
14.6282 11.285
14.6434 11.123
14.6586 11.068
14.6737 11.110
14.6889 11.074
14.7041 11.147
14.7193 10.887
14.7344 11.028
14.7496 11.154
14.7648 10.939
14.7800 11.091
14.7951 10.963
14.8103 10.663
14.8255 10.791
14.8407 10.914
14.8558 10.690
14.8710 10.516
14.8862 10.784
14.9014 10.607
14.9165 10.830
14.9317 10.627
14.9469 10.744
14.9621 10.711
14.9772 10.532
14.9924 10.590
15.0076 10.176
15.0228 10.470
15.0379 10.742
15.0531 10.666
15.0683 10.661
15.0835 10.326
15.0986 10.561
15.1138 10.681
15.1290 10.412
15.1442 10.261
15.1593 10.600
15.1745 10.132
15.1897 10.534
15.2049 10.242
15.2200 10.097
15.2352 10.373
15.2504 10.352
15.2656 10.359
15.2807 10.034
15.2959 10.583
15.3111 10.158
15.3263 10.698
15.3414 10.360
15.3566 10.536
15.3718 10.177
15.3870 10.309
15.4021 10.693
15.4173 10.448
15.4325 10.612
15.4477 10.476
15.4628 10.263
15.4780 10.518
15.4932 10.098
15.5084 10.318
15.5235 10.464
15.5387 10.198
15.5539 10.022
15.5691 10.291
15.5842 10.267
15.5994 10.233
15.6146 10.196
15.6298 10.137
15.6449 9.882
15.6601 10.165
15.6753 9.896
15.6905 9.775
15.7056 9.717
15.7208 10.038
15.7360 9.945
15.7512 10.230
15.7663 10.053
15.7815 9.689
15.7967 9.691
15.8119 10.390
15.8270 10.230
15.8422 10.141
15.8574 9.885
15.8726 9.791
15.8877 9.867
15.9029 9.721
15.9181 9.947
15.9333 9.842
15.9484 9.838
15.9636 9.704
15.9788 9.737
15.9940 10.045
16.0091 9.936
16.0243 9.630
16.0395 9.410
16.0547 9.887
16.0698 9.695
16.0850 9.990
16.1002 9.864
16.1154 9.781
16.1305 9.629
16.1457 9.778
16.1609 9.563
16.1761 9.425
16.1912 9.436
16.2064 9.421
16.2216 9.539
16.2368 10.024
16.2519 9.801
16.2671 9.965
16.2823 10.103
16.2975 10.336
16.3126 10.303
16.3278 9.923
16.3430 10.141
16.3582 10.287
16.3733 10.410
16.3885 10.248
16.4037 10.086
16.4189 9.999
16.4340 10.032
16.4492 9.791
16.4644 9.864
16.4796 9.824
16.4947 10.047
16.5099 10.055
16.5251 9.928
16.5403 9.819
16.5554 9.891
16.5706 9.807
16.5858 9.750
16.6010 9.574
16.6161 9.731
16.6313 9.919
16.6465 9.979
16.6617 9.946
16.6768 9.899
16.6920 9.963
16.7072 10.113
16.7224 10.068
16.7375 10.078
16.7527 9.984
16.7679 10.081
16.7831 10.103
16.7982 10.147
16.8134 10.207
16.8286 10.025
16.8438 9.749
16.8589 9.707
16.8741 9.641
16.8893 9.854
16.9045 9.882
16.9196 9.941
16.9348 9.928
16.9500 9.907
16.9652 10.064
16.9803 9.924
16.9955 9.928
17.0107 10.054
17.0259 10.195
17.0410 10.104
17.0562 10.191
17.0714 10.288
17.0866 10.377
17.1017 10.525
17.1169 10.774
17.1321 11.118
17.1473 11.586
17.1624 11.897
17.1776 12.471
17.1928 13.343
17.2080 14.117
17.2231 15.100
17.2383 16.411
17.2535 17.883
17.2687 18.656
17.2838 18.823
17.2990 18.253
17.3142 17.057
17.3294 16.676
17.3445 16.425
17.3597 15.955
17.3749 15.924
17.3901 15.404
17.4052 14.144
17.4204 13.109
17.4356 12.357
17.4508 11.890
17.4659 11.501
17.4811 11.206
17.4963 11.253
17.5115 11.102
17.5266 10.967
17.5418 10.747
17.5570 10.560
17.5722 10.548
17.5873 10.485
17.6025 10.599
17.6177 10.677
17.6329 10.739
17.6480 10.755
17.6632 10.421
17.6784 10.299
17.6936 10.440
17.7087 10.526
17.7239 10.488
17.7391 10.301
17.7543 10.214
17.7694 10.205
17.7846 10.178
17.7998 10.260
17.8150 10.480
17.8301 10.337
17.8453 10.323
17.8605 10.395
17.8757 10.314
17.8908 10.487
17.9060 10.559
17.9212 10.431
17.9364 10.485
17.9515 10.441
17.9667 10.192
17.9819 10.306
17.9971 10.475
18.0122 10.393
18.0274 10.338
18.0426 10.211
18.0578 10.337
18.0729 10.200
18.0881 9.958
18.1033 9.952
18.1185 9.974
18.1336 10.178
18.1488 10.255
18.1640 10.309
18.1792 10.029
18.1943 9.831
18.2095 10.119
18.2247 9.997
18.2399 9.860
18.2550 9.766
18.2702 10.040
18.2854 9.955
18.3006 9.910
18.3157 10.076
18.3309 9.830
18.3461 9.791
18.3613 9.695
18.3764 9.559
18.3916 9.711
18.4068 9.885
18.4220 9.898
18.4371 9.950
18.4523 9.946
18.4675 9.764
18.4827 9.706
18.4978 9.583
18.5130 9.735
18.5282 9.816
18.5434 9.926
18.5585 9.986
18.5737 9.850
18.5889 9.577
18.6041 9.871
18.6192 9.652
18.6344 9.498
18.6496 9.690
18.6648 9.822
18.6799 9.857
18.6951 10.051
18.7103 9.824
18.7255 9.366
18.7406 9.761
18.7558 10.244
18.7710 10.108
18.7862 9.874
18.8013 9.763
18.8165 9.667
18.8317 9.736
18.8469 9.893
18.8620 9.907
18.8772 9.938
18.8924 9.737
18.9076 9.799
18.9227 9.983
18.9379 9.783
18.9531 9.805
18.9683 9.881
18.9834 9.968
18.9986 10.210
19.0138 10.185
19.0290 10.154
19.0441 10.143
19.0593 10.008
19.0745 10.332
19.0897 10.532
19.1048 10.247
19.1200 10.464
19.1352 10.448
19.1504 10.273
19.1655 10.748
19.1807 10.831
19.1959 10.619
19.2111 10.546
19.2262 10.508
19.2414 10.682
19.2566 10.849
19.2718 10.982
19.2869 11.034
19.3021 10.992
19.3173 11.130
19.3325 10.947
19.3476 10.927
19.3628 11.168
19.3780 10.974
19.3932 11.059
19.4083 11.291
19.4235 11.415
19.4387 11.281
19.4539 11.261
19.4690 11.413
19.4842 11.288
19.4994 11.319
19.5146 11.314
19.5297 11.323
19.5449 11.478
19.5601 11.639
19.5753 11.859
19.5904 11.861
19.6056 11.599
19.6208 11.754
19.6360 11.778
19.6511 11.629
19.6663 11.893
19.6815 11.934
19.6967 11.812
19.7118 11.840
19.7270 11.624
19.7422 11.745
19.7574 11.815
19.7725 11.835
19.7877 11.907
19.8029 11.646
19.8180 11.686
19.8332 11.915
19.8484 12.032
19.8636 12.387
19.8787 12.703
19.8939 12.745
19.9091 12.964
19.9243 13.683
19.9394 14.046
19.9546 14.310
19.9698 14.587
19.9850 14.364
20.0001 14.285
20.0153 14.191
20.0305 13.886
20.0457 13.718
20.0608 13.756
20.0760 13.761
20.0912 13.739
20.1064 13.532
20.1215 13.475
20.1367 13.087
20.1519 12.879
20.1671 12.984
20.1822 12.804
20.1974 12.681
20.2126 12.637
20.2278 12.696
20.2429 12.613
20.2581 12.394
20.2733 12.023
20.2885 11.844
20.3036 11.892
20.3188 11.647
20.3340 11.556
20.3492 11.539
20.3643 11.466
20.3795 11.225
20.3947 10.955
20.4099 10.911
20.4250 10.992
20.4402 11.021
20.4554 10.736
20.4706 10.604
20.4857 10.681
20.5009 10.752
20.5161 10.829
20.5313 10.646
20.5464 11.050
20.5616 10.980
20.5768 10.632
20.5920 10.734
20.6071 10.745
20.6223 10.697
20.6375 10.664
20.6527 10.380
20.6678 10.469
20.6830 10.878
20.6982 10.565
20.7134 10.191
20.7285 10.472
20.7437 10.734
20.7589 10.468
20.7741 10.369
20.7892 10.513
20.8044 10.347
20.8196 10.276
20.8348 10.110
20.8499 10.240
20.8651 10.196
20.8803 10.073
20.8955 10.285
20.9106 10.223
20.9258 10.207
20.9410 10.253
20.9562 10.476
20.9713 10.067
20.9865 9.987
21.0017 10.056
21.0169 10.008
21.0320 9.939
21.0472 10.225
21.0624 10.050
21.0776 10.281
21.0927 9.646
21.1079 10.099
21.1231 10.103
21.1383 9.898
21.1534 9.907
21.1686 9.852
21.1838 9.868
21.1990 9.786
21.2141 9.667
21.2293 9.769
21.2445 9.689
21.2597 9.586
21.2748 9.663
21.2900 9.718
21.3052 9.711
21.3204 9.449
21.3355 9.991
21.3507 9.733
21.3659 9.689
21.3811 9.691
21.3962 9.536
21.4114 9.335
21.4266 9.432
21.4418 9.678
21.4569 9.389
21.4721 9.506
21.4873 9.152
21.5025 9.355
21.5176 9.445
21.5328 9.443
21.5480 9.326
21.5632 9.501
21.5783 9.309
21.5935 9.238
21.6087 9.247
21.6239 9.127
21.6390 9.214
21.6542 9.203
21.6694 9.226
21.6846 9.213
21.6997 9.227
21.7149 9.212
21.7301 9.262
21.7453 9.223
21.7604 9.142
21.7756 9.222
21.7908 8.968
21.8060 8.842
21.8211 8.995
21.8363 9.030
21.8515 9.250
21.8667 9.294
21.8818 9.267
21.8970 9.114
21.9122 8.987
21.9274 9.147
21.9425 9.006
21.9577 8.911
21.9729 9.015
21.9881 8.793
22.0032 8.703
22.0184 8.932
22.0336 8.807
22.0488 8.914
22.0639 9.152
22.0791 9.013
22.0943 8.750
22.1095 8.709
22.1246 8.706
22.1398 8.791
22.1550 8.789
22.1702 8.649
22.1853 8.642
22.2005 8.709
22.2157 8.403
22.2309 8.648
22.2460 8.844
22.2612 8.714
22.2764 8.679
22.2916 8.682
22.3067 8.555
22.3219 8.652
22.3371 8.789
22.3523 8.590
22.3674 8.429
22.3826 8.407
22.3978 8.761
22.4130 8.804
22.4281 8.737
22.4433 8.498
22.4585 8.469
22.4737 8.630
22.4888 8.556
22.5040 8.329
22.5192 8.378
22.5344 8.601
22.5495 8.344
22.5647 8.661
22.5799 8.631
22.5951 8.221
22.6102 8.633
22.6254 8.801
22.6406 8.695
22.6558 8.310
22.6709 8.466
22.6861 8.627
22.7013 8.485
22.7165 7.954
22.7316 6.367
