'Id: "" Comment: "" Operator: "Lab Manager" Anode: "Mo" Scantype: "Still (Eiger2R_500K (1D mode))" TimePerStep: "300" X: "11.8" Y: "9.4" Z: "11.284" 
7.2532 18.805
7.2684 19.015
7.2836 18.962
7.2987 18.959
7.3139 19.018
7.3291 19.506
7.3443 19.337
7.3594 19.525
7.3746 19.182
7.3898 19.513
7.4050 19.259
7.4201 19.483
7.4353 19.388
7.4505 19.551
7.4657 19.556
7.4808 19.747
7.4960 19.909
7.5112 19.621
7.5264 19.690
7.5415 19.524
7.5567 19.623
7.5719 19.813
7.5871 19.722
7.6022 20.013
7.6174 20.091
7.6326 20.147
7.6478 20.059
7.6629 20.309
7.6781 20.355
7.6933 20.243
7.7085 20.294
7.7236 20.480
7.7388 20.409
7.7540 20.352
7.7692 20.571
7.7843 20.618
7.7995 20.695
7.8147 20.694
7.8299 20.536
7.8450 20.610
7.8602 20.700
7.8754 20.818
7.8905 20.684
7.9057 20.551
7.9209 20.703
7.9361 21.066
7.9512 21.142
7.9664 21.485
7.9816 21.316
7.9968 21.204
8.0119 21.402
8.0271 21.425
8.0423 21.228
8.0575 21.470
8.0726 21.498
8.0878 21.256
8.1030 21.227
8.1182 21.704
8.1333 21.401
8.1485 21.236
8.1637 21.589
8.1789 21.559
8.1940 21.729
8.2092 21.827
8.2244 21.659
8.2396 21.354
8.2547 21.428
8.2699 21.928
8.2851 21.743
8.3003 22.332
8.3154 21.813
8.3306 22.128
8.3458 22.205
8.3610 22.392
8.3761 22.109
8.3913 21.796
8.4065 21.913
8.4217 22.146
8.4368 21.768
8.4520 21.612
8.4672 22.124
8.4824 22.161
8.4975 22.119
8.5127 22.287
8.5279 21.999
8.5431 22.459
8.5582 22.374
8.5734 21.800
8.5886 22.402
8.6038 22.363
8.6189 21.909
8.6341 21.929
8.6493 22.233
8.6645 22.344
8.6796 22.430
8.6948 22.214
8.7100 22.299
8.7252 22.568
8.7403 22.611
8.7555 22.374
8.7707 22.364
8.7859 22.569
8.8010 22.430
8.8162 22.612
8.8314 22.352
8.8466 22.997
8.8617 22.484
8.8769 22.819
8.8921 22.833
8.9073 22.393
8.9224 22.719
8.9376 22.782
8.9528 23.123
8.9680 22.927
8.9831 22.683
8.9983 22.661
9.0135 22.740
9.0287 23.083
9.0438 22.691
9.0590 23.156
9.0742 22.927
9.0894 22.608
9.1045 23.127
9.1197 23.176
9.1349 23.357
9.1501 23.061
9.1652 23.131
9.1804 23.279
9.1956 22.968
9.2108 22.816
9.2259 22.907
9.2411 22.631
9.2563 22.820
9.2715 23.064
9.2866 23.491
9.3018 23.193
9.3170 23.102
9.3322 23.138
9.3473 22.953
9.3625 23.130
9.3777 23.191
9.3929 23.070
9.4080 23.223
9.4232 23.202
9.4384 22.904
9.4536 23.175
9.4687 23.278
9.4839 23.381
9.4991 23.575
9.5143 23.154
9.5294 23.198
9.5446 23.182
9.5598 23.048
9.5750 23.278
9.5901 23.464
9.6053 23.553
9.6205 23.724
9.6357 23.665
9.6508 23.804
9.6660 23.853
9.6812 23.732
9.6964 23.801
9.7115 23.935
9.7267 24.298
9.7419 24.169
9.7571 24.028
9.7722 23.934
9.7874 24.047
9.8026 23.853
9.8178 23.723
9.8329 23.714
9.8481 23.490
9.8633 23.633
9.8785 23.718
9.8936 23.896
9.9088 23.707
9.9240 23.945
9.9392 23.960
9.9543 23.501
9.9695 23.417
9.9847 23.581
9.9999 23.580
10.0150 23.338
10.0302 23.238
10.0454 23.245
10.0606 23.279
10.0757 23.310
10.0909 23.064
10.1061 22.878
10.1213 22.945
10.1364 23.003
10.1516 23.077
10.1668 23.191
10.1820 23.242
10.1971 23.345
10.2123 23.104
10.2275 23.036
10.2427 23.172
10.2578 23.300
10.2730 22.803
10.2882 22.758
10.3034 23.262
10.3185 23.260
10.3337 23.371
10.3489 23.310
10.3641 23.471
10.3792 23.400
10.3944 23.071
10.4096 23.096
10.4248 22.847
10.4399 22.854
10.4551 22.596
10.4703 22.653
10.4855 22.925
10.5006 22.631
10.5158 22.565
10.5310 23.002
10.5462 22.625
10.5613 22.516
10.5765 22.516
10.5917 22.829
10.6069 22.827
10.6220 22.683
10.6372 22.684
10.6524 22.699
10.6676 22.711
10.6827 22.286
10.6979 22.334
10.7131 22.570
10.7283 22.411
10.7434 22.322
10.7586 22.492
10.7738 22.370
10.7890 22.333
10.8041 22.112
10.8193 22.323
10.8345 22.176
10.8497 22.441
10.8648 22.401
10.8800 22.057
10.8952 22.147
10.9104 22.324
10.9255 22.673
10.9407 22.089
10.9559 21.949
10.9711 22.345
10.9862 21.869
11.0014 21.898
11.0166 22.290
11.0318 22.527
11.0469 22.029
11.0621 21.748
11.0773 21.827
11.0925 22.095
11.1076 22.134
11.1228 22.048
11.1380 21.801
11.1532 21.694
11.1683 21.694
11.1835 21.641
11.1987 21.638
11.2139 21.587
11.2290 21.889
11.2442 21.740
11.2594 21.521
11.2746 21.388
11.2897 21.409
11.3049 21.766
11.3201 21.712
11.3353 21.364
11.3504 21.351
11.3656 21.550
11.3808 21.358
11.3960 21.495
11.4111 21.606
11.4263 21.346
11.4415 21.348
11.4567 21.297
11.4718 21.149
11.4870 21.205
11.5022 21.591
11.5174 21.435
11.5325 21.269
11.5477 21.235
11.5629 21.174
11.5781 21.281
11.5932 21.324
11.6084 20.827
11.6236 20.934
11.6388 20.930
11.6539 20.948
11.6691 20.869
11.6843 20.619
11.6995 20.695
11.7146 20.569
11.7298 20.377
11.7450 20.451
11.7602 20.232
11.7753 20.167
11.7905 20.085
11.8057 20.286
11.8209 20.200
11.8360 20.129
11.8512 20.001
11.8664 19.943
11.8816 19.986
11.8967 20.272
11.9119 19.515
11.9271 19.324
11.9423 19.673
11.9574 19.584
11.9726 19.442
11.9878 19.209
12.0030 19.438
12.0181 19.408
12.0333 18.947
12.0485 19.336
12.0637 19.319
12.0788 18.682
12.0940 18.782
12.1092 18.885
12.1244 18.629
12.1395 18.674
12.1547 18.827
12.1699 18.315
12.1851 18.105
12.2002 18.374
12.2154 18.411
12.2306 18.166
12.2458 18.005
12.2609 18.055
12.2761 17.728
12.2913 17.708
12.3065 17.808
12.3216 17.380
12.3368 17.472
12.3520 17.582
12.3672 17.462
12.3823 17.215
12.3975 17.060
12.4127 17.208
12.4279 17.466
12.4430 17.068
12.4582 16.634
12.4734 17.018
12.4886 16.919
12.5037 16.737
12.5189 16.746
12.5341 16.569
12.5493 16.561
12.5644 16.321
12.5796 16.392
12.5948 16.395
12.6100 16.198
12.6251 16.013
12.6403 15.998
12.6555 16.036
12.6707 15.952
12.6858 15.831
12.7010 15.831
12.7162 15.780
12.7314 15.607
12.7465 15.500
12.7617 15.571
12.7769 15.335
12.7921 15.311
12.8072 15.242
12.8224 15.049
12.8376 14.895
12.8528 14.945
12.8679 14.965
12.8831 14.844
12.8983 14.811
12.9135 14.714
12.9286 14.644
12.9438 14.581
12.9590 14.530
12.9742 14.517
12.9893 14.498
13.0045 14.529
13.0197 14.382
13.0349 14.031
13.0500 13.918
13.0652 14.128
13.0804 14.046
13.0956 13.971
13.1107 13.876
13.1259 13.654
13.1411 13.651
13.1563 13.879
13.1714 14.051
13.1866 13.897
13.2018 13.729
13.2170 13.647
13.2321 13.607
13.2473 13.606
13.2625 13.520
13.2777 13.408
13.2928 13.256
13.3080 13.129
13.3232 13.111
13.3384 13.152
13.3535 13.218
13.3687 13.258
13.3839 13.282
13.3991 13.063
13.4142 13.208
13.4294 13.256
13.4446 13.025
13.4598 12.703
13.4749 12.501
13.4901 12.580
13.5053 12.607
13.5205 12.472
13.5356 12.320
13.5508 12.338
13.5660 12.465
13.5812 12.531
13.5963 12.472
13.6115 12.222
13.6267 12.327
13.6419 12.519
13.6570 12.237
13.6722 12.100
13.6874 12.187
13.7026 12.128
13.7177 12.151
13.7329 12.188
13.7481 12.328
13.7633 12.173
13.7784 12.117
13.7936 11.959
13.8088 12.024
13.8239 12.327
13.8391 12.392
13.8543 12.251
13.8695 12.238
13.8846 12.518
13.8998 12.186
13.9150 12.000
13.9302 12.169
13.9453 12.127
13.9605 11.907
13.9757 11.760
13.9909 11.775
14.0060 11.612
14.0212 11.531
14.0364 11.454
14.0516 11.479
14.0667 11.850
14.0819 11.900
14.0971 11.687
14.1123 11.502
14.1274 11.307
14.1426 11.514
14.1578 11.575
14.1730 11.495
14.1881 11.666
14.2033 11.338
14.2185 11.383
14.2337 11.469
14.2488 11.538
14.2640 11.007
14.2792 11.174
14.2944 11.756
14.3095 11.941
14.3247 11.914
14.3399 12.262
14.3551 12.430
14.3702 12.434
14.3854 12.716
14.4006 12.447
14.4158 12.791
14.4309 12.995
14.4461 13.121
14.4613 13.030
14.4765 12.806
14.4916 12.370
14.5068 12.388
14.5220 12.002
14.5372 11.549
14.5523 11.821
14.5675 11.374
14.5827 11.156
14.5979 10.935
14.6130 11.055
14.6282 10.947
14.6434 11.015
14.6586 10.613
14.6737 11.235
14.6889 10.809
14.7041 11.096
14.7193 11.013
14.7344 11.104
14.7496 10.895
14.7648 11.214
14.7800 10.979
14.7951 11.047
14.8103 10.729
14.8255 10.933
14.8407 10.978
14.8558 11.072
14.8710 10.780
14.8862 10.584
14.9014 10.679
14.9165 10.953
14.9317 10.910
14.9469 11.039
14.9621 10.897
14.9772 10.368
14.9924 10.579
15.0076 10.633
15.0228 10.211
15.0379 10.700
15.0531 10.413
15.0683 9.965
15.0835 10.164
15.0986 10.345
15.1138 10.270
15.1290 10.357
15.1442 10.524
15.1593 10.416
15.1745 10.433
15.1897 10.206
15.2049 10.622
15.2200 10.240
15.2352 9.899
15.2504 10.107
15.2656 10.132
15.2807 10.511
15.2959 10.157
15.3111 10.367
15.3263 9.971
15.3414 10.112
15.3566 10.373
15.3718 10.192
15.3870 10.268
15.4021 10.301
15.4173 10.094
15.4325 10.269
15.4477 10.861
15.4628 10.476
15.4780 10.697
15.4932 10.698
15.5084 10.388
15.5235 10.408
15.5387 10.459
15.5539 10.266
15.5691 10.254
15.5842 10.233
15.5994 9.966
15.6146 9.925
15.6298 9.957
15.6449 10.222
15.6601 10.077
15.6753 10.036
15.6905 10.153
15.7056 10.243
15.7208 9.751
15.7360 9.882
15.7512 9.923
15.7663 9.584
15.7815 9.793
15.7967 9.820
15.8119 9.787
15.8270 10.179
15.8422 10.004
15.8574 9.737
15.8726 9.902
15.8877 9.681
15.9029 9.772
15.9181 9.753
15.9333 9.753
15.9484 9.857
15.9636 9.810
15.9788 9.857
15.9940 9.812
16.0091 10.087
16.0243 9.813
16.0395 9.704
16.0547 9.571
16.0698 9.458
16.0850 9.724
16.1002 9.630
16.1154 9.633
16.1305 9.671
16.1457 9.578
16.1609 9.632
16.1761 9.752
16.1912 9.901
16.2064 9.734
16.2216 9.808
16.2368 9.711
16.2519 9.880
16.2671 9.942
16.2823 10.061
16.2975 9.972
16.3126 10.159
16.3278 10.100
16.3430 10.092
16.3582 10.197
16.3733 10.064
16.3885 9.893
16.4037 9.920
16.4189 10.096
16.4340 9.955
16.4492 9.903
16.4644 9.837
16.4796 10.025
16.4947 9.797
16.5099 9.829
16.5251 9.894
16.5403 9.640
16.5554 9.926
16.5706 9.832
16.5858 9.777
16.6010 9.686
16.6161 9.725
16.6313 9.959
16.6465 10.121
16.6617 10.039
16.6768 10.059
16.6920 9.975
16.7072 10.184
16.7224 10.183
16.7375 10.090
16.7527 10.224
16.7679 9.874
16.7831 10.018
16.7982 10.224
16.8134 10.043
16.8286 9.823
16.8438 9.821
16.8589 9.810
16.8741 9.729
16.8893 9.655
16.9045 9.771
16.9196 9.780
16.9348 9.735
16.9500 9.874
16.9652 10.058
16.9803 10.166
16.9955 10.139
17.0107 9.979
17.0259 10.126
17.0410 10.244
17.0562 10.446
17.0714 10.652
17.0866 10.544
17.1017 10.474
17.1169 10.661
17.1321 10.855
17.1473 11.258
17.1624 11.924
17.1776 12.720
17.1928 13.403
17.2080 14.022
17.2231 15.119
17.2383 16.374
17.2535 17.469
17.2687 18.642
17.2838 19.064
17.2990 18.258
17.3142 17.005
17.3294 16.185
17.3445 15.930
17.3597 15.991
17.3749 15.864
17.3901 15.188
17.4052 14.224
17.4204 13.009
17.4356 12.241
17.4508 11.908
17.4659 11.611
17.4811 11.175
17.4963 11.069
17.5115 11.025
17.5266 10.581
17.5418 10.561
17.5570 10.646
17.5722 10.550
17.5873 10.525
17.6025 10.822
17.6177 10.790
17.6329 10.402
17.6480 10.237
17.6632 10.508
17.6784 10.544
17.6936 10.479
17.7087 10.516
17.7239 10.675
17.7391 10.939
17.7543 10.631
17.7694 10.544
17.7846 10.666
17.7998 10.830
17.8150 11.052
17.8301 10.982
17.8453 11.054
17.8605 11.068
17.8757 11.072
17.8908 10.880
17.9060 10.820
17.9212 10.942
17.9364 10.703
17.9515 10.523
17.9667 10.562
17.9819 10.707
17.9971 10.627
18.0122 10.355
18.0274 10.402
18.0426 10.319
18.0578 10.086
18.0729 10.141
18.0881 9.980
18.1033 10.073
18.1185 10.241
18.1336 10.135
18.1488 10.014
18.1640 10.065
18.1792 9.981
18.1943 9.820
18.2095 9.928
18.2247 9.909
18.2399 9.841
18.2550 10.019
18.2702 10.272
18.2854 10.116
18.3006 9.973
18.3157 9.819
18.3309 9.922
18.3461 10.152
18.3613 10.180
18.3764 9.756
18.3916 9.743
18.4068 9.865
18.4220 9.930
18.4371 9.877
18.4523 9.881
18.4675 9.937
18.4827 10.044
18.4978 9.858
18.5130 9.956
18.5282 10.131
18.5434 9.779
18.5585 9.875
18.5737 9.917
18.5889 9.834
18.6041 10.044
18.6192 10.051
18.6344 9.969
18.6496 9.895
18.6648 9.842
18.6799 9.701
18.6951 9.776
18.7103 9.713
18.7255 9.695
18.7406 9.843
18.7558 9.850
18.7710 10.049
18.7862 10.049
18.8013 9.737
18.8165 9.696
18.8317 10.088
18.8469 10.176
18.8620 10.116
18.8772 10.014
18.8924 9.931
18.9076 9.926
18.9227 10.028
18.9379 10.119
18.9531 10.072
18.9683 10.077
18.9834 10.170
18.9986 10.086
19.0138 10.133
19.0290 10.277
19.0441 10.252
19.0593 10.093
19.0745 10.165
19.0897 10.300
19.1048 10.268
19.1200 10.493
19.1352 10.555
19.1504 10.415
19.1655 10.396
19.1807 10.530
19.1959 10.662
19.2111 10.696
19.2262 10.924
19.2414 10.905
19.2566 10.708
19.2718 10.901
19.2869 10.907
19.3021 10.954
19.3173 10.813
19.3325 10.845
19.3476 11.142
19.3628 11.219
19.3780 11.050
19.3932 10.930
19.4083 10.893
19.4235 11.053
19.4387 11.221
19.4539 11.223
19.4690 11.387
19.4842 11.594
19.4994 11.677
19.5146 11.531
19.5297 11.470
19.5449 11.486
19.5601 11.576
19.5753 11.608
19.5904 11.579
19.6056 11.585
19.6208 11.715
19.6360 11.676
19.6511 11.590
19.6663 11.897
19.6815 11.929
19.6967 11.739
19.7118 11.599
19.7270 11.750
19.7422 11.701
19.7574 11.554
19.7725 11.843
19.7877 11.798
19.8029 11.782
19.8180 12.006
19.8332 12.282
19.8484 12.299
19.8636 12.243
19.8787 12.603
19.8939 12.946
19.9091 13.157
19.9243 13.361
19.9394 13.747
19.9546 14.177
19.9698 14.347
19.9850 14.489
20.0001 14.306
20.0153 14.311
20.0305 14.178
20.0457 14.099
20.0608 13.966
20.0760 13.742
20.0912 13.676
20.1064 13.577
20.1215 13.813
20.1367 13.617
20.1519 13.008
20.1671 12.797
20.1822 12.660
20.1974 12.825
20.2126 12.590
20.2278 12.504
20.2429 12.610
20.2581 12.348
20.2733 12.019
20.2885 11.898
20.3036 11.714
20.3188 11.700
20.3340 11.481
20.3492 11.511
20.3643 11.469
20.3795 11.248
20.3947 11.040
20.4099 10.984
20.4250 11.207
20.4402 10.978
20.4554 10.928
20.4706 10.748
20.4857 10.703
20.5009 10.748
20.5161 10.614
20.5313 10.773
20.5464 10.632
20.5616 10.394
20.5768 10.796
20.5920 10.645
20.6071 10.598
20.6223 10.759
20.6375 10.676
20.6527 10.326
20.6678 10.411
20.6830 10.426
20.6982 10.476
20.7134 10.569
20.7285 10.447
20.7437 10.507
20.7589 10.453
20.7741 10.669
20.7892 10.538
20.8044 10.280
20.8196 10.553
20.8348 10.468
20.8499 10.467
20.8651 10.621
20.8803 10.344
20.8955 10.517
20.9106 10.388
20.9258 10.404
20.9410 10.411
20.9562 10.688
20.9713 10.844
20.9865 10.728
21.0017 10.580
21.0169 10.719
21.0320 10.312
21.0472 10.482
21.0624 10.273
21.0776 10.009
21.0927 10.084
21.1079 10.120
21.1231 9.883
21.1383 10.223
21.1534 9.974
21.1686 9.878
21.1838 10.037
21.1990 9.893
21.2141 9.855
21.2293 9.666
21.2445 9.165
21.2597 9.612
21.2748 9.691
21.2900 9.649
21.3052 9.902
21.3204 9.622
21.3355 9.374
21.3507 9.765
21.3659 9.821
21.3811 9.389
21.3962 9.656
21.4114 9.686
21.4266 9.389
21.4418 9.374
21.4569 9.535
21.4721 9.543
21.4873 9.360
21.5025 9.588
21.5176 9.518
21.5328 9.254
21.5480 9.226
21.5632 9.659
21.5783 9.508
21.5935 9.173
21.6087 8.911
21.6239 9.256
21.6390 9.248
21.6542 9.242
21.6694 9.370
21.6846 9.198
21.6997 9.409
21.7149 9.177
21.7301 8.988
21.7453 8.911
21.7604 8.885
21.7756 8.894
21.7908 9.008
21.8060 8.888
21.8211 8.707
21.8363 8.963
21.8515 9.095
21.8667 9.265
21.8818 9.266
21.8970 9.039
21.9122 9.130
21.9274 9.154
21.9425 8.997
21.9577 8.891
21.9729 8.868
21.9881 8.904
22.0032 8.845
22.0184 8.697
22.0336 8.773
22.0488 8.805
22.0639 8.776
22.0791 8.828
22.0943 8.655
22.1095 8.603
22.1246 8.446
22.1398 8.402
22.1550 8.451
22.1702 8.504
22.1853 8.576
22.2005 8.405
22.2157 8.092
22.2309 8.461
22.2460 8.541
22.2612 8.584
22.2764 8.646
22.2916 8.676
22.3067 8.468
22.3219 8.418
22.3371 8.514
22.3523 8.547
22.3674 8.350
22.3826 8.390
22.3978 8.474
22.4130 8.775
22.4281 8.578
22.4433 8.150
22.4585 8.572
22.4737 8.618
22.4888 8.863
22.5040 8.368
22.5192 8.474
22.5344 8.510
22.5495 8.598
22.5647 8.575
22.5799 8.346
22.5951 8.483
22.6102 8.091
22.6254 8.599
22.6406 8.641
22.6558 8.494
22.6709 8.099
22.6861 8.055
22.7013 8.403
22.7165 7.933
22.7316 6.612
