'Id: "" Comment: "" Operator: "Lab Manager" Anode: "Mo" Scantype: "Still (Eiger2R_500K (1D mode))" TimePerStep: "300" X: "11.8" Y: "9.4" Z: "11.284" 
7.2532 18.835
7.2684 18.726
7.2836 19.488
7.2987 19.283
7.3139 19.379
7.3291 19.020
7.3443 19.150
7.3594 19.161
7.3746 19.455
7.3898 19.346
7.4050 19.656
7.4201 19.340
7.4353 19.325
7.4505 19.385
7.4657 19.618
7.4808 19.481
7.4960 19.283
7.5112 19.265
7.5264 19.884
7.5415 20.039
7.5567 19.655
7.5719 19.919
7.5871 20.385
7.6022 19.755
7.6174 19.864
7.6326 20.140
7.6478 20.141
7.6629 20.160
7.6781 20.354
7.6933 20.044
7.7085 20.233
7.7236 20.321
7.7388 20.197
7.7540 20.372
7.7692 20.451
7.7843 20.196
7.7995 20.274
7.8147 20.594
7.8299 21.026
7.8450 20.809
7.8602 20.942
7.8754 20.688
7.8905 20.596
7.9057 20.964
7.9209 20.879
7.9361 21.042
7.9512 21.053
7.9664 20.875
7.9816 20.982
7.9968 20.976
8.0119 21.160
8.0271 21.396
8.0423 21.270
8.0575 21.192
8.0726 21.191
8.0878 21.112
8.1030 21.357
8.1182 21.553
8.1333 21.781
8.1485 21.775
8.1637 21.247
8.1789 21.651
8.1940 21.736
8.2092 21.914
8.2244 21.693
8.2396 21.708
8.2547 21.595
8.2699 21.879
8.2851 21.499
8.3003 21.604
8.3154 21.737
8.3306 21.427
8.3458 21.613
8.3610 22.292
8.3761 21.979
8.3913 21.635
8.4065 22.230
8.4217 21.916
8.4368 21.585
8.4520 22.170
8.4672 22.036
8.4824 22.070
8.4975 22.039
8.5127 22.521
8.5279 22.342
8.5431 22.235
8.5582 22.057
8.5734 22.132
8.5886 22.563
8.6038 22.915
8.6189 22.078
8.6341 22.529
8.6493 22.546
8.6645 21.881
8.6796 22.283
8.6948 22.060
8.7100 22.390
8.7252 22.518
8.7403 22.267
8.7555 22.025
8.7707 22.495
8.7859 22.357
8.8010 22.213
8.8162 22.791
8.8314 23.011
8.8466 22.660
8.8617 22.793
8.8769 22.671
8.8921 22.028
8.9073 22.491
8.9224 22.246
8.9376 22.399
8.9528 22.267
8.9680 22.193
8.9831 22.951
8.9983 22.871
9.0135 22.687
9.0287 23.005
9.0438 22.730
9.0590 22.912
9.0742 22.409
9.0894 22.762
9.1045 23.084
9.1197 23.000
9.1349 23.001
9.1501 23.210
9.1652 22.834
9.1804 22.855
9.1956 22.924
9.2108 23.046
9.2259 22.973
9.2411 22.818
9.2563 22.615
9.2715 22.709
9.2866 22.980
9.3018 22.714
9.3170 22.962
9.3322 23.015
9.3473 23.005
9.3625 23.023
9.3777 22.885
9.3929 23.189
9.4080 22.853
9.4232 22.771
9.4384 23.077
9.4536 23.197
9.4687 23.099
9.4839 23.168
9.4991 23.585
9.5143 23.456
9.5294 23.220
9.5446 23.127
9.5598 22.979
9.5750 23.263
9.5901 23.508
9.6053 23.346
9.6205 23.524
9.6357 23.712
9.6508 23.555
9.6660 23.509
9.6812 23.795
9.6964 23.937
9.7115 23.551
9.7267 23.972
9.7419 24.364
9.7571 24.138
9.7722 24.132
9.7874 24.116
9.8026 24.026
9.8178 23.809
9.8329 23.818
9.8481 23.778
9.8633 23.702
9.8785 23.785
9.8936 23.804
9.9088 23.844
9.9240 23.674
9.9392 23.473
9.9543 23.389
9.9695 23.368
9.9847 23.636
9.9999 23.452
10.0150 23.175
10.0302 23.572
10.0454 23.380
10.0606 22.964
10.0757 22.936
10.0909 23.171
10.1061 23.298
10.1213 23.457
10.1364 23.576
10.1516 23.145
10.1668 22.897
10.1820 23.167
10.1971 23.198
10.2123 23.135
10.2275 23.314
10.2427 23.578
10.2578 23.350
10.2730 22.875
10.2882 22.919
10.3034 23.185
10.3185 23.239
10.3337 22.988
10.3489 22.997
10.3641 22.950
10.3792 22.794
10.3944 23.195
10.4096 23.334
10.4248 22.928
10.4399 23.057
10.4551 23.216
10.4703 23.025
10.4855 22.767
10.5006 22.438
10.5158 22.754
10.5310 23.240
10.5462 23.176
10.5613 22.926
10.5765 22.887
10.5917 22.706
10.6069 22.643
10.6220 22.764
10.6372 22.684
10.6524 22.872
10.6676 22.859
10.6827 22.394
10.6979 22.484
10.7131 22.131
10.7283 21.958
10.7434 22.611
10.7586 22.801
10.7738 22.134
10.7890 22.469
10.8041 22.801
10.8193 22.657
10.8345 22.236
10.8497 22.063
10.8648 22.255
10.8800 22.080
10.8952 22.148
10.9104 22.061
10.9255 22.057
10.9407 22.038
10.9559 21.772
10.9711 22.071
10.9862 22.286
11.0014 22.250
11.0166 22.217
11.0318 22.004
11.0469 21.629
11.0621 21.810
11.0773 21.893
11.0925 22.161
11.1076 22.187
11.1228 22.039
11.1380 21.956
11.1532 22.060
11.1683 21.825
11.1835 21.755
11.1987 21.267
11.2139 21.655
11.2290 21.702
11.2442 21.575
11.2594 22.004
11.2746 21.841
11.2897 21.581
11.3049 21.744
11.3201 21.579
11.3353 21.828
11.3504 21.707
11.3656 21.434
11.3808 21.360
11.3960 21.423
11.4111 21.353
11.4263 21.360
11.4415 21.256
11.4567 21.215
11.4718 21.317
11.4870 21.413
11.5022 21.588
11.5174 21.345
11.5325 21.389
11.5477 21.473
11.5629 21.040
11.5781 20.681
11.5932 20.838
11.6084 21.190
11.6236 20.692
11.6388 20.773
11.6539 20.684
11.6691 20.748
11.6843 20.856
11.6995 20.524
11.7146 20.250
11.7298 20.369
11.7450 20.573
11.7602 20.225
11.7753 20.301
11.7905 20.389
11.8057 20.390
11.8209 20.102
11.8360 19.818
11.8512 19.386
11.8664 19.746
11.8816 20.266
11.8967 19.825
11.9119 19.345
11.9271 19.682
11.9423 19.828
11.9574 19.822
11.9726 19.728
11.9878 19.575
12.0030 18.949
12.0181 19.113
12.0333 19.103
12.0485 19.052
12.0637 18.796
12.0788 19.019
12.0940 19.163
12.1092 18.944
12.1244 18.594
12.1395 18.476
12.1547 18.436
12.1699 18.544
12.1851 18.394
12.2002 18.269
12.2154 18.266
12.2306 18.170
12.2458 18.001
12.2609 17.620
12.2761 17.720
12.2913 17.902
12.3065 18.020
12.3216 17.821
12.3368 17.538
12.3520 17.565
12.3672 17.532
12.3823 17.369
12.3975 17.199
12.4127 17.098
12.4279 17.071
12.4430 17.055
12.4582 16.962
12.4734 17.152
12.4886 16.749
12.5037 16.643
12.5189 16.693
12.5341 16.857
12.5493 16.509
12.5644 16.127
12.5796 16.296
12.5948 16.167
12.6100 16.068
12.6251 16.096
12.6403 16.023
12.6555 16.151
12.6707 16.282
12.6858 16.118
12.7010 15.886
12.7162 15.628
12.7314 15.504
12.7465 15.627
12.7617 15.524
12.7769 15.530
12.7921 15.527
12.8072 15.317
12.8224 15.311
12.8376 15.253
12.8528 15.182
12.8679 15.045
12.8831 14.746
12.8983 14.716
12.9135 14.669
12.9286 14.663
12.9438 14.509
12.9590 14.383
12.9742 14.453
12.9893 14.378
13.0045 14.315
13.0197 14.324
13.0349 14.079
13.0500 14.090
13.0652 14.205
13.0804 14.137
13.0956 13.889
13.1107 13.804
13.1259 13.878
13.1411 13.811
13.1563 13.861
13.1714 13.778
13.1866 13.759
13.2018 13.632
13.2170 13.394
13.2321 13.397
13.2473 13.364
13.2625 13.439
13.2777 13.447
13.2928 13.251
13.3080 13.513
13.3232 13.649
13.3384 13.262
13.3535 12.986
13.3687 12.969
13.3839 13.000
13.3991 13.027
13.4142 13.230
13.4294 13.250
13.4446 13.142
13.4598 12.953
13.4749 12.879
13.4901 12.864
13.5053 12.843
13.5205 12.673
13.5356 12.524
13.5508 12.776
13.5660 12.779
13.5812 12.666
13.5963 12.403
13.6115 12.256
13.6267 12.021
13.6419 11.917
13.6570 12.173
13.6722 12.425
13.6874 12.368
13.7026 12.080
13.7177 11.993
13.7329 12.222
13.7481 12.220
13.7633 12.249
13.7784 12.033
13.7936 12.218
13.8088 12.518
13.8239 12.612
13.8391 12.568
13.8543 12.637
13.8695 12.445
13.8846 12.391
13.8998 12.408
13.9150 12.115
13.9302 12.058
13.9453 12.150
13.9605 12.232
13.9757 12.000
13.9909 11.883
14.0060 11.968
14.0212 11.848
14.0364 11.936
14.0516 11.473
14.0667 11.720
14.0819 11.892
14.0971 11.722
14.1123 11.657
14.1274 11.268
14.1426 11.524
14.1578 11.467
14.1730 11.539
14.1881 11.376
14.2033 11.378
14.2185 11.186
14.2337 11.435
14.2488 11.404
14.2640 11.513
14.2792 11.565
14.2944 11.636
14.3095 11.772
14.3247 11.705
14.3399 11.820
14.3551 11.776
14.3702 12.183
14.3854 12.121
14.4006 12.581
14.4158 12.774
14.4309 12.676
14.4461 12.536
14.4613 12.108
14.4765 12.140
14.4916 12.089
14.5068 12.140
14.5220 11.642
14.5372 11.442
14.5523 11.981
14.5675 11.290
14.5827 11.143
14.5979 11.183
14.6130 11.081
14.6282 11.028
14.6434 11.127
14.6586 11.187
14.6737 11.036
14.6889 11.347
14.7041 11.083
14.7193 10.847
14.7344 11.094
14.7496 11.220
14.7648 11.201
14.7800 11.120
14.7951 11.123
14.8103 11.042
14.8255 10.816
14.8407 10.790
14.8558 10.993
14.8710 10.962
14.8862 10.612
14.9014 10.836
14.9165 10.955
14.9317 11.100
14.9469 10.742
14.9621 10.790
14.9772 10.545
14.9924 10.591
15.0076 10.467
15.0228 10.511
15.0379 10.772
15.0531 10.554
15.0683 10.674
15.0835 10.623
15.0986 10.329
15.1138 10.411
15.1290 10.304
15.1442 10.385
15.1593 10.403
15.1745 10.621
15.1897 10.411
15.2049 10.281
15.2200 10.378
15.2352 10.481
15.2504 10.225
15.2656 10.364
15.2807 10.084
15.2959 10.513
15.3111 10.244
15.3263 10.674
15.3414 10.270
15.3566 10.093
15.3718 10.538
15.3870 10.645
15.4021 10.398
15.4173 10.299
15.4325 10.389
15.4477 10.624
15.4628 10.503
15.4780 10.749
15.4932 10.247
15.5084 10.447
15.5235 10.331
15.5387 10.432
15.5539 10.302
15.5691 10.456
15.5842 10.402
15.5994 10.180
15.6146 10.158
15.6298 10.226
15.6449 10.164
15.6601 10.019
15.6753 10.113
15.6905 10.585
15.7056 10.118
15.7208 9.825
15.7360 9.903
15.7512 9.821
15.7663 9.924
15.7815 9.955
15.7967 9.922
15.8119 10.084
15.8270 10.044
15.8422 10.245
15.8574 10.070
15.8726 9.668
15.8877 9.848
15.9029 9.650
15.9181 9.762
15.9333 9.950
15.9484 9.922
15.9636 9.609
15.9788 9.736
15.9940 9.997
16.0091 9.915
16.0243 9.735
16.0395 9.624
16.0547 9.745
16.0698 9.892
16.0850 9.976
16.1002 9.944
16.1154 9.780
16.1305 9.611
16.1457 9.737
16.1609 10.137
16.1761 9.765
16.1912 9.793
16.2064 9.825
16.2216 9.909
16.2368 9.888
16.2519 10.003
16.2671 10.071
16.2823 10.224
16.2975 10.182
16.3126 10.036
16.3278 9.907
16.3430 9.995
16.3582 10.087
16.3733 10.063
16.3885 10.268
16.4037 10.144
16.4189 10.051
16.4340 10.013
16.4492 9.829
16.4644 9.777
16.4796 9.692
16.4947 10.017
16.5099 9.940
16.5251 9.968
16.5403 9.951
16.5554 9.800
16.5706 9.648
16.5858 9.660
16.6010 10.034
16.6161 10.146
16.6313 10.087
16.6465 9.981
16.6617 9.822
16.6768 9.867
16.6920 9.900
16.7072 9.980
16.7224 10.025
16.7375 9.913
16.7527 9.995
16.7679 10.069
16.7831 10.030
16.7982 9.822
16.8134 9.837
16.8286 10.167
16.8438 10.204
16.8589 9.979
16.8741 9.865
16.8893 9.826
16.9045 9.758
16.9196 9.541
16.9348 9.689
16.9500 10.011
16.9652 9.969
16.9803 9.840
16.9955 9.867
17.0107 9.945
17.0259 10.009
17.0410 10.136
17.0562 10.205
17.0714 10.189
17.0866 10.381
17.1017 10.666
17.1169 10.983
17.1321 11.250
17.1473 11.522
17.1624 11.908
17.1776 12.451
17.1928 13.283
17.2080 14.174
17.2231 15.297
17.2383 16.430
17.2535 17.668
17.2687 18.566
17.2838 18.676
17.2990 18.535
17.3142 17.782
17.3294 16.700
17.3445 16.156
17.3597 16.061
17.3749 16.073
17.3901 15.476
17.4052 14.327
17.4204 13.313
17.4356 12.556
17.4508 11.846
17.4659 11.479
17.4811 11.407
17.4963 11.167
17.5115 11.085
17.5266 10.922
17.5418 10.751
17.5570 10.609
17.5722 10.538
17.5873 10.582
17.6025 10.479
17.6177 10.334
17.6329 10.258
17.6480 10.230
17.6632 10.108
17.6784 10.088
17.6936 10.178
17.7087 10.121
17.7239 10.130
17.7391 10.373
17.7543 10.449
17.7694 10.482
17.7846 10.546
17.7998 10.541
17.8150 10.581
17.8301 10.883
17.8453 10.677
17.8605 10.402
17.8757 10.662
17.8908 10.924
17.9060 10.995
17.9212 10.856
17.9364 10.583
17.9515 10.540
17.9667 10.637
17.9819 10.715
17.9971 10.785
18.0122 10.415
18.0274 10.472
18.0426 10.468
18.0578 10.363
18.0729 10.288
18.0881 10.039
18.1033 10.047
18.1185 9.976
18.1336 10.075
18.1488 10.300
18.1640 10.062
18.1792 10.155
18.1943 10.240
18.2095 9.880
18.2247 9.862
18.2399 10.009
18.2550 9.904
18.2702 9.857
18.2854 9.973
18.3006 9.791
18.3157 9.781
18.3309 9.827
18.3461 9.689
18.3613 9.594
18.3764 9.813
18.3916 9.983
18.4068 9.695
18.4220 9.743
18.4371 9.889
18.4523 9.745
18.4675 9.727
18.4827 9.835
18.4978 9.765
18.5130 9.788
18.5282 9.863
18.5434 9.729
18.5585 9.936
18.5737 9.895
18.5889 9.906
18.6041 9.815
18.6192 9.716
18.6344 9.731
18.6496 9.633
18.6648 9.556
18.6799 9.536
18.6951 9.766
18.7103 9.944
18.7255 9.737
18.7406 9.649
18.7558 9.815
18.7710 9.796
18.7862 9.749
18.8013 9.689
18.8165 9.688
18.8317 9.933
18.8469 10.041
18.8620 9.853
18.8772 9.691
18.8924 9.738
18.9076 9.904
18.9227 9.979
18.9379 9.939
18.9531 9.910
18.9683 10.224
18.9834 10.250
18.9986 10.188
19.0138 10.159
19.0290 10.263
19.0441 10.253
19.0593 10.196
19.0745 10.126
19.0897 10.133
19.1048 10.257
19.1200 10.404
19.1352 10.430
19.1504 10.575
19.1655 10.691
19.1807 10.602
19.1959 10.427
19.2111 10.521
19.2262 10.888
19.2414 10.859
19.2566 10.749
19.2718 10.808
19.2869 10.718
19.3021 10.812
19.3173 11.064
19.3325 11.129
19.3476 11.060
19.3628 11.128
19.3780 11.185
19.3932 11.214
19.4083 11.259
19.4235 11.141
19.4387 11.168
19.4539 11.385
19.4690 11.390
19.4842 11.436
19.4994 11.409
19.5146 11.520
19.5297 11.582
19.5449 11.493
19.5601 11.530
19.5753 11.480
19.5904 11.468
19.6056 11.698
19.6208 11.689
19.6360 11.554
19.6511 11.802
19.6663 11.801
19.6815 11.717
19.6967 11.640
19.7118 11.628
19.7270 11.710
19.7422 11.896
19.7574 11.843
19.7725 11.837
19.7877 11.883
19.8029 11.871
19.8180 11.831
19.8332 11.930
19.8484 12.361
19.8636 12.340
19.8787 12.461
19.8939 12.758
19.9091 12.902
19.9243 13.148
19.9394 13.612
19.9546 14.001
19.9698 14.167
19.9850 14.503
20.0001 14.620
20.0153 14.463
20.0305 14.100
20.0457 13.737
20.0608 13.755
20.0760 13.728
20.0912 13.843
20.1064 13.709
20.1215 13.624
20.1367 13.274
20.1519 12.806
20.1671 12.829
20.1822 12.810
20.1974 12.853
20.2126 12.534
20.2278 12.485
20.2429 12.468
20.2581 12.100
20.2733 11.813
20.2885 12.089
20.3036 11.892
20.3188 11.632
20.3340 11.658
20.3492 11.656
20.3643 11.542
20.3795 11.374
20.3947 11.149
20.4099 10.947
20.4250 10.834
20.4402 10.467
20.4554 10.457
20.4706 10.861
20.4857 10.928
20.5009 10.790
20.5161 10.699
20.5313 10.647
20.5464 10.448
20.5616 10.471
20.5768 10.630
20.5920 10.537
20.6071 10.263
20.6223 10.341
20.6375 10.428
20.6527 10.405
20.6678 10.457
20.6830 10.416
20.6982 10.548
20.7134 10.433
20.7285 10.428
20.7437 10.461
20.7589 10.188
20.7741 10.463
20.7892 10.417
20.8044 10.269
20.8196 10.342
20.8348 10.570
20.8499 10.379
20.8651 10.289
20.8803 10.288
20.8955 10.286
20.9106 10.396
20.9258 10.497
20.9410 10.649
20.9562 10.347
20.9713 10.617
20.9865 10.277
21.0017 10.411
21.0169 10.413
21.0320 10.211
21.0472 10.276
21.0624 10.130
21.0776 10.480
21.0927 10.156
21.1079 10.147
21.1231 10.025
21.1383 10.124
21.1534 9.688
21.1686 9.805
21.1838 9.653
21.1990 9.629
21.2141 9.917
21.2293 9.405
21.2445 9.779
21.2597 9.602
21.2748 9.615
21.2900 9.512
21.3052 9.835
21.3204 9.735
21.3355 9.721
21.3507 9.656
21.3659 9.238
21.3811 9.384
21.3962 9.721
21.4114 9.444
21.4266 9.409
21.4418 9.377
21.4569 9.684
21.4721 9.309
21.4873 9.512
21.5025 9.413
21.5176 9.353
21.5328 9.333
21.5480 9.200
21.5632 9.347
21.5783 9.238
21.5935 9.079
21.6087 9.300
21.6239 8.898
21.6390 8.973
21.6542 9.001
21.6694 9.186
21.6846 9.240
21.6997 8.956
21.7149 9.016
21.7301 9.095
21.7453 9.231
21.7604 9.044
21.7756 8.958
21.7908 9.106
21.8060 9.084
21.8211 9.136
21.8363 9.193
21.8515 9.099
21.8667 9.042
21.8818 8.982
21.8970 8.987
21.9122 8.978
21.9274 8.944
21.9425 8.869
21.9577 8.909
21.9729 8.830
21.9881 8.882
22.0032 8.936
22.0184 8.873
22.0336 8.967
22.0488 8.661
22.0639 8.777
22.0791 8.826
22.0943 8.613
22.1095 8.527
22.1246 8.684
22.1398 8.747
22.1550 8.662
22.1702 8.685
22.1853 8.546
22.2005 8.713
22.2157 9.103
22.2309 8.858
22.2460 8.715
22.2612 8.474
22.2764 8.458
22.2916 8.592
22.3067 8.587
22.3219 8.565
22.3371 8.707
22.3523 8.637
22.3674 8.925
22.3826 8.668
22.3978 8.399
22.4130 8.392
22.4281 8.692
22.4433 8.798
22.4585 8.479
22.4737 8.550
22.4888 8.181
22.5040 8.465
22.5192 8.658
22.5344 8.410
22.5495 8.369
22.5647 8.565
22.5799 8.379
22.5951 8.343
22.6102 8.464
22.6254 8.484
22.6406 8.460
22.6558 8.469
22.6709 8.603
22.6861 8.364
22.7013 8.349
22.7165 7.889
22.7316 6.411
