'Id: "" Comment: "" Operator: "Lab Manager" Anode: "Mo" Scantype: "Still (Eiger2R_500K (1D mode))" TimePerStep: "300" X: "11.8" Y: "9.4" Z: "11.284" 
7.2532 19.050
7.2684 19.183
7.2836 18.936
7.2987 19.033
7.3139 19.135
7.3291 19.021
7.3443 19.389
7.3594 19.770
7.3746 19.454
7.3898 19.462
7.4050 19.642
7.4201 19.296
7.4353 19.271
7.4505 19.331
7.4657 18.972
7.4808 19.499
7.4960 19.687
7.5112 19.232
7.5264 19.948
7.5415 20.028
7.5567 20.079
7.5719 19.788
7.5871 19.946
7.6022 20.279
7.6174 20.411
7.6326 20.038
7.6478 20.376
7.6629 20.363
7.6781 20.588
7.6933 20.565
7.7085 20.605
7.7236 20.324
7.7388 20.235
7.7540 20.234
7.7692 20.408
7.7843 20.604
7.7995 20.747
7.8147 20.872
7.8299 20.777
7.8450 20.837
7.8602 20.968
7.8754 20.763
7.8905 20.718
7.9057 20.772
7.9209 20.657
7.9361 20.966
7.9512 20.916
7.9664 20.943
7.9816 21.032
7.9968 21.089
8.0119 21.076
8.0271 20.968
8.0423 21.335
8.0575 21.633
8.0726 21.431
8.0878 21.176
8.1030 21.376
8.1182 21.823
8.1333 21.788
8.1485 21.832
8.1637 21.841
8.1789 21.976
8.1940 21.980
8.2092 22.002
8.2244 21.416
8.2396 22.046
8.2547 21.846
8.2699 22.064
8.2851 21.931
8.3003 21.722
8.3154 21.387
8.3306 21.349
8.3458 21.336
8.3610 21.319
8.3761 21.697
8.3913 22.463
8.4065 22.226
8.4217 22.429
8.4368 22.327
8.4520 22.043
8.4672 22.122
8.4824 22.218
8.4975 22.531
8.5127 22.204
8.5279 22.469
8.5431 22.154
8.5582 22.325
8.5734 22.430
8.5886 22.196
8.6038 22.435
8.6189 22.812
8.6341 22.308
8.6493 22.436
8.6645 22.488
8.6796 22.266
8.6948 22.350
8.7100 22.059
8.7252 22.222
8.7403 22.602
8.7555 22.608
8.7707 22.110
8.7859 22.637
8.8010 22.888
8.8162 22.513
8.8314 22.673
8.8466 22.165
8.8617 22.749
8.8769 22.764
8.8921 22.244
8.9073 22.292
8.9224 22.424
8.9376 22.738
8.9528 22.723
8.9680 22.973
8.9831 23.029
8.9983 22.804
9.0135 22.777
9.0287 22.629
9.0438 22.679
9.0590 22.806
9.0742 22.694
9.0894 22.920
9.1045 22.934
9.1197 22.565
9.1349 22.724
9.1501 23.185
9.1652 23.200
9.1804 23.041
9.1956 22.999
9.2108 23.321
9.2259 23.335
9.2411 22.925
9.2563 23.066
9.2715 23.065
9.2866 23.296
9.3018 23.186
9.3170 23.237
9.3322 22.837
9.3473 22.973
9.3625 23.131
9.3777 22.970
9.3929 23.003
9.4080 22.775
9.4232 22.656
9.4384 23.116
9.4536 22.888
9.4687 23.127
9.4839 23.451
9.4991 23.527
9.5143 23.549
9.5294 23.214
9.5446 22.930
9.5598 22.938
9.5750 23.166
9.5901 23.225
9.6053 23.141
9.6205 23.371
9.6357 23.671
9.6508 23.491
9.6660 23.526
9.6812 23.664
9.6964 23.838
9.7115 24.152
9.7267 24.150
9.7419 23.921
9.7571 23.802
9.7722 23.751
9.7874 23.743
9.8026 24.003
9.8178 23.850
9.8329 23.512
9.8481 23.790
9.8633 23.847
9.8785 23.694
9.8936 23.986
9.9088 24.144
9.9240 24.319
9.9392 24.579
9.9543 24.157
9.9695 24.020
9.9847 23.957
9.9999 23.873
10.0150 23.675
10.0302 23.277
10.0454 23.064
10.0606 23.259
10.0757 23.667
10.0909 23.637
10.1061 23.779
10.1213 23.631
10.1364 23.910
10.1516 23.450
10.1668 23.242
10.1820 23.414
10.1971 23.832
10.2123 23.726
10.2275 23.644
10.2427 23.914
10.2578 23.627
10.2730 23.480
10.2882 23.130
10.3034 23.236
10.3185 23.181
10.3337 23.216
10.3489 23.482
10.3641 23.461
10.3792 23.157
10.3944 23.387
10.4096 23.208
10.4248 23.080
10.4399 23.449
10.4551 23.277
10.4703 22.792
10.4855 22.755
10.5006 22.997
10.5158 22.666
10.5310 22.743
10.5462 22.961
10.5613 23.142
10.5765 22.693
10.5917 22.596
10.6069 22.900
10.6220 23.008
10.6372 22.965
10.6524 22.693
10.6676 22.694
10.6827 22.704
10.6979 22.228
10.7131 22.329
10.7283 22.578
10.7434 22.348
10.7586 22.638
10.7738 22.297
10.7890 22.392
10.8041 22.601
10.8193 22.581
10.8345 22.380
10.8497 22.185
10.8648 22.080
10.8800 22.041
10.8952 21.915
10.9104 22.090
10.9255 21.918
10.9407 22.304
10.9559 22.478
10.9711 22.314
10.9862 22.228
11.0014 22.115
11.0166 22.103
11.0318 21.906
11.0469 21.777
11.0621 21.907
11.0773 21.655
11.0925 21.864
11.1076 21.898
11.1228 21.799
11.1380 21.880
11.1532 21.960
11.1683 21.745
11.1835 21.604
11.1987 21.651
11.2139 21.663
11.2290 21.609
11.2442 21.424
11.2594 21.641
11.2746 21.654
11.2897 21.699
11.3049 21.713
11.3201 21.889
11.3353 21.425
11.3504 21.136
11.3656 21.470
11.3808 21.360
11.3960 21.506
11.4111 21.766
11.4263 21.364
11.4415 21.168
11.4567 21.400
11.4718 21.380
11.4870 21.210
11.5022 21.107
11.5174 20.845
11.5325 21.047
11.5477 21.213
11.5629 21.272
11.5781 20.904
11.5932 21.186
11.6084 20.996
11.6236 20.804
11.6388 20.744
11.6539 20.700
11.6691 20.358
11.6843 20.289
11.6995 20.347
11.7146 20.452
11.7298 20.329
11.7450 20.192
11.7602 20.449
11.7753 20.140
11.7905 20.361
11.8057 20.145
11.8209 19.932
11.8360 20.130
11.8512 19.823
11.8664 19.847
11.8816 19.769
11.8967 19.784
11.9119 19.592
11.9271 19.596
11.9423 19.466
11.9574 19.197
11.9726 19.403
11.9878 19.628
12.0030 19.438
12.0181 19.025
12.0333 19.062
12.0485 18.987
12.0637 18.876
12.0788 19.311
12.0940 19.314
12.1092 18.806
12.1244 18.670
12.1395 18.530
12.1547 18.428
12.1699 18.475
12.1851 18.484
12.2002 18.474
12.2154 18.338
12.2306 18.033
12.2458 18.168
12.2609 17.796
12.2761 17.719
12.2913 17.628
12.3065 17.807
12.3216 17.609
12.3368 17.531
12.3520 17.538
12.3672 17.420
12.3823 17.037
12.3975 17.012
12.4127 16.717
12.4279 16.857
12.4430 16.860
12.4582 16.851
12.4734 16.568
12.4886 16.257
12.5037 16.119
12.5189 16.329
12.5341 16.676
12.5493 16.412
12.5644 16.561
12.5796 16.407
12.5948 16.332
12.6100 16.496
12.6251 16.192
12.6403 15.803
12.6555 15.726
12.6707 15.527
12.6858 15.616
12.7010 15.701
12.7162 15.453
12.7314 15.448
12.7465 15.428
12.7617 15.152
12.7769 14.993
12.7921 15.017
12.8072 14.796
12.8224 14.682
12.8376 14.959
12.8528 15.249
12.8679 15.045
12.8831 14.646
12.8983 14.497
12.9135 14.420
12.9286 14.591
12.9438 14.626
12.9590 14.406
12.9742 14.284
12.9893 14.271
13.0045 14.091
13.0197 14.151
13.0349 14.356
13.0500 14.345
13.0652 14.234
13.0804 13.911
13.0956 13.672
13.1107 13.601
13.1259 13.691
13.1411 13.797
13.1563 13.574
13.1714 13.493
13.1866 13.552
13.2018 13.362
13.2170 13.340
13.2321 13.358
13.2473 13.052
13.2625 12.994
13.2777 13.229
13.2928 13.193
13.3080 13.005
13.3232 13.115
13.3384 13.132
13.3535 12.887
13.3687 12.919
13.3839 12.978
13.3991 13.149
13.4142 13.116
13.4294 12.906
13.4446 12.588
13.4598 12.485
13.4749 12.739
13.4901 12.794
13.5053 12.736
13.5205 12.310
13.5356 12.309
13.5508 12.230
13.5660 12.256
13.5812 12.240
13.5963 12.301
13.6115 12.339
13.6267 12.285
13.6419 12.054
13.6570 12.094
13.6722 11.885
13.6874 11.987
13.7026 12.170
13.7177 12.060
13.7329 11.995
13.7481 12.212
13.7633 12.095
13.7784 12.006
13.7936 11.970
13.8088 12.076
13.8239 11.975
13.8391 12.255
13.8543 12.391
13.8695 12.194
13.8846 11.994
13.8998 12.200
13.9150 12.203
13.9302 12.185
13.9453 11.911
13.9605 11.726
13.9757 11.561
13.9909 11.511
14.0060 11.715
14.0212 11.451
14.0364 11.221
14.0516 11.232
14.0667 11.136
14.0819 11.058
14.0971 11.274
14.1123 11.460
14.1274 11.207
14.1426 11.328
14.1578 11.424
14.1730 11.196
14.1881 11.285
14.2033 11.272
14.2185 11.339
14.2337 11.506
14.2488 11.363
14.2640 11.204
14.2792 11.176
14.2944 11.240
14.3095 11.666
14.3247 11.863
14.3399 11.807
14.3551 12.097
14.3702 12.282
14.3854 12.683
14.4006 12.888
14.4158 13.038
14.4309 13.258
14.4461 13.317
14.4613 13.468
14.4765 13.304
14.4916 13.089
14.5068 13.193
14.5220 13.574
14.5372 13.398
14.5523 13.263
14.5675 13.064
14.5827 12.289
14.5979 12.446
14.6130 12.454
14.6282 12.025
14.6434 12.071
14.6586 11.866
14.6737 11.689
14.6889 11.437
14.7041 11.311
14.7193 11.061
14.7344 11.037
14.7496 11.010
14.7648 11.005
14.7800 11.249
14.7951 11.172
14.8103 11.436
14.8255 11.308
14.8407 11.262
14.8558 11.282
14.8710 10.998
14.8862 11.294
14.9014 10.807
14.9165 11.186
14.9317 11.004
14.9469 10.530
14.9621 10.514
14.9772 10.570
14.9924 10.517
15.0076 10.809
15.0228 11.085
15.0379 10.963
15.0531 10.834
15.0683 10.608
15.0835 10.827
15.0986 10.653
15.1138 10.464
15.1290 10.769
15.1442 10.444
15.1593 10.578
15.1745 10.883
15.1897 10.234
15.2049 10.374
15.2200 10.065
15.2352 10.564
15.2504 10.616
15.2656 10.495
15.2807 10.538
15.2959 10.156
15.3111 10.274
15.3263 10.321
15.3414 10.635
15.3566 10.552
15.3718 10.262
15.3870 10.348
15.4021 10.682
15.4173 10.472
15.4325 10.545
15.4477 10.680
15.4628 10.471
15.4780 10.446
15.4932 10.546
15.5084 10.186
15.5235 10.573
15.5387 10.298
15.5539 10.442
15.5691 10.209
15.5842 10.298
15.5994 9.991
15.6146 10.332
15.6298 10.096
15.6449 10.149
15.6601 10.463
15.6753 10.002
15.6905 10.083
15.7056 9.986
15.7208 10.045
15.7360 9.865
15.7512 9.820
15.7663 9.811
15.7815 10.097
15.7967 10.177
15.8119 9.994
15.8270 10.326
15.8422 9.848
15.8574 9.584
15.8726 9.945
15.8877 10.094
15.9029 9.979
15.9181 9.818
15.9333 9.628
15.9484 9.871
15.9636 9.786
15.9788 10.008
15.9940 9.887
16.0091 9.859
16.0243 9.735
16.0395 9.740
16.0547 9.923
16.0698 9.729
16.0850 9.898
16.1002 9.744
16.1154 9.663
16.1305 9.757
16.1457 9.671
16.1609 9.533
16.1761 9.620
16.1912 9.705
16.2064 9.684
16.2216 9.900
16.2368 9.752
16.2519 9.911
16.2671 9.564
16.2823 10.110
16.2975 10.246
16.3126 10.451
16.3278 10.276
16.3430 9.975
16.3582 10.187
16.3733 10.207
16.3885 10.259
16.4037 9.978
16.4189 9.995
16.4340 9.868
16.4492 9.848
16.4644 9.798
16.4796 9.831
16.4947 9.964
16.5099 10.010
16.5251 9.811
16.5403 9.914
16.5554 9.804
16.5706 9.897
16.5858 9.915
16.6010 9.741
16.6161 9.981
16.6313 10.142
16.6465 10.037
16.6617 9.959
16.6768 9.969
16.6920 10.176
16.7072 10.131
16.7224 10.197
16.7375 10.260
16.7527 9.980
16.7679 9.808
16.7831 9.980
16.7982 10.064
16.8134 9.927
16.8286 9.880
16.8438 10.155
16.8589 9.913
16.8741 9.761
16.8893 9.882
16.9045 9.876
16.9196 9.821
16.9348 9.708
16.9500 9.710
16.9652 9.782
16.9803 9.825
16.9955 9.856
17.0107 10.134
17.0259 10.034
17.0410 10.006
17.0562 10.189
17.0714 10.383
17.0866 10.660
17.1017 10.610
17.1169 10.662
17.1321 10.890
17.1473 11.309
17.1624 11.987
17.1776 12.563
17.1928 13.056
17.2080 14.084
17.2231 14.893
17.2383 16.037
17.2535 17.721
17.2687 18.578
17.2838 18.770
17.2990 18.119
17.3142 17.132
17.3294 16.366
17.3445 15.928
17.3597 15.971
17.3749 16.065
17.3901 15.348
17.4052 14.097
17.4204 13.130
17.4356 12.226
17.4508 11.697
17.4659 11.380
17.4811 11.154
17.4963 11.105
17.5115 10.955
17.5266 10.695
17.5418 10.668
17.5570 10.694
17.5722 10.596
17.5873 10.550
17.6025 10.354
17.6177 10.260
17.6329 10.242
17.6480 10.286
17.6632 10.177
17.6784 9.854
17.6936 9.782
17.7087 10.078
17.7239 10.230
17.7391 10.266
17.7543 10.507
17.7694 10.968
17.7846 11.274
17.7998 11.541
17.8150 11.982
17.8301 12.313
17.8453 12.435
17.8605 12.665
17.8757 12.734
17.8908 12.337
17.9060 12.322
17.9212 12.416
17.9364 12.117
17.9515 11.864
17.9667 11.801
17.9819 11.544
17.9971 11.274
18.0122 11.113
18.0274 11.051
18.0426 10.625
18.0578 10.498
18.0729 10.364
18.0881 10.212
18.1033 10.124
18.1185 10.020
18.1336 10.126
18.1488 10.228
18.1640 10.154
18.1792 9.864
18.1943 9.964
18.2095 9.832
18.2247 9.772
18.2399 10.055
18.2550 10.042
18.2702 9.850
18.2854 10.035
18.3006 10.015
18.3157 10.032
18.3309 9.900
18.3461 9.698
18.3613 9.856
18.3764 9.997
18.3916 9.966
18.4068 9.888
18.4220 9.932
18.4371 9.892
18.4523 9.764
18.4675 9.639
18.4827 9.652
18.4978 9.780
18.5130 9.760
18.5282 10.143
18.5434 10.128
18.5585 9.909
18.5737 9.600
18.5889 9.543
18.6041 9.713
18.6192 9.793
18.6344 9.773
18.6496 9.872
18.6648 10.028
18.6799 10.159
18.6951 9.847
18.7103 9.630
18.7255 9.593
18.7406 9.729
18.7558 9.884
18.7710 9.906
18.7862 9.901
18.8013 9.783
18.8165 9.668
18.8317 9.918
18.8469 9.702
18.8620 9.630
18.8772 9.862
18.8924 9.869
18.9076 9.828
18.9227 9.926
18.9379 9.903
18.9531 9.889
18.9683 10.055
18.9834 10.085
18.9986 10.010
19.0138 10.311
19.0290 10.308
19.0441 10.362
19.0593 10.451
19.0745 10.440
19.0897 10.401
19.1048 10.303
19.1200 10.364
19.1352 10.505
19.1504 10.680
19.1655 10.845
19.1807 10.820
19.1959 10.712
19.2111 10.795
19.2262 10.819
19.2414 10.785
19.2566 10.928
19.2718 11.275
19.2869 11.192
19.3021 11.174
19.3173 11.346
19.3325 10.983
19.3476 11.171
19.3628 11.543
19.3780 11.489
19.3932 11.196
19.4083 11.119
19.4235 11.258
19.4387 11.312
19.4539 11.215
19.4690 11.324
19.4842 11.198
19.4994 11.164
19.5146 11.489
19.5297 11.835
19.5449 11.518
19.5601 11.294
19.5753 11.502
19.5904 11.615
19.6056 11.712
19.6208 11.752
19.6360 11.786
19.6511 11.809
19.6663 11.664
19.6815 11.708
19.6967 11.637
19.7118 11.508
19.7270 11.723
19.7422 11.828
19.7574 11.740
19.7725 11.652
19.7877 11.745
19.8029 11.800
19.8180 11.710
19.8332 11.973
19.8484 12.144
19.8636 12.148
19.8787 12.443
19.8939 12.713
19.9091 13.111
19.9243 13.375
19.9394 13.757
19.9546 14.254
19.9698 14.414
19.9850 14.346
20.0001 14.399
20.0153 14.394
20.0305 14.328
20.0457 13.953
20.0608 13.636
20.0760 13.555
20.0912 13.515
20.1064 13.640
20.1215 13.549
20.1367 13.394
20.1519 13.047
20.1671 12.644
20.1822 12.635
20.1974 12.445
20.2126 12.477
20.2278 12.536
20.2429 12.533
20.2581 12.156
20.2733 11.889
20.2885 11.656
20.3036 11.636
20.3188 11.528
20.3340 11.278
20.3492 11.483
20.3643 11.667
20.3795 11.455
20.3947 11.270
20.4099 11.067
20.4250 10.884
20.4402 10.961
20.4554 11.029
20.4706 10.801
20.4857 10.772
20.5009 10.703
20.5161 10.691
20.5313 10.897
20.5464 10.896
20.5616 10.968
20.5768 10.980
20.5920 10.786
20.6071 10.738
20.6223 10.873
20.6375 10.807
20.6527 10.824
20.6678 10.865
20.6830 10.960
20.6982 11.012
20.7134 10.846
20.7285 11.021
20.7437 10.543
20.7589 10.660
20.7741 10.828
20.7892 10.695
20.8044 10.585
20.8196 10.625
20.8348 10.400
20.8499 10.684
20.8651 10.544
20.8803 10.637
20.8955 10.420
20.9106 10.364
20.9258 10.824
20.9410 10.713
20.9562 10.685
20.9713 10.822
20.9865 10.599
21.0017 10.685
21.0169 10.290
21.0320 10.368
21.0472 10.435
21.0624 10.692
21.0776 10.191
21.0927 9.898
21.1079 10.148
21.1231 10.425
21.1383 10.008
21.1534 10.104
21.1686 9.747
21.1838 9.794
21.1990 10.423
21.2141 10.033
21.2293 9.619
21.2445 9.839
21.2597 9.545
21.2748 9.825
21.2900 9.651
21.3052 9.704
21.3204 9.493
21.3355 9.750
21.3507 9.450
21.3659 9.444
21.3811 9.327
21.3962 8.899
21.4114 9.588
21.4266 9.344
21.4418 9.265
21.4569 9.300
21.4721 9.360
21.4873 9.350
21.5025 9.048
21.5176 9.657
21.5328 9.297
21.5480 9.303
21.5632 9.364
21.5783 9.508
21.5935 8.975
21.6087 8.934
21.6239 9.210
21.6390 9.055
21.6542 8.939
21.6694 9.092
21.6846 9.026
21.6997 8.935
21.7149 8.822
21.7301 9.259
21.7453 9.272
21.7604 9.209
21.7756 8.997
21.7908 8.967
21.8060 9.086
21.8211 9.150
21.8363 9.067
21.8515 9.010
21.8667 8.994
21.8818 8.847
21.8970 8.840
21.9122 8.993
21.9274 9.039
21.9425 8.656
21.9577 8.748
21.9729 8.882
21.9881 9.025
22.0032 8.908
22.0184 8.808
22.0336 8.738
22.0488 8.778
22.0639 8.665
22.0791 8.567
22.0943 8.691
22.1095 8.682
22.1246 8.605
22.1398 8.653
22.1550 8.799
22.1702 8.614
22.1853 8.705
22.2005 8.598
22.2157 8.663
22.2309 8.782
22.2460 8.586
22.2612 8.472
22.2764 8.485
22.2916 8.428
22.3067 8.457
22.3219 8.413
22.3371 8.405
22.3523 8.505
22.3674 8.541
22.3826 8.726
22.3978 8.535
22.4130 8.311
22.4281 8.308
22.4433 8.589
22.4585 8.496
22.4737 8.502
22.4888 8.498
22.5040 8.258
22.5192 8.290
22.5344 8.616
22.5495 8.430
22.5647 8.540
22.5799 8.635
22.5951 8.543
22.6102 8.310
22.6254 8.665
22.6406 8.394
22.6558 8.418
22.6709 8.090
22.6861 8.378
22.7013 8.389
22.7165 7.813
22.7316 6.378
