'Id: "" Comment: "" Operator: "Lab Manager" Anode: "Mo" Scantype: "Still (Eiger2R_500K (1D mode))" TimePerStep: "300" X: "11.8" Y: "9.4" Z: "11.284" 
7.2532 19.243
7.2684 18.761
7.2836 19.319
7.2987 19.195
7.3139 19.290
7.3291 18.764
7.3443 18.860
7.3594 19.244
7.3746 19.627
7.3898 19.511
7.4050 19.597
7.4201 19.522
7.4353 19.629
7.4505 19.872
7.4657 19.672
7.4808 19.296
7.4960 19.446
7.5112 19.862
7.5264 19.715
7.5415 19.736
7.5567 19.811
7.5719 19.792
7.5871 19.736
7.6022 19.673
7.6174 19.852
7.6326 19.743
7.6478 20.158
7.6629 20.350
7.6781 20.141
7.6933 20.247
7.7085 20.419
7.7236 20.456
7.7388 20.300
7.7540 20.336
7.7692 20.468
7.7843 20.515
7.7995 20.488
7.8147 20.424
7.8299 20.410
7.8450 20.316
7.8602 20.632
7.8754 20.817
7.8905 20.539
7.9057 20.563
7.9209 20.876
7.9361 21.109
7.9512 21.112
7.9664 21.359
7.9816 21.510
7.9968 21.362
8.0119 21.441
8.0271 21.097
8.0423 20.888
8.0575 21.092
8.0726 21.216
8.0878 21.265
8.1030 21.006
8.1182 21.284
8.1333 21.467
8.1485 21.452
8.1637 21.622
8.1789 21.418
8.1940 21.595
8.2092 21.519
8.2244 21.612
8.2396 21.484
8.2547 21.246
8.2699 21.468
8.2851 21.454
8.3003 21.443
8.3154 21.575
8.3306 21.684
8.3458 21.746
8.3610 21.765
8.3761 21.695
8.3913 21.966
8.4065 22.469
8.4217 22.162
8.4368 22.177
8.4520 21.947
8.4672 21.581
8.4824 22.238
8.4975 21.976
8.5127 22.346
8.5279 22.285
8.5431 22.052
8.5582 21.855
8.5734 22.041
8.5886 22.244
8.6038 22.416
8.6189 22.191
8.6341 21.881
8.6493 22.192
8.6645 22.441
8.6796 22.478
8.6948 22.362
8.7100 22.125
8.7252 22.589
8.7403 22.979
8.7555 22.483
8.7707 22.298
8.7859 22.160
8.8010 22.454
8.8162 22.636
8.8314 22.450
8.8466 22.612
8.8617 22.517
8.8769 22.695
8.8921 22.631
8.9073 22.595
8.9224 22.374
8.9376 22.664
8.9528 22.649
8.9680 22.799
8.9831 22.736
8.9983 22.388
9.0135 22.646
9.0287 22.647
9.0438 22.540
9.0590 22.935
9.0742 23.133
9.0894 22.969
9.1045 22.743
9.1197 23.040
9.1349 22.750
9.1501 23.078
9.1652 22.793
9.1804 22.902
9.1956 22.862
9.2108 22.857
9.2259 22.951
9.2411 23.026
9.2563 23.032
9.2715 22.762
9.2866 22.781
9.3018 23.145
9.3170 22.919
9.3322 22.935
9.3473 23.551
9.3625 23.202
9.3777 22.708
9.3929 22.775
9.4080 23.197
9.4232 23.143
9.4384 23.359
9.4536 23.493
9.4687 23.243
9.4839 22.917
9.4991 23.077
9.5143 23.129
9.5294 23.142
9.5446 22.794
9.5598 23.040
9.5750 23.438
9.5901 23.337
9.6053 23.173
9.6205 23.257
9.6357 23.765
9.6508 23.872
9.6660 23.695
9.6812 23.652
9.6964 23.909
9.7115 23.992
9.7267 24.003
9.7419 24.194
9.7571 24.182
9.7722 23.946
9.7874 23.716
9.8026 23.613
9.8178 23.662
9.8329 23.543
9.8481 23.368
9.8633 23.670
9.8785 23.583
9.8936 23.163
9.9088 23.224
9.9240 23.172
9.9392 22.781
9.9543 22.869
9.9695 23.094
9.9847 22.834
9.9999 22.960
10.0150 23.621
10.0302 23.537
10.0454 23.568
10.0606 23.410
10.0757 23.424
10.0909 23.651
10.1061 23.588
10.1213 23.445
10.1364 23.655
10.1516 23.811
10.1668 23.668
10.1820 23.666
10.1971 23.496
10.2123 23.061
10.2275 23.038
10.2427 23.058
10.2578 23.045
10.2730 23.029
10.2882 23.043
10.3034 23.208
10.3185 22.827
10.3337 22.693
10.3489 23.121
10.3641 23.089
10.3792 22.794
10.3944 22.741
10.4096 22.607
10.4248 22.476
10.4399 22.591
10.4551 22.863
10.4703 23.223
10.4855 23.144
10.5006 22.627
10.5158 22.658
10.5310 22.571
10.5462 22.796
10.5613 22.735
10.5765 22.998
10.5917 22.869
10.6069 22.735
10.6220 22.576
10.6372 22.817
10.6524 22.402
10.6676 22.750
10.6827 22.726
10.6979 22.585
10.7131 22.606
10.7283 21.953
10.7434 22.226
10.7586 22.372
10.7738 22.034
10.7890 21.778
10.8041 22.396
10.8193 22.336
10.8345 22.327
10.8497 22.168
10.8648 22.141
10.8800 22.270
10.8952 22.152
10.9104 22.320
10.9255 22.298
10.9407 22.195
10.9559 22.235
10.9711 22.193
10.9862 21.923
11.0014 22.040
11.0166 22.080
11.0318 22.144
11.0469 21.855
11.0621 22.099
11.0773 22.118
11.0925 21.790
11.1076 22.012
11.1228 21.737
11.1380 21.731
11.1532 22.079
11.1683 22.277
11.1835 22.014
11.1987 21.834
11.2139 21.773
11.2290 21.706
11.2442 21.474
11.2594 21.716
11.2746 21.851
11.2897 21.411
11.3049 21.176
11.3201 21.366
11.3353 21.216
11.3504 21.498
11.3656 21.703
11.3808 21.511
11.3960 21.248
11.4111 21.184
11.4263 21.583
11.4415 21.714
11.4567 21.285
11.4718 21.326
11.4870 21.260
11.5022 21.127
11.5174 21.381
11.5325 21.278
11.5477 21.258
11.5629 21.394
11.5781 20.896
11.5932 20.935
11.6084 20.659
11.6236 20.836
11.6388 20.614
11.6539 20.924
11.6691 20.755
11.6843 20.756
11.6995 20.515
11.7146 20.062
11.7298 20.254
11.7450 20.577
11.7602 20.313
11.7753 20.058
11.7905 20.010
11.8057 20.409
11.8209 20.131
11.8360 19.859
11.8512 19.826
11.8664 19.829
11.8816 19.842
11.8967 19.502
11.9119 19.829
11.9271 19.458
11.9423 19.392
11.9574 19.501
11.9726 19.224
11.9878 19.010
12.0030 19.245
12.0181 19.280
12.0333 19.308
12.0485 19.315
12.0637 18.795
12.0788 18.901
12.0940 18.796
12.1092 18.862
12.1244 18.838
12.1395 18.622
12.1547 18.554
12.1699 18.349
12.1851 18.527
12.2002 18.524
12.2154 18.212
12.2306 18.157
12.2458 18.180
12.2609 17.927
12.2761 18.078
12.2913 17.960
12.3065 17.542
12.3216 17.411
12.3368 17.956
12.3520 17.681
12.3672 17.647
12.3823 17.393
12.3975 17.248
12.4127 17.362
12.4279 16.981
12.4430 17.051
12.4582 17.132
12.4734 16.791
12.4886 16.612
12.5037 16.551
12.5189 16.278
12.5341 16.291
12.5493 16.395
12.5644 16.535
12.5796 16.245
12.5948 15.941
12.6100 16.259
12.6251 16.196
12.6403 16.012
12.6555 16.013
12.6707 15.933
12.6858 15.588
12.7010 15.478
12.7162 15.711
12.7314 15.693
12.7465 15.632
12.7617 15.501
12.7769 15.471
12.7921 15.442
12.8072 15.160
12.8224 14.951
12.8376 15.097
12.8528 15.158
12.8679 14.889
12.8831 14.850
12.8983 14.817
12.9135 14.747
12.9286 14.519
12.9438 14.593
12.9590 14.761
12.9742 14.350
12.9893 14.371
13.0045 14.505
13.0197 14.421
13.0349 14.160
13.0500 13.869
13.0652 13.960
13.0804 13.937
13.0956 13.899
13.1107 14.071
13.1259 14.006
13.1411 13.890
13.1563 13.857
13.1714 13.617
13.1866 13.739
13.2018 13.823
13.2170 13.446
13.2321 13.160
13.2473 13.074
13.2625 13.301
13.2777 13.518
13.2928 13.426
13.3080 13.411
13.3232 13.301
13.3384 13.104
13.3535 13.022
13.3687 12.849
13.3839 12.830
13.3991 12.978
13.4142 13.212
13.4294 13.091
13.4446 12.893
13.4598 12.727
13.4749 12.873
13.4901 12.902
13.5053 12.703
13.5205 12.581
13.5356 12.652
13.5508 12.678
13.5660 12.500
13.5812 12.582
13.5963 12.715
13.6115 12.582
13.6267 12.259
13.6419 12.117
13.6570 12.258
13.6722 12.381
13.6874 12.107
13.7026 12.014
13.7177 12.243
13.7329 12.226
13.7481 12.033
13.7633 12.269
13.7784 11.904
13.7936 11.939
13.8088 12.097
13.8239 12.441
13.8391 12.411
13.8543 12.465
13.8695 12.294
13.8846 12.281
13.8998 12.583
13.9150 12.242
13.9302 12.370
13.9453 12.236
13.9605 12.039
13.9757 12.012
13.9909 11.745
14.0060 11.539
14.0212 11.725
14.0364 11.882
14.0516 11.804
14.0667 11.925
14.0819 11.442
14.0971 11.244
14.1123 11.491
14.1274 11.752
14.1426 11.542
14.1578 11.595
14.1730 11.580
14.1881 11.474
14.2033 11.528
14.2185 11.412
14.2337 11.809
14.2488 11.788
14.2640 11.565
14.2792 11.977
14.2944 12.036
14.3095 11.963
14.3247 12.209
14.3399 12.778
14.3551 12.966
14.3702 13.239
14.3854 13.688
14.4006 13.659
14.4158 13.688
14.4309 13.563
14.4461 13.421
14.4613 12.951
14.4765 12.797
14.4916 12.599
14.5068 12.061
14.5220 11.971
14.5372 11.787
14.5523 11.506
14.5675 11.315
14.5827 11.126
14.5979 11.310
14.6130 11.010
14.6282 10.799
14.6434 10.451
14.6586 10.752
14.6737 10.815
14.6889 10.851
14.7041 10.892
14.7193 10.480
14.7344 10.783
14.7496 10.957
14.7648 10.774
14.7800 10.852
14.7951 10.663
14.8103 10.808
14.8255 10.780
14.8407 10.377
14.8558 10.363
14.8710 10.629
14.8862 10.664
14.9014 10.689
14.9165 10.880
14.9317 10.760
14.9469 10.457
14.9621 10.423
14.9772 10.335
14.9924 10.344
15.0076 10.427
15.0228 10.820
15.0379 10.408
15.0531 10.461
15.0683 10.430
15.0835 10.221
15.0986 10.299
15.1138 10.327
15.1290 10.274
15.1442 10.216
15.1593 10.116
15.1745 10.263
15.1897 10.290
15.2049 10.513
15.2200 10.321
15.2352 9.935
15.2504 10.045
15.2656 10.370
15.2807 9.731
15.2959 10.167
15.3111 10.123
15.3263 10.113
15.3414 10.072
15.3566 10.212
15.3718 10.225
15.3870 10.196
15.4021 10.479
15.4173 10.457
15.4325 10.256
15.4477 10.375
15.4628 9.937
15.4780 10.357
15.4932 10.230
15.5084 10.083
15.5235 9.975
15.5387 10.013
15.5539 9.915
15.5691 9.952
15.5842 9.755
15.5994 9.957
15.6146 9.905
15.6298 9.853
15.6449 10.052
15.6601 10.118
15.6753 9.731
15.6905 9.908
15.7056 9.587
15.7208 9.971
15.7360 9.733
15.7512 9.594
15.7663 9.643
15.7815 9.733
15.7967 9.641
15.8119 9.880
15.8270 10.079
15.8422 9.891
15.8574 9.938
15.8726 9.863
15.8877 9.617
15.9029 9.589
15.9181 9.696
15.9333 9.516
15.9484 9.445
15.9636 9.676
15.9788 9.796
15.9940 9.685
16.0091 9.375
16.0243 9.733
16.0395 9.497
16.0547 9.716
16.0698 9.549
16.0850 9.538
16.1002 9.575
16.1154 9.578
16.1305 9.557
16.1457 9.749
16.1609 9.836
16.1761 9.579
16.1912 9.784
16.2064 9.661
16.2216 9.472
16.2368 9.804
16.2519 9.812
16.2671 9.987
16.2823 9.916
16.2975 9.981
16.3126 10.165
16.3278 9.875
16.3430 9.804
16.3582 9.957
16.3733 10.170
16.3885 10.198
16.4037 10.199
16.4189 9.893
16.4340 9.652
16.4492 9.617
16.4644 9.624
16.4796 9.798
16.4947 9.886
16.5099 9.739
16.5251 9.725
16.5403 9.945
16.5554 9.855
16.5706 9.814
16.5858 9.738
16.6010 9.549
16.6161 9.482
16.6313 9.759
16.6465 9.702
16.6617 9.507
16.6768 9.482
16.6920 9.658
16.7072 9.895
16.7224 9.893
16.7375 10.055
16.7527 10.145
16.7679 9.946
16.7831 9.900
16.7982 10.165
16.8134 10.130
16.8286 9.978
16.8438 9.932
16.8589 9.867
16.8741 9.830
16.8893 9.879
16.9045 10.061
16.9196 10.141
16.9348 9.875
16.9500 9.918
16.9652 9.966
16.9803 9.873
16.9955 9.863
17.0107 10.063
17.0259 10.130
17.0410 10.101
17.0562 10.135
17.0714 10.235
17.0866 10.655
17.1017 10.784
17.1169 10.722
17.1321 11.066
17.1473 11.467
17.1624 11.735
17.1776 12.116
17.1928 12.966
17.2080 14.017
17.2231 15.076
17.2383 16.501
17.2535 17.792
17.2687 18.654
17.2838 18.663
17.2990 17.826
17.3142 16.880
17.3294 16.280
17.3445 16.097
17.3597 15.980
17.3749 15.909
17.3901 15.413
17.4052 14.213
17.4204 13.177
17.4356 12.499
17.4508 11.919
17.4659 11.622
17.4811 11.644
17.4963 11.390
17.5115 10.999
17.5266 10.836
17.5418 10.759
17.5570 10.737
17.5722 10.740
17.5873 11.016
17.6025 11.200
17.6177 11.129
17.6329 11.159
17.6480 11.282
17.6632 11.521
17.6784 11.924
17.6936 11.913
17.7087 11.749
17.7239 11.488
17.7391 11.166
17.7543 11.106
17.7694 11.114
17.7846 11.062
17.7998 11.158
17.8150 10.892
17.8301 10.523
17.8453 10.356
17.8605 10.206
17.8757 10.228
17.8908 10.344
17.9060 10.404
17.9212 10.210
17.9364 10.024
17.9515 9.965
17.9667 10.238
17.9819 10.524
17.9971 10.268
18.0122 10.014
18.0274 10.061
18.0426 10.170
18.0578 10.159
18.0729 10.043
18.0881 9.872
18.1033 10.065
18.1185 10.059
18.1336 9.935
18.1488 10.084
18.1640 10.040
18.1792 9.779
18.1943 9.655
18.2095 9.724
18.2247 9.823
18.2399 9.897
18.2550 9.887
18.2702 9.834
18.2854 9.703
18.3006 9.855
18.3157 9.869
18.3309 9.880
18.3461 9.851
18.3613 9.739
18.3764 9.708
18.3916 9.576
18.4068 9.582
18.4220 9.876
18.4371 10.020
18.4523 9.923
18.4675 9.752
18.4827 9.609
18.4978 9.818
18.5130 9.884
18.5282 9.820
18.5434 9.730
18.5585 9.648
18.5737 9.630
18.5889 9.783
18.6041 9.886
18.6192 9.705
18.6344 9.889
18.6496 9.936
18.6648 9.942
18.6799 9.996
18.6951 10.167
18.7103 9.924
18.7255 9.749
18.7406 9.747
18.7558 9.636
18.7710 9.789
18.7862 10.084
18.8013 10.106
18.8165 9.900
18.8317 9.996
18.8469 9.865
18.8620 9.785
18.8772 9.964
18.8924 9.967
18.9076 9.863
18.9227 9.795
18.9379 9.868
18.9531 9.972
18.9683 10.196
18.9834 10.226
18.9986 10.144
19.0138 10.299
19.0290 10.282
19.0441 10.276
19.0593 10.193
19.0745 10.207
19.0897 10.525
19.1048 10.451
19.1200 10.231
19.1352 10.255
19.1504 10.400
19.1655 10.436
19.1807 10.706
19.1959 10.624
19.2111 10.550
19.2262 10.535
19.2414 10.808
19.2566 10.927
19.2718 10.802
19.2869 10.842
19.3021 10.989
19.3173 11.064
19.3325 10.965
19.3476 11.029
19.3628 11.061
19.3780 10.870
19.3932 10.842
19.4083 11.144
19.4235 11.134
19.4387 11.088
19.4539 11.154
19.4690 11.166
19.4842 11.285
19.4994 11.360
19.5146 11.476
19.5297 11.358
19.5449 11.378
19.5601 11.493
19.5753 11.738
19.5904 11.922
19.6056 11.888
19.6208 11.847
19.6360 11.831
19.6511 12.072
19.6663 11.765
19.6815 11.405
19.6967 11.534
19.7118 11.536
19.7270 11.614
19.7422 11.786
19.7574 11.961
19.7725 11.959
19.7877 11.800
19.8029 11.837
19.8180 11.858
19.8332 11.977
19.8484 12.176
19.8636 12.165
19.8787 12.420
19.8939 12.775
19.9091 13.120
19.9243 13.446
19.9394 13.822
19.9546 14.175
19.9698 14.087
19.9850 14.281
20.0001 14.526
20.0153 14.333
20.0305 14.017
20.0457 13.828
20.0608 13.764
20.0760 13.624
20.0912 13.570
20.1064 13.582
20.1215 13.413
20.1367 13.210
20.1519 12.883
20.1671 12.899
20.1822 12.938
20.1974 12.695
20.2126 12.606
20.2278 12.492
20.2429 12.400
20.2581 12.183
20.2733 12.110
20.2885 12.046
20.3036 11.829
20.3188 11.861
20.3340 11.942
20.3492 12.087
20.3643 11.914
20.3795 11.757
20.3947 11.843
20.4099 11.828
20.4250 12.013
20.4402 11.988
20.4554 11.616
20.4706 11.742
20.4857 12.075
20.5009 11.986
20.5161 11.741
20.5313 11.390
20.5464 11.318
20.5616 11.265
20.5768 11.315
20.5920 11.223
20.6071 10.996
20.6223 11.057
20.6375 11.064
20.6527 10.982
20.6678 10.828
20.6830 10.516
20.6982 10.422
20.7134 10.378
20.7285 10.324
20.7437 10.665
20.7589 10.454
20.7741 10.286
20.7892 10.244
20.8044 10.174
20.8196 10.296
20.8348 10.256
20.8499 10.089
20.8651 10.249
20.8803 10.015
20.8955 10.243
20.9106 10.270
20.9258 10.127
20.9410 10.098
20.9562 10.138
20.9713 10.031
20.9865 9.818
21.0017 10.005
21.0169 9.923
21.0320 9.729
21.0472 9.799
21.0624 9.997
21.0776 9.801
21.0927 9.821
21.1079 9.754
21.1231 9.864
21.1383 9.974
21.1534 9.784
21.1686 9.841
21.1838 9.578
21.1990 9.572
21.2141 9.532
21.2293 9.763
21.2445 10.000
21.2597 9.674
21.2748 9.679
21.2900 9.758
21.3052 9.301
21.3204 9.451
21.3355 9.509
21.3507 9.630
21.3659 9.505
21.3811 9.619
21.3962 9.456
21.4114 9.351
21.4266 9.705
21.4418 9.686
21.4569 9.575
21.4721 9.592
21.4873 9.408
21.5025 9.301
21.5176 9.289
21.5328 9.211
21.5480 9.433
21.5632 9.206
21.5783 9.129
21.5935 8.997
21.6087 9.339
21.6239 9.376
21.6390 9.295
21.6542 9.257
21.6694 9.232
21.6846 9.235
21.6997 9.115
21.7149 9.210
21.7301 9.091
21.7453 9.028
21.7604 9.148
21.7756 9.358
21.7908 9.011
21.8060 8.970
21.8211 9.024
21.8363 8.934
21.8515 9.012
21.8667 8.987
21.8818 8.978
21.8970 8.889
21.9122 9.026
21.9274 8.962
21.9425 8.801
21.9577 9.055
21.9729 9.100
21.9881 9.104
22.0032 8.988
22.0184 8.964
22.0336 9.019
22.0488 8.985
22.0639 8.874
22.0791 8.830
22.0943 8.664
22.1095 8.819
22.1246 8.660
22.1398 8.507
22.1550 8.581
22.1702 8.528
22.1853 8.598
22.2005 8.676
22.2157 8.770
22.2309 8.578
22.2460 8.582
22.2612 8.280
22.2764 8.438
22.2916 8.619
22.3067 8.802
22.3219 8.687
22.3371 8.787
22.3523 8.834
22.3674 8.590
22.3826 8.678
22.3978 8.578
22.4130 8.566
22.4281 8.540
22.4433 8.169
22.4585 8.675
22.4737 8.513
22.4888 8.603
22.5040 8.631
22.5192 8.393
22.5344 8.400
22.5495 8.415
22.5647 8.327
22.5799 8.445
22.5951 8.155
22.6102 8.295
22.6254 8.576
22.6406 8.560
22.6558 8.562
22.6709 8.344
22.6861 7.906
22.7013 8.310
22.7165 8.143
22.7316 6.552
