'Id: "" Comment: "" Operator: "Lab Manager" Anode: "Mo" Scantype: "Still (Eiger2R_500K (1D mode))" TimePerStep: "300" X: "11.8" Y: "9.4" Z: "11.284" 
7.2532 18.563
7.2684 18.490
7.2836 18.565
7.2987 18.641
7.3139 19.093
7.3291 19.018
7.3443 19.035
7.3594 18.792
7.3746 18.999
7.3898 19.310
7.4050 18.919
7.4201 19.368
7.4353 19.175
7.4505 19.275
7.4657 19.139
7.4808 19.534
7.4960 19.919
7.5112 19.347
7.5264 19.382
7.5415 19.612
7.5567 19.659
7.5719 19.686
7.5871 20.123
7.6022 19.709
7.6174 19.549
7.6326 19.830
7.6478 19.607
7.6629 19.670
7.6781 19.785
7.6933 19.902
7.7085 19.943
7.7236 19.926
7.7388 20.026
7.7540 20.084
7.7692 20.126
7.7843 20.194
7.7995 20.321
7.8147 20.306
7.8299 20.322
7.8450 20.501
7.8602 20.423
7.8754 20.364
7.8905 20.520
7.9057 20.607
7.9209 20.807
7.9361 21.002
7.9512 20.863
7.9664 20.699
7.9816 20.623
7.9968 20.532
8.0119 20.985
8.0271 20.902
8.0423 20.861
8.0575 20.861
8.0726 21.015
8.0878 21.192
8.1030 21.015
8.1182 21.084
8.1333 20.824
8.1485 21.164
8.1637 21.373
8.1789 21.184
8.1940 21.150
8.2092 21.491
8.2244 21.316
8.2396 20.932
8.2547 21.527
8.2699 21.632
8.2851 21.880
8.3003 21.905
8.3154 21.886
8.3306 21.979
8.3458 21.714
8.3610 21.582
8.3761 21.286
8.3913 21.736
8.4065 21.584
8.4217 21.963
8.4368 21.776
8.4520 22.143
8.4672 21.571
8.4824 21.911
8.4975 21.878
8.5127 21.854
8.5279 22.139
8.5431 21.934
8.5582 22.141
8.5734 21.345
8.5886 21.884
8.6038 22.038
8.6189 22.145
8.6341 21.601
8.6493 22.560
8.6645 22.162
8.6796 22.245
8.6948 22.751
8.7100 22.443
8.7252 22.161
8.7403 21.867
8.7555 22.095
8.7707 22.264
8.7859 21.934
8.8010 22.200
8.8162 22.086
8.8314 21.967
8.8466 22.352
8.8617 22.518
8.8769 22.148
8.8921 21.846
8.9073 22.159
8.9224 22.643
8.9376 22.316
8.9528 22.176
8.9680 21.952
8.9831 22.185
8.9983 22.055
9.0135 22.112
9.0287 22.704
9.0438 22.354
9.0590 22.920
9.0742 22.967
9.0894 22.148
9.1045 22.253
9.1197 22.691
9.1349 22.777
9.1501 22.942
9.1652 22.550
9.1804 22.701
9.1956 22.330
9.2108 22.312
9.2259 22.245
9.2411 22.122
9.2563 22.480
9.2715 23.002
9.2866 22.855
9.3018 22.913
9.3170 22.944
9.3322 22.952
9.3473 22.572
9.3625 22.574
9.3777 23.082
9.3929 23.213
9.4080 23.165
9.4232 23.092
9.4384 22.861
9.4536 22.489
9.4687 22.641
9.4839 22.845
9.4991 22.839
9.5143 22.663
9.5294 22.865
9.5446 23.095
9.5598 22.970
9.5750 23.078
9.5901 23.005
9.6053 23.104
9.6205 23.495
9.6357 23.460
9.6508 23.324
9.6660 23.150
9.6812 23.134
9.6964 23.431
9.7115 23.493
9.7267 23.515
9.7419 23.496
9.7571 23.474
9.7722 23.669
9.7874 23.810
9.8026 23.827
9.8178 23.500
9.8329 23.282
9.8481 23.096
9.8633 23.243
9.8785 23.388
9.8936 23.211
9.9088 23.118
9.9240 23.201
9.9392 23.091
9.9543 23.120
9.9695 23.037
9.9847 23.071
9.9999 23.256
10.0150 23.027
10.0302 22.935
10.0454 23.086
10.0606 22.914
10.0757 22.994
10.0909 22.995
10.1061 23.246
10.1213 23.106
10.1364 23.043
10.1516 23.021
10.1668 23.258
10.1820 23.540
10.1971 23.375
10.2123 23.048
10.2275 22.554
10.2427 22.604
10.2578 22.548
10.2730 22.606
10.2882 22.658
10.3034 22.749
10.3185 22.656
10.3337 22.462
10.3489 22.910
10.3641 22.899
10.3792 22.626
10.3944 22.361
10.4096 22.485
10.4248 22.750
10.4399 22.587
10.4551 22.417
10.4703 22.321
10.4855 22.572
10.5006 22.494
10.5158 22.321
10.5310 22.411
10.5462 22.220
10.5613 22.483
10.5765 22.570
10.5917 22.667
10.6069 22.216
10.6220 22.159
10.6372 22.594
10.6524 22.488
10.6676 22.365
10.6827 22.337
10.6979 22.337
10.7131 22.260
10.7283 22.233
10.7434 22.014
10.7586 22.024
10.7738 22.313
10.7890 22.267
10.8041 22.302
10.8193 22.012
10.8345 22.126
10.8497 22.230
10.8648 22.100
10.8800 22.232
10.8952 22.215
10.9104 22.443
10.9255 22.114
10.9407 22.167
10.9559 21.786
10.9711 21.646
10.9862 22.089
11.0014 22.009
11.0166 22.209
11.0318 22.109
11.0469 22.219
11.0621 22.080
11.0773 21.882
11.0925 21.865
11.1076 21.800
11.1228 21.795
11.1380 21.581
11.1532 21.586
11.1683 21.494
11.1835 21.401
11.1987 21.482
11.2139 21.637
11.2290 21.660
11.2442 21.403
11.2594 21.236
11.2746 21.534
11.2897 21.213
11.3049 21.608
11.3201 21.292
11.3353 21.011
11.3504 21.136
11.3656 21.093
11.3808 21.307
11.3960 21.420
11.4111 21.491
11.4263 21.152
11.4415 21.441
11.4567 21.100
11.4718 21.096
11.4870 21.069
11.5022 21.012
11.5174 21.280
11.5325 20.907
11.5477 20.461
11.5629 20.808
11.5781 20.869
11.5932 20.606
11.6084 20.212
11.6236 20.561
11.6388 20.565
11.6539 20.872
11.6691 20.806
11.6843 20.389
11.6995 20.166
11.7146 20.301
11.7298 20.214
11.7450 20.170
11.7602 19.780
11.7753 19.800
11.7905 19.726
11.8057 19.848
11.8209 20.185
11.8360 20.135
11.8512 19.932
11.8664 19.644
11.8816 19.594
11.8967 19.574
11.9119 19.246
11.9271 19.491
11.9423 19.481
11.9574 19.472
11.9726 19.192
11.9878 19.292
12.0030 18.875
12.0181 18.773
12.0333 18.960
12.0485 18.613
12.0637 18.757
12.0788 18.760
12.0940 18.461
12.1092 18.385
12.1244 18.615
12.1395 18.356
12.1547 18.397
12.1699 18.521
12.1851 18.176
12.2002 17.987
12.2154 17.993
12.2306 18.133
12.2458 18.283
12.2609 17.937
12.2761 18.030
12.2913 18.064
12.3065 17.510
12.3216 17.239
12.3368 17.505
12.3520 17.646
12.3672 17.458
12.3823 17.181
12.3975 17.157
12.4127 17.048
12.4279 16.771
12.4430 16.957
12.4582 16.889
12.4734 16.701
12.4886 16.476
12.5037 16.683
12.5189 16.656
12.5341 16.481
12.5493 16.393
12.5644 16.333
12.5796 16.054
12.5948 16.068
12.6100 15.957
12.6251 15.990
12.6403 16.043
12.6555 15.864
12.6707 15.807
12.6858 16.047
12.7010 15.948
12.7162 15.794
12.7314 15.559
12.7465 15.298
12.7617 15.143
12.7769 15.077
12.7921 15.102
12.8072 14.806
12.8224 14.640
12.8376 14.650
12.8528 14.622
12.8679 14.663
12.8831 14.595
12.8983 14.477
12.9135 14.427
12.9286 14.369
12.9438 14.476
12.9590 14.419
12.9742 14.308
12.9893 14.077
13.0045 13.987
13.0197 14.275
13.0349 14.204
13.0500 13.906
13.0652 13.868
13.0804 14.111
13.0956 13.956
13.1107 13.737
13.1259 13.582
13.1411 13.593
13.1563 13.664
13.1714 13.440
13.1866 13.381
13.2018 13.244
13.2170 13.190
13.2321 13.218
13.2473 13.307
13.2625 13.453
13.2777 13.470
13.2928 13.327
13.3080 12.943
13.3232 12.847
13.3384 13.026
13.3535 13.017
13.3687 12.867
13.3839 12.724
13.3991 12.699
13.4142 12.902
13.4294 13.119
13.4446 12.929
13.4598 12.726
13.4749 12.548
13.4901 12.710
13.5053 12.694
13.5205 12.288
13.5356 12.340
13.5508 12.260
13.5660 12.066
13.5812 12.229
13.5963 12.369
13.6115 12.301
13.6267 12.308
13.6419 12.233
13.6570 11.975
13.6722 11.998
13.6874 11.947
13.7026 11.838
13.7177 12.132
13.7329 12.154
13.7481 12.062
13.7633 12.107
13.7784 11.998
13.7936 12.024
13.8088 11.908
13.8239 12.072
13.8391 12.304
13.8543 12.407
13.8695 12.298
13.8846 11.964
13.8998 12.144
13.9150 12.074
13.9302 11.936
13.9453 11.994
13.9605 11.840
13.9757 12.061
13.9909 11.799
14.0060 12.010
14.0212 11.922
14.0364 11.773
14.0516 11.592
14.0667 11.610
14.0819 11.877
14.0971 11.939
14.1123 11.555
14.1274 11.404
14.1426 11.493
14.1578 11.305
14.1730 11.511
14.1881 11.954
14.2033 11.918
14.2185 11.924
14.2337 11.462
14.2488 11.738
14.2640 11.763
14.2792 11.731
14.2944 12.108
14.3095 12.024
14.3247 11.884
14.3399 12.234
14.3551 12.682
14.3702 13.004
14.3854 13.091
14.4006 12.977
14.4158 12.610
14.4309 12.523
14.4461 12.625
14.4613 12.285
14.4765 12.365
14.4916 12.059
14.5068 11.751
14.5220 11.868
14.5372 11.247
14.5523 10.955
14.5675 11.119
14.5827 10.737
14.5979 10.912
14.6130 11.110
14.6282 10.865
14.6434 10.767
14.6586 10.588
14.6737 10.765
14.6889 10.561
14.7041 10.636
14.7193 10.866
14.7344 10.681
14.7496 10.425
14.7648 10.604
14.7800 10.667
14.7951 10.532
14.8103 10.443
14.8255 10.697
14.8407 10.502
14.8558 10.314
14.8710 10.151
14.8862 10.488
14.9014 10.784
14.9165 10.792
14.9317 10.805
14.9469 10.375
14.9621 10.227
14.9772 10.539
14.9924 10.284
15.0076 10.336
15.0228 10.287
15.0379 10.281
15.0531 10.010
15.0683 10.064
15.0835 10.132
15.0986 9.912
15.1138 10.343
15.1290 10.352
15.1442 10.375
15.1593 10.163
15.1745 10.335
15.1897 9.932
15.2049 10.139
15.2200 10.109
15.2352 9.668
15.2504 10.042
15.2656 9.960
15.2807 9.471
15.2959 10.075
15.3111 10.173
15.3263 10.023
15.3414 9.883
15.3566 9.973
15.3718 9.955
15.3870 9.959
15.4021 10.101
15.4173 10.162
15.4325 9.965
15.4477 10.187
15.4628 10.038
15.4780 10.077
15.4932 10.118
15.5084 9.676
15.5235 10.103
15.5387 9.982
15.5539 9.963
15.5691 9.871
15.5842 9.745
15.5994 9.800
15.6146 10.013
15.6298 9.525
15.6449 9.797
15.6601 9.700
15.6753 9.738
15.6905 10.240
15.7056 10.493
15.7208 10.465
15.7360 9.752
15.7512 9.621
15.7663 9.752
15.7815 10.045
15.7967 9.787
15.8119 9.683
15.8270 9.707
15.8422 9.932
15.8574 9.635
15.8726 9.529
15.8877 9.699
15.9029 9.387
15.9181 9.490
15.9333 9.663
15.9484 9.737
15.9636 9.407
15.9788 9.574
15.9940 9.525
16.0091 9.570
16.0243 9.613
16.0395 9.761
16.0547 9.528
16.0698 9.415
16.0850 9.266
16.1002 9.266
16.1154 9.684
16.1305 9.519
16.1457 9.310
16.1609 9.525
16.1761 9.572
16.1912 9.535
16.2064 9.351
16.2216 9.422
16.2368 9.633
16.2519 9.738
16.2671 9.801
16.2823 9.665
16.2975 9.574
16.3126 9.691
16.3278 9.815
16.3430 9.705
16.3582 9.658
16.3733 9.673
16.3885 9.916
16.4037 9.851
16.4189 9.725
16.4340 9.594
16.4492 9.538
16.4644 9.729
16.4796 9.730
16.4947 9.520
16.5099 9.580
16.5251 9.686
16.5403 9.462
16.5554 9.490
16.5706 9.645
16.5858 9.890
16.6010 9.711
16.6161 9.661
16.6313 9.694
16.6465 9.604
16.6617 9.538
16.6768 9.530
16.6920 9.686
16.7072 9.627
16.7224 9.726
16.7375 9.809
16.7527 9.821
16.7679 9.606
16.7831 9.523
16.7982 9.714
16.8134 9.776
16.8286 9.717
16.8438 9.872
16.8589 9.865
16.8741 9.761
16.8893 9.557
16.9045 9.578
16.9196 9.662
16.9348 9.722
16.9500 9.712
16.9652 9.574
16.9803 9.653
16.9955 9.725
17.0107 9.893
17.0259 9.894
17.0410 9.941
17.0562 10.035
17.0714 10.265
17.0866 10.464
17.1017 10.351
17.1169 10.519
17.1321 10.797
17.1473 11.065
17.1624 11.710
17.1776 12.254
17.1928 12.887
17.2080 13.898
17.2231 15.010
17.2383 16.116
17.2535 17.292
17.2687 18.318
17.2838 18.552
17.2990 17.752
17.3142 16.792
17.3294 16.329
17.3445 16.091
17.3597 15.725
17.3749 15.492
17.3901 15.136
17.4052 14.226
17.4204 13.099
17.4356 12.343
17.4508 11.996
17.4659 11.611
17.4811 11.568
17.4963 11.424
17.5115 11.131
17.5266 10.978
17.5418 10.912
17.5570 11.058
17.5722 10.848
17.5873 10.815
17.6025 10.918
17.6177 10.836
17.6329 10.990
17.6480 11.226
17.6632 11.581
17.6784 11.580
17.6936 11.173
17.7087 11.176
17.7239 11.266
17.7391 11.091
17.7543 11.056
17.7694 10.858
17.7846 10.628
17.7998 10.727
17.8150 10.723
17.8301 10.571
17.8453 10.264
17.8605 9.972
17.8757 10.104
17.8908 10.291
17.9060 10.350
17.9212 10.120
17.9364 10.058
17.9515 10.075
17.9667 10.017
17.9819 9.982
17.9971 9.923
18.0122 9.985
18.0274 9.949
18.0426 9.978
18.0578 10.057
18.0729 10.131
18.0881 10.077
18.1033 10.058
18.1185 10.001
18.1336 9.943
18.1488 9.853
18.1640 9.863
18.1792 9.755
18.1943 9.767
18.2095 9.876
18.2247 9.902
18.2399 9.789
18.2550 9.850
18.2702 9.871
18.2854 9.925
18.3006 9.979
18.3157 9.767
18.3309 9.613
18.3461 9.725
18.3613 10.022
18.3764 9.754
18.3916 9.684
18.4068 9.750
18.4220 9.837
18.4371 9.765
18.4523 9.582
18.4675 9.737
18.4827 9.808
18.4978 9.896
18.5130 9.879
18.5282 9.731
18.5434 9.686
18.5585 9.867
18.5737 9.683
18.5889 9.692
18.6041 9.904
18.6192 9.716
18.6344 9.814
18.6496 9.842
18.6648 9.724
18.6799 9.777
18.6951 9.882
18.7103 10.018
18.7255 9.767
18.7406 9.616
18.7558 9.651
18.7710 9.722
18.7862 9.685
18.8013 9.773
18.8165 9.695
18.8317 9.747
18.8469 9.922
18.8620 9.997
18.8772 10.043
18.8924 9.814
18.9076 9.774
18.9227 9.981
18.9379 10.120
18.9531 10.044
18.9683 9.754
18.9834 9.814
18.9986 10.056
19.0138 10.201
19.0290 10.282
19.0441 10.391
19.0593 10.406
19.0745 10.252
19.0897 10.291
19.1048 10.329
19.1200 10.305
19.1352 10.465
19.1504 10.495
19.1655 10.359
19.1807 10.599
19.1959 10.796
19.2111 10.779
19.2262 10.761
19.2414 10.671
19.2566 10.731
19.2718 10.936
19.2869 10.820
19.3021 10.624
19.3173 10.792
19.3325 10.823
19.3476 11.031
19.3628 10.985
19.3780 11.246
19.3932 11.293
19.4083 11.154
19.4235 11.211
19.4387 11.003
19.4539 10.954
19.4690 11.167
19.4842 11.451
19.4994 11.510
19.5146 11.470
19.5297 11.492
19.5449 11.539
19.5601 11.564
19.5753 11.558
19.5904 11.821
19.6056 11.689
19.6208 11.448
19.6360 11.522
19.6511 11.603
19.6663 11.842
19.6815 11.911
19.6967 11.725
19.7118 11.937
19.7270 12.097
19.7422 12.094
19.7574 12.006
19.7725 11.823
19.7877 11.800
19.8029 11.970
19.8180 12.023
19.8332 12.144
19.8484 12.321
19.8636 12.606
19.8787 12.836
19.8939 13.014
19.9091 13.268
19.9243 13.444
19.9394 13.828
19.9546 13.979
19.9698 14.357
19.9850 14.736
20.0001 14.532
20.0153 14.435
20.0305 14.281
20.0457 13.942
20.0608 13.882
20.0760 13.880
20.0912 13.988
20.1064 13.984
20.1215 13.406
20.1367 13.236
20.1519 13.317
20.1671 13.143
20.1822 13.060
20.1974 12.894
20.2126 12.851
20.2278 12.854
20.2429 12.568
20.2581 12.179
20.2733 11.896
20.2885 12.252
20.3036 12.183
20.3188 12.098
20.3340 11.860
20.3492 11.936
20.3643 11.698
20.3795 11.797
20.3947 11.937
20.4099 11.732
20.4250 11.669
20.4402 11.943
20.4554 11.965
20.4706 11.966
20.4857 11.741
20.5009 11.828
20.5161 11.589
20.5313 11.504
20.5464 11.167
20.5616 11.235
20.5768 11.340
20.5920 11.213
20.6071 10.980
20.6223 10.815
20.6375 11.051
20.6527 10.834
20.6678 10.784
20.6830 10.585
20.6982 10.816
20.7134 10.783
20.7285 10.724
20.7437 10.555
20.7589 10.531
20.7741 10.303
20.7892 9.987
20.8044 10.421
20.8196 10.414
20.8348 10.162
20.8499 10.183
20.8651 10.479
20.8803 10.424
20.8955 10.236
20.9106 10.024
20.9258 10.228
20.9410 10.338
20.9562 10.411
20.9713 9.859
20.9865 10.277
21.0017 9.805
21.0169 9.884
21.0320 9.870
21.0472 10.019
21.0624 10.382
21.0776 10.000
21.0927 9.874
21.1079 10.041
21.1231 10.221
21.1383 9.614
21.1534 9.711
21.1686 9.320
21.1838 9.933
21.1990 9.785
21.2141 9.784
21.2293 9.799
21.2445 9.865
21.2597 9.932
21.2748 9.766
21.2900 9.673
21.3052 9.537
21.3204 9.722
21.3355 9.556
21.3507 9.393
21.3659 9.605
21.3811 9.748
21.3962 9.564
21.4114 9.392
21.4266 9.478
21.4418 9.493
21.4569 9.137
21.4721 9.384
21.4873 9.184
21.5025 9.500
21.5176 9.204
21.5328 9.233
21.5480 9.229
21.5632 9.242
21.5783 9.582
21.5935 9.218
21.6087 9.424
21.6239 9.061
21.6390 9.131
21.6542 9.295
21.6694 9.203
21.6846 9.203
21.6997 9.005
21.7149 9.132
21.7301 9.330
21.7453 9.150
21.7604 9.055
21.7756 9.098
21.7908 9.216
21.8060 8.940
21.8211 9.005
21.8363 8.953
21.8515 9.014
21.8667 9.242
21.8818 9.266
21.8970 8.898
21.9122 8.761
21.9274 8.818
21.9425 8.912
21.9577 8.819
21.9729 8.650
21.9881 8.756
22.0032 8.812
22.0184 8.810
22.0336 9.003
22.0488 9.021
22.0639 8.677
22.0791 8.653
22.0943 8.745
22.1095 8.771
22.1246 8.741
22.1398 8.618
22.1550 8.642
22.1702 8.496
22.1853 8.484
22.2005 8.591
22.2157 8.756
22.2309 8.557
22.2460 8.433
22.2612 8.396
22.2764 8.412
22.2916 8.281
22.3067 8.556
22.3219 8.749
22.3371 8.540
22.3523 8.623
22.3674 8.718
22.3826 8.566
22.3978 8.529
22.4130 8.442
22.4281 8.254
22.4433 8.320
22.4585 8.815
22.4737 8.566
22.4888 8.348
22.5040 8.431
22.5192 8.598
22.5344 8.384
22.5495 8.460
22.5647 8.322
22.5799 8.441
22.5951 8.556
22.6102 8.400
22.6254 8.533
22.6406 8.494
22.6558 8.039
22.6709 8.290
22.6861 8.581
22.7013 8.073
22.7165 8.047
22.7316 6.481
