'Id: "" Comment: "" Operator: "Lab Manager" Anode: "Mo" Scantype: "Still (Eiger2R_500K (1D mode))" TimePerStep: "300" X: "11.8" Y: "9.4" Z: "11.284" 
7.2532 18.657
7.2684 19.021
7.2836 18.725
7.2987 18.714
7.3139 19.394
7.3291 18.544
7.3443 19.152
7.3594 19.021
7.3746 19.177
7.3898 19.632
7.4050 19.118
7.4201 19.014
7.4353 19.019
7.4505 19.396
7.4657 19.893
7.4808 20.054
7.4960 19.248
7.5112 19.686
7.5264 19.808
7.5415 19.684
7.5567 19.896
7.5719 19.775
7.5871 20.144
7.6022 19.975
7.6174 19.556
7.6326 19.825
7.6478 19.488
7.6629 19.608
7.6781 19.953
7.6933 20.142
7.7085 20.177
7.7236 20.089
7.7388 20.068
7.7540 20.178
7.7692 20.469
7.7843 20.807
7.7995 20.427
7.8147 20.240
7.8299 20.897
7.8450 20.681
7.8602 20.272
7.8754 20.646
7.8905 20.677
7.9057 20.442
7.9209 20.835
7.9361 21.230
7.9512 20.996
7.9664 20.796
7.9816 20.780
7.9968 20.884
8.0119 21.062
8.0271 21.036
8.0423 21.007
8.0575 21.066
8.0726 21.435
8.0878 21.470
8.1030 21.445
8.1182 21.339
8.1333 21.127
8.1485 20.969
8.1637 21.084
8.1789 21.307
8.1940 21.652
8.2092 21.487
8.2244 21.812
8.2396 21.821
8.2547 21.839
8.2699 21.706
8.2851 21.671
8.3003 21.605
8.3154 21.554
8.3306 21.800
8.3458 21.704
8.3610 21.812
8.3761 21.545
8.3913 21.712
8.4065 21.742
8.4217 21.462
8.4368 21.670
8.4520 22.017
8.4672 21.737
8.4824 22.072
8.4975 22.011
8.5127 22.212
8.5279 21.923
8.5431 22.103
8.5582 21.813
8.5734 21.911
8.5886 22.126
8.6038 21.999
8.6189 22.221
8.6341 21.584
8.6493 22.445
8.6645 22.182
8.6796 22.701
8.6948 22.268
8.7100 22.324
8.7252 22.339
8.7403 22.066
8.7555 22.651
8.7707 22.006
8.7859 22.792
8.8010 22.415
8.8162 22.075
8.8314 22.404
8.8466 22.665
8.8617 22.373
8.8769 22.357
8.8921 22.451
8.9073 22.654
8.9224 22.630
8.9376 22.408
8.9528 22.350
8.9680 22.405
8.9831 23.021
8.9983 22.654
9.0135 22.771
9.0287 22.774
9.0438 22.809
9.0590 22.372
9.0742 22.705
9.0894 22.925
9.1045 22.720
9.1197 23.071
9.1349 23.057
9.1501 22.668
9.1652 22.828
9.1804 22.781
9.1956 22.870
9.2108 22.746
9.2259 22.995
9.2411 22.779
9.2563 22.815
9.2715 22.845
9.2866 22.989
9.3018 22.781
9.3170 22.873
9.3322 22.879
9.3473 22.876
9.3625 23.114
9.3777 22.963
9.3929 22.641
9.4080 23.003
9.4232 23.357
9.4384 22.886
9.4536 23.026
9.4687 23.265
9.4839 23.193
9.4991 23.257
9.5143 23.149
9.5294 22.800
9.5446 23.122
9.5598 23.153
9.5750 22.850
9.5901 23.128
9.6053 22.993
9.6205 23.190
9.6357 23.395
9.6508 23.260
9.6660 23.270
9.6812 23.373
9.6964 23.507
9.7115 23.841
9.7267 24.167
9.7419 24.036
9.7571 23.723
9.7722 23.709
9.7874 23.733
9.8026 23.841
9.8178 23.956
9.8329 23.558
9.8481 23.031
9.8633 23.418
9.8785 23.475
9.8936 22.960
9.9088 23.009
9.9240 23.129
9.9392 23.044
9.9543 22.902
9.9695 23.039
9.9847 23.181
9.9999 22.965
10.0150 22.811
10.0302 22.961
10.0454 22.945
10.0606 23.130
10.0757 23.371
10.0909 23.607
10.1061 23.519
10.1213 23.346
10.1364 23.646
10.1516 23.631
10.1668 23.438
10.1820 23.401
10.1971 23.241
10.2123 23.316
10.2275 23.299
10.2427 23.160
10.2578 23.078
10.2730 23.045
10.2882 23.071
10.3034 23.006
10.3185 22.899
10.3337 22.700
10.3489 23.162
10.3641 23.307
10.3792 23.151
10.3944 23.016
10.4096 22.530
10.4248 22.741
10.4399 22.588
10.4551 22.729
10.4703 22.783
10.4855 22.862
10.5006 22.740
10.5158 22.706
10.5310 22.515
10.5462 22.316
10.5613 22.463
10.5765 22.416
10.5917 22.319
10.6069 22.643
10.6220 22.389
10.6372 22.234
10.6524 22.381
10.6676 22.378
10.6827 22.491
10.6979 22.783
10.7131 22.717
10.7283 23.067
10.7434 22.832
10.7586 22.308
10.7738 22.461
10.7890 22.484
10.8041 22.356
10.8193 22.311
10.8345 22.140
10.8497 22.300
10.8648 22.264
10.8800 22.323
10.8952 22.039
10.9104 22.068
10.9255 21.945
10.9407 21.925
10.9559 22.133
10.9711 22.420
10.9862 22.052
11.0014 21.583
11.0166 21.721
11.0318 21.955
11.0469 22.146
11.0621 21.274
11.0773 21.478
11.0925 22.307
11.1076 21.639
11.1228 21.487
11.1380 21.621
11.1532 21.748
11.1683 21.515
11.1835 21.547
11.1987 21.528
11.2139 21.295
11.2290 21.763
11.2442 21.852
11.2594 22.101
11.2746 21.703
11.2897 21.469
11.3049 21.623
11.3201 21.461
11.3353 21.124
11.3504 21.065
11.3656 21.481
11.3808 21.523
11.3960 21.423
11.4111 21.472
11.4263 21.108
11.4415 20.972
11.4567 20.807
11.4718 21.187
11.4870 20.919
11.5022 21.328
11.5174 21.229
11.5325 21.161
11.5477 21.088
11.5629 20.989
11.5781 20.840
11.5932 20.943
11.6084 20.396
11.6236 20.450
11.6388 20.396
11.6539 20.285
11.6691 20.498
11.6843 20.577
11.6995 20.361
11.7146 20.604
11.7298 20.588
11.7450 20.294
11.7602 20.351
11.7753 20.671
11.7905 20.110
11.8057 20.275
11.8209 19.853
11.8360 19.649
11.8512 19.644
11.8664 19.552
11.8816 19.670
11.8967 19.324
11.9119 19.480
11.9271 19.458
11.9423 19.473
11.9574 19.011
11.9726 19.263
11.9878 19.315
12.0030 18.935
12.0181 18.981
12.0333 19.063
12.0485 19.136
12.0637 18.952
12.0788 19.047
12.0940 19.038
12.1092 19.033
12.1244 18.651
12.1395 18.264
12.1547 18.311
12.1699 18.151
12.1851 18.251
12.2002 18.045
12.2154 17.963
12.2306 17.987
12.2458 17.863
12.2609 17.784
12.2761 17.712
12.2913 17.907
12.3065 17.693
12.3216 17.447
12.3368 17.559
12.3520 17.538
12.3672 17.497
12.3823 17.436
12.3975 17.075
12.4127 17.173
12.4279 17.159
12.4430 17.005
12.4582 16.691
12.4734 16.615
12.4886 16.955
12.5037 16.638
12.5189 16.477
12.5341 16.496
12.5493 16.435
12.5644 16.362
12.5796 16.517
12.5948 16.142
12.6100 15.846
12.6251 16.122
12.6403 16.177
12.6555 15.874
12.6707 15.813
12.6858 15.628
12.7010 15.489
12.7162 15.562
12.7314 15.676
12.7465 15.295
12.7617 15.202
12.7769 15.304
12.7921 15.047
12.8072 14.991
12.8224 15.107
12.8376 14.969
12.8528 15.119
12.8679 15.201
12.8831 14.848
12.8983 14.894
12.9135 14.798
12.9286 14.383
12.9438 14.475
12.9590 14.379
12.9742 14.561
12.9893 14.541
13.0045 14.192
13.0197 14.166
13.0349 13.941
13.0500 13.747
13.0652 14.129
13.0804 14.250
13.0956 13.794
13.1107 13.729
13.1259 13.762
13.1411 13.609
13.1563 13.655
13.1714 13.634
13.1866 13.526
13.2018 13.536
13.2170 13.532
13.2321 13.238
13.2473 13.127
13.2625 13.161
13.2777 13.134
13.2928 13.321
13.3080 13.126
13.3232 13.000
13.3384 13.046
13.3535 12.968
13.3687 13.102
13.3839 13.211
13.3991 13.089
13.4142 12.839
13.4294 12.651
13.4446 13.016
13.4598 13.059
13.4749 12.844
13.4901 12.937
13.5053 12.766
13.5205 12.791
13.5356 12.792
13.5508 12.683
13.5660 12.526
13.5812 12.364
13.5963 12.403
13.6115 12.253
13.6267 12.186
13.6419 12.121
13.6570 12.222
13.6722 12.061
13.6874 12.103
13.7026 11.999
13.7177 12.078
13.7329 12.305
13.7481 12.079
13.7633 12.185
13.7784 12.466
13.7936 12.226
13.8088 12.129
13.8239 12.282
13.8391 12.089
13.8543 12.292
13.8695 12.335
13.8846 12.318
13.8998 12.055
13.9150 11.971
13.9302 11.909
13.9453 12.131
13.9605 11.827
13.9757 11.569
13.9909 11.738
14.0060 11.638
14.0212 11.476
14.0364 11.502
14.0516 11.519
14.0667 11.392
14.0819 11.437
14.0971 11.579
14.1123 11.494
14.1274 11.306
14.1426 11.259
14.1578 11.346
14.1730 11.525
14.1881 11.379
14.2033 11.456
14.2185 11.433
14.2337 11.552
14.2488 11.606
14.2640 11.967
14.2792 11.720
14.2944 11.815
14.3095 12.046
14.3247 12.253
14.3399 12.345
14.3551 12.624
14.3702 12.787
14.3854 12.948
14.4006 13.541
14.4158 13.678
14.4309 13.526
14.4461 13.560
14.4613 13.013
14.4765 12.792
14.4916 12.672
14.5068 12.600
14.5220 12.133
14.5372 11.802
14.5523 11.701
14.5675 11.539
14.5827 11.393
14.5979 11.168
14.6130 10.997
14.6282 10.662
14.6434 10.733
14.6586 10.699
14.6737 10.862
14.6889 10.674
14.7041 10.939
14.7193 10.524
14.7344 10.555
14.7496 10.683
14.7648 10.773
14.7800 10.447
14.7951 10.720
14.8103 10.137
14.8255 10.492
14.8407 10.319
14.8558 10.554
14.8710 10.277
14.8862 10.308
14.9014 10.362
14.9165 10.924
14.9317 10.590
14.9469 10.463
14.9621 10.303
14.9772 10.188
14.9924 10.158
15.0076 10.188
15.0228 10.657
15.0379 10.223
15.0531 10.255
15.0683 10.102
15.0835 10.413
15.0986 10.494
15.1138 10.355
15.1290 10.168
15.1442 10.371
15.1593 10.127
15.1745 10.173
15.1897 10.345
15.2049 9.960
15.2200 10.293
15.2352 10.147
15.2504 10.073
15.2656 10.256
15.2807 10.282
15.2959 9.778
15.3111 10.171
15.3263 10.207
15.3414 10.075
15.3566 10.118
15.3718 10.235
15.3870 10.135
15.4021 9.905
15.4173 10.243
15.4325 10.229
15.4477 10.037
15.4628 10.260
15.4780 10.222
15.4932 10.261
15.5084 9.873
15.5235 10.308
15.5387 9.979
15.5539 10.156
15.5691 10.036
15.5842 10.028
15.5994 10.100
15.6146 10.136
15.6298 9.906
15.6449 9.855
15.6601 9.996
15.6753 9.580
15.6905 9.631
15.7056 9.789
15.7208 9.370
15.7360 9.824
15.7512 9.732
15.7663 9.457
15.7815 9.446
15.7967 9.749
15.8119 9.828
15.8270 9.765
15.8422 9.665
15.8574 9.939
15.8726 9.645
15.8877 9.651
15.9029 9.914
15.9181 9.460
15.9333 9.684
15.9484 9.652
15.9636 9.822
15.9788 9.776
15.9940 9.855
16.0091 9.610
16.0243 9.501
16.0395 9.418
16.0547 9.634
16.0698 9.676
16.0850 9.665
16.1002 9.572
16.1154 9.665
16.1305 9.689
16.1457 9.480
16.1609 9.707
16.1761 9.703
16.1912 9.650
16.2064 9.365
16.2216 9.488
16.2368 9.702
16.2519 9.626
16.2671 9.665
16.2823 9.677
16.2975 9.576
16.3126 9.931
16.3278 10.035
16.3430 9.871
16.3582 10.019
16.3733 10.160
16.3885 9.881
16.4037 10.098
16.4189 9.778
16.4340 9.609
16.4492 9.731
16.4644 9.837
16.4796 9.868
16.4947 9.861
16.5099 9.762
16.5251 9.746
16.5403 9.624
16.5554 9.399
16.5706 9.560
16.5858 9.720
16.6010 9.582
16.6161 9.444
16.6313 9.436
16.6465 9.594
16.6617 9.634
16.6768 9.858
16.6920 9.892
16.7072 9.894
16.7224 9.980
16.7375 10.124
16.7527 10.012
16.7679 9.776
16.7831 10.048
16.7982 9.970
16.8134 9.921
16.8286 9.751
16.8438 9.728
16.8589 9.769
16.8741 9.960
16.8893 9.904
16.9045 9.715
16.9196 9.725
16.9348 9.630
16.9500 9.597
16.9652 9.734
16.9803 9.762
16.9955 9.881
17.0107 10.001
17.0259 9.940
17.0410 9.878
17.0562 9.975
17.0714 10.127
17.0866 10.360
17.1017 10.413
17.1169 10.532
17.1321 10.867
17.1473 11.201
17.1624 11.641
17.1776 12.424
17.1928 13.215
17.2080 13.994
17.2231 14.920
17.2383 16.200
17.2535 17.347
17.2687 18.164
17.2838 18.497
17.2990 17.588
17.3142 16.630
17.3294 16.286
17.3445 16.120
17.3597 16.018
17.3749 15.652
17.3901 14.851
17.4052 14.079
17.4204 13.267
17.4356 12.331
17.4508 11.892
17.4659 11.654
17.4811 11.380
17.4963 11.292
17.5115 11.102
17.5266 10.806
17.5418 10.859
17.5570 10.883
17.5722 10.890
17.5873 11.046
17.6025 10.925
17.6177 10.995
17.6329 11.186
17.6480 11.227
17.6632 11.507
17.6784 11.598
17.6936 11.713
17.7087 12.097
17.7239 12.105
17.7391 11.762
17.7543 11.470
17.7694 11.445
17.7846 11.495
17.7998 11.324
17.8150 11.214
17.8301 11.398
17.8453 11.043
17.8605 10.631
17.8757 10.559
17.8908 10.459
17.9060 10.417
17.9212 10.197
17.9364 10.102
17.9515 10.058
17.9667 10.281
17.9819 10.330
17.9971 10.303
18.0122 10.400
18.0274 10.313
18.0426 10.271
18.0578 10.073
18.0729 9.969
18.0881 9.946
18.1033 9.968
18.1185 9.831
18.1336 9.983
18.1488 10.086
18.1640 9.940
18.1792 9.804
18.1943 10.056
18.2095 9.985
18.2247 9.975
18.2399 9.890
18.2550 9.906
18.2702 9.926
18.2854 9.919
18.3006 9.918
18.3157 9.929
18.3309 9.980
18.3461 9.866
18.3613 9.709
18.3764 9.881
18.3916 9.779
18.4068 9.562
18.4220 9.764
18.4371 9.734
18.4523 9.860
18.4675 9.786
18.4827 9.660
18.4978 9.744
18.5130 9.623
18.5282 9.723
18.5434 9.549
18.5585 9.641
18.5737 9.785
18.5889 9.594
18.6041 9.550
18.6192 9.639
18.6344 9.683
18.6496 9.598
18.6648 9.812
18.6799 9.857
18.6951 9.708
18.7103 9.797
18.7255 9.935
18.7406 9.818
18.7558 9.786
18.7710 9.784
18.7862 9.817
18.8013 9.701
18.8165 9.687
18.8317 9.942
18.8469 9.912
18.8620 9.708
18.8772 9.807
18.8924 10.069
18.9076 10.061
18.9227 9.962
18.9379 10.017
18.9531 10.031
18.9683 10.085
18.9834 10.055
18.9986 10.109
19.0138 10.089
19.0290 10.162
19.0441 10.298
19.0593 10.455
19.0745 10.306
19.0897 10.367
19.1048 10.705
19.1200 10.737
19.1352 10.449
19.1504 10.158
19.1655 10.238
19.1807 10.356
19.1959 10.379
19.2111 10.402
19.2262 10.490
19.2414 10.755
19.2566 11.126
19.2718 11.126
19.2869 11.143
19.3021 10.970
19.3173 10.650
19.3325 10.994
19.3476 11.207
19.3628 11.178
19.3780 11.237
19.3932 11.090
19.4083 11.016
19.4235 11.138
19.4387 11.079
19.4539 11.256
19.4690 11.573
19.4842 11.450
19.4994 11.267
19.5146 11.390
19.5297 11.723
19.5449 11.784
19.5601 11.381
19.5753 11.502
19.5904 11.506
19.6056 11.510
19.6208 11.638
19.6360 11.612
19.6511 11.560
19.6663 11.560
19.6815 11.618
19.6967 11.620
19.7118 11.856
19.7270 11.767
19.7422 11.356
19.7574 11.539
19.7725 11.929
19.7877 11.850
19.8029 11.722
19.8180 11.802
19.8332 12.181
19.8484 12.261
19.8636 12.351
19.8787 12.457
19.8939 12.588
19.9091 12.925
19.9243 13.359
19.9394 13.915
19.9546 14.185
19.9698 14.314
19.9850 14.430
20.0001 14.412
20.0153 14.213
20.0305 14.068
20.0457 13.877
20.0608 13.643
20.0760 13.375
20.0912 13.499
20.1064 13.378
20.1215 13.494
20.1367 13.475
20.1519 13.089
20.1671 12.847
20.1822 12.695
20.1974 12.631
20.2126 12.522
20.2278 12.375
20.2429 12.568
20.2581 12.399
20.2733 11.991
20.2885 11.739
20.3036 11.548
20.3188 11.481
20.3340 11.798
20.3492 11.788
20.3643 11.764
20.3795 11.689
20.3947 11.574
20.4099 11.595
20.4250 11.848
20.4402 11.973
20.4554 12.019
20.4706 12.182
20.4857 11.983
20.5009 12.080
20.5161 11.868
20.5313 11.677
20.5464 11.511
20.5616 11.366
20.5768 11.472
20.5920 11.374
20.6071 11.388
20.6223 11.422
20.6375 11.245
20.6527 10.970
20.6678 10.979
20.6830 10.601
20.6982 10.574
20.7134 10.583
20.7285 10.470
20.7437 10.766
20.7589 10.344
20.7741 10.557
20.7892 10.307
20.8044 10.405
20.8196 10.495
20.8348 10.131
20.8499 10.473
20.8651 10.350
20.8803 10.210
20.8955 10.176
20.9106 10.176
20.9258 10.318
20.9410 10.231
20.9562 10.262
20.9713 10.004
20.9865 10.019
21.0017 9.845
21.0169 9.975
21.0320 10.150
21.0472 9.737
21.0624 9.887
21.0776 9.992
21.0927 10.130
21.1079 9.780
21.1231 9.773
21.1383 9.926
21.1534 10.152
21.1686 10.087
21.1838 9.717
21.1990 9.650
21.2141 9.673
21.2293 9.832
21.2445 9.598
21.2597 9.576
21.2748 9.565
21.2900 9.606
21.3052 9.627
21.3204 9.294
21.3355 9.534
21.3507 9.341
21.3659 9.557
21.3811 9.626
21.3962 9.489
21.4114 9.206
21.4266 9.339
21.4418 9.457
21.4569 9.360
21.4721 9.293
21.4873 9.655
21.5025 9.374
21.5176 9.543
21.5328 9.550
21.5480 9.185
21.5632 8.981
21.5783 9.141
21.5935 9.217
21.6087 9.349
21.6239 9.379
21.6390 9.028
21.6542 9.216
21.6694 9.192
21.6846 9.374
21.6997 9.399
21.7149 9.220
21.7301 9.302
21.7453 8.964
21.7604 8.928
21.7756 9.067
21.7908 8.653
21.8060 8.860
21.8211 9.078
21.8363 9.139
21.8515 9.119
21.8667 9.063
21.8818 8.987
21.8970 9.202
21.9122 9.051
21.9274 8.888
21.9425 8.774
21.9577 8.807
21.9729 8.673
21.9881 8.623
22.0032 8.829
22.0184 8.963
22.0336 8.900
22.0488 8.689
22.0639 8.714
22.0791 8.697
22.0943 8.712
22.1095 8.787
22.1246 8.613
22.1398 8.716
22.1550 8.702
22.1702 8.619
22.1853 8.698
22.2005 8.534
22.2157 8.442
22.2309 8.413
22.2460 8.382
22.2612 8.425
22.2764 8.363
22.2916 8.550
22.3067 8.590
22.3219 8.413
22.3371 8.443
22.3523 8.474
22.3674 8.389
22.3826 8.323
22.3978 8.503
22.4130 8.430
22.4281 8.592
22.4433 8.390
22.4585 8.316
22.4737 8.352
22.4888 8.437
22.5040 8.284
22.5192 8.682
22.5344 8.295
22.5495 8.299
22.5647 8.284
22.5799 8.381
22.5951 8.187
22.6102 8.325
22.6254 8.989
22.6406 8.681
22.6558 8.357
22.6709 8.162
22.6861 8.421
22.7013 8.115
22.7165 8.002
22.7316 6.243
