'Id: "" Comment: "" Operator: "Lab Manager" Anode: "Mo" Scantype: "Still (Eiger2R_500K (1D mode))" TimePerStep: "300" X: "11.8" Y: "9.4" Z: "11.284" 
7.2532 19.232
7.2684 18.937
7.2836 18.585
7.2987 18.789
7.3139 18.966
7.3291 19.157
7.3443 19.340
7.3594 19.654
7.3746 19.534
7.3898 19.586
7.4050 19.636
7.4201 19.557
7.4353 19.688
7.4505 19.562
7.4657 19.760
7.4808 19.642
7.4960 19.835
7.5112 19.730
7.5264 19.594
7.5415 19.386
7.5567 19.747
7.5719 19.794
7.5871 20.113
7.6022 20.189
7.6174 20.181
7.6326 20.070
7.6478 20.083
7.6629 20.485
7.6781 20.502
7.6933 20.092
7.7085 19.986
7.7236 20.215
7.7388 20.334
7.7540 20.323
7.7692 20.166
7.7843 20.145
7.7995 20.506
7.8147 20.752
7.8299 20.701
7.8450 20.818
7.8602 21.011
7.8754 20.694
7.8905 20.913
7.9057 21.042
7.9209 20.944
7.9361 20.952
7.9512 20.871
7.9664 20.743
7.9816 20.928
7.9968 21.249
8.0119 20.905
8.0271 21.007
8.0423 21.345
8.0575 21.607
8.0726 21.610
8.0878 21.443
8.1030 21.316
8.1182 21.242
8.1333 21.778
8.1485 21.653
8.1637 21.210
8.1789 21.424
8.1940 21.825
8.2092 21.849
8.2244 21.782
8.2396 21.867
8.2547 21.801
8.2699 21.661
8.2851 21.462
8.3003 21.891
8.3154 22.019
8.3306 21.851
8.3458 21.917
8.3610 21.947
8.3761 21.970
8.3913 21.575
8.4065 21.726
8.4217 21.781
8.4368 22.091
8.4520 22.258
8.4672 22.182
8.4824 21.817
8.4975 21.579
8.5127 22.638
8.5279 22.228
8.5431 21.937
8.5582 22.058
8.5734 21.771
8.5886 22.419
8.6038 22.544
8.6189 22.050
8.6341 22.121
8.6493 22.441
8.6645 22.399
8.6796 22.254
8.6948 22.588
8.7100 22.544
8.7252 22.660
8.7403 22.664
8.7555 22.731
8.7707 22.511
8.7859 22.419
8.8010 22.299
8.8162 22.499
8.8314 22.424
8.8466 22.862
8.8617 22.768
8.8769 22.959
8.8921 22.752
8.9073 22.695
8.9224 22.824
8.9376 22.807
8.9528 22.888
8.9680 22.928
8.9831 22.855
8.9983 22.458
9.0135 22.429
9.0287 22.795
9.0438 22.823
9.0590 22.593
9.0742 22.816
9.0894 22.546
9.1045 22.644
9.1197 23.003
9.1349 23.164
9.1501 22.971
9.1652 22.736
9.1804 23.028
9.1956 22.775
9.2108 22.646
9.2259 22.580
9.2411 23.049
9.2563 23.199
9.2715 23.381
9.2866 23.253
9.3018 23.055
9.3170 22.861
9.3322 23.192
9.3473 23.230
9.3625 23.060
9.3777 23.251
9.3929 23.392
9.4080 23.413
9.4232 23.250
9.4384 23.027
9.4536 23.064
9.4687 23.173
9.4839 23.115
9.4991 23.225
9.5143 23.080
9.5294 23.190
9.5446 23.498
9.5598 23.299
9.5750 23.407
9.5901 23.790
9.6053 23.848
9.6205 23.745
9.6357 23.611
9.6508 23.543
9.6660 23.560
9.6812 23.892
9.6964 24.181
9.7115 24.205
9.7267 24.321
9.7419 23.986
9.7571 23.858
9.7722 24.092
9.7874 24.030
9.8026 23.827
9.8178 23.718
9.8329 24.151
9.8481 24.046
9.8633 23.519
9.8785 23.395
9.8936 23.468
9.9088 23.808
9.9240 24.147
9.9392 23.810
9.9543 23.684
9.9695 23.766
9.9847 23.530
9.9999 23.396
10.0150 23.316
10.0302 23.365
10.0454 23.275
10.0606 23.151
10.0757 23.281
10.0909 23.518
10.1061 23.516
10.1213 23.107
10.1364 22.839
10.1516 22.995
10.1668 22.927
10.1820 22.939
10.1971 23.313
10.2123 23.543
10.2275 23.503
10.2427 23.038
10.2578 22.896
10.2730 23.122
10.2882 22.992
10.3034 23.097
10.3185 23.246
10.3337 23.364
10.3489 23.089
10.3641 23.093
10.3792 23.036
10.3944 23.239
10.4096 23.309
10.4248 23.074
10.4399 23.140
10.4551 23.455
10.4703 22.844
10.4855 22.595
10.5006 22.648
10.5158 22.735
10.5310 22.964
10.5462 23.024
10.5613 22.770
10.5765 22.673
10.5917 22.222
10.6069 22.526
10.6220 22.725
10.6372 22.605
10.6524 22.473
10.6676 22.436
10.6827 22.497
10.6979 22.858
10.7131 22.619
10.7283 22.833
10.7434 22.525
10.7586 22.472
10.7738 22.553
10.7890 22.286
10.8041 22.374
10.8193 22.299
10.8345 21.929
10.8497 22.072
10.8648 22.327
10.8800 22.304
10.8952 22.349
10.9104 22.129
10.9255 22.275
10.9407 22.143
10.9559 22.113
10.9711 21.948
10.9862 22.097
11.0014 22.722
11.0166 22.565
11.0318 22.312
11.0469 22.171
11.0621 21.291
11.0773 21.534
11.0925 21.885
11.1076 21.778
11.1228 21.944
11.1380 22.134
11.1532 21.405
11.1683 21.393
11.1835 21.799
11.1987 22.010
11.2139 22.080
11.2290 21.757
11.2442 21.350
11.2594 21.591
11.2746 21.362
11.2897 21.777
11.3049 21.649
11.3201 21.349
11.3353 21.533
11.3504 21.724
11.3656 21.467
11.3808 21.044
11.3960 21.228
11.4111 21.152
11.4263 20.725
11.4415 21.164
11.4567 21.498
11.4718 21.457
11.4870 21.253
11.5022 21.309
11.5174 21.231
11.5325 21.153
11.5477 21.378
11.5629 21.221
11.5781 20.832
11.5932 20.755
11.6084 20.697
11.6236 20.745
11.6388 20.932
11.6539 20.712
11.6691 20.528
11.6843 20.685
11.6995 20.715
11.7146 20.803
11.7298 20.392
11.7450 20.687
11.7602 20.877
11.7753 20.489
11.7905 20.344
11.8057 20.234
11.8209 20.394
11.8360 20.223
11.8512 19.796
11.8664 19.721
11.8816 19.808
11.8967 19.627
11.9119 19.716
11.9271 19.674
11.9423 19.692
11.9574 19.551
11.9726 19.546
11.9878 19.390
12.0030 19.503
12.0181 19.431
12.0333 19.175
12.0485 18.826
12.0637 18.790
12.0788 18.761
12.0940 18.799
12.1092 19.023
12.1244 18.593
12.1395 18.619
12.1547 18.541
12.1699 18.282
12.1851 17.933
12.2002 18.144
12.2154 18.214
12.2306 17.970
12.2458 17.952
12.2609 17.681
12.2761 17.648
12.2913 17.719
12.3065 17.994
12.3216 17.855
12.3368 17.616
12.3520 17.249
12.3672 17.244
12.3823 17.619
12.3975 17.668
12.4127 17.316
12.4279 17.131
12.4430 16.921
12.4582 17.019
12.4734 16.743
12.4886 16.733
12.5037 16.767
12.5189 16.535
12.5341 16.549
12.5493 16.596
12.5644 16.470
12.5796 16.447
12.5948 16.297
12.6100 16.036
12.6251 16.145
12.6403 16.157
12.6555 15.977
12.6707 15.657
12.6858 15.829
12.7010 15.969
12.7162 15.738
12.7314 15.529
12.7465 15.421
12.7617 15.374
12.7769 15.294
12.7921 14.984
12.8072 14.968
12.8224 14.877
12.8376 14.966
12.8528 15.037
12.8679 15.041
12.8831 14.849
12.8983 14.533
12.9135 14.597
12.9286 14.767
12.9438 14.637
12.9590 14.376
12.9742 14.538
12.9893 14.581
13.0045 14.367
13.0197 14.480
13.0349 14.280
13.0500 14.025
13.0652 13.731
13.0804 13.629
13.0956 13.777
13.1107 13.731
13.1259 13.676
13.1411 13.675
13.1563 13.784
13.1714 13.774
13.1866 13.457
13.2018 13.257
13.2170 13.586
13.2321 13.535
13.2473 13.430
13.2625 13.551
13.2777 13.479
13.2928 13.322
13.3080 13.198
13.3232 13.258
13.3384 13.190
13.3535 13.235
13.3687 13.032
13.3839 12.857
13.3991 12.981
13.4142 13.111
13.4294 13.084
13.4446 12.872
13.4598 12.508
13.4749 12.368
13.4901 12.742
13.5053 12.845
13.5205 12.719
13.5356 12.660
13.5508 12.611
13.5660 12.375
13.5812 12.289
13.5963 12.366
13.6115 12.229
13.6267 12.165
13.6419 12.340
13.6570 12.191
13.6722 11.949
13.6874 12.265
13.7026 12.234
13.7177 12.037
13.7329 12.436
13.7481 12.458
13.7633 12.202
13.7784 12.438
13.7936 12.359
13.8088 12.109
13.8239 12.083
13.8391 12.387
13.8543 12.342
13.8695 12.383
13.8846 12.649
13.8998 12.332
13.9150 12.177
13.9302 12.224
13.9453 12.047
13.9605 11.898
13.9757 11.967
13.9909 11.531
14.0060 11.407
14.0212 11.438
14.0364 11.610
14.0516 11.508
14.0667 11.399
14.0819 11.454
14.0971 11.514
14.1123 11.539
14.1274 11.731
14.1426 11.425
14.1578 11.371
14.1730 11.382
14.1881 11.263
14.2033 11.353
14.2185 11.433
14.2337 11.541
14.2488 11.673
14.2640 11.513
14.2792 11.468
14.2944 11.470
14.3095 11.851
14.3247 11.572
14.3399 11.871
14.3551 12.306
14.3702 12.076
14.3854 12.368
14.4006 12.321
14.4158 12.437
14.4309 12.772
14.4461 12.942
14.4613 12.622
14.4765 12.545
14.4916 12.365
14.5068 12.233
14.5220 12.285
14.5372 11.981
14.5523 11.565
14.5675 11.500
14.5827 11.539
14.5979 11.186
14.6130 11.384
14.6282 11.173
14.6434 11.156
14.6586 11.096
14.6737 10.835
14.6889 11.078
14.7041 10.998
14.7193 10.919
14.7344 10.938
14.7496 10.839
14.7648 11.262
14.7800 10.934
14.7951 11.127
14.8103 11.031
14.8255 10.921
14.8407 10.983
14.8558 10.908
14.8710 10.756
14.8862 11.079
14.9014 10.707
14.9165 11.143
14.9317 10.981
14.9469 10.881
14.9621 10.855
14.9772 10.147
14.9924 10.573
15.0076 10.550
15.0228 10.908
15.0379 10.475
15.0531 10.475
15.0683 10.601
15.0835 10.557
15.0986 10.447
15.1138 10.477
15.1290 10.407
15.1442 10.708
15.1593 10.083
15.1745 10.231
15.1897 10.305
15.2049 10.322
15.2200 10.894
15.2352 10.350
15.2504 10.322
15.2656 10.391
15.2807 10.505
15.2959 10.598
15.3111 10.512
15.3263 10.300
15.3414 10.542
15.3566 10.148
15.3718 10.337
15.3870 10.669
15.4021 10.399
15.4173 10.228
15.4325 10.543
15.4477 10.642
15.4628 10.385
15.4780 10.274
15.4932 10.373
15.5084 10.271
15.5235 10.295
15.5387 10.531
15.5539 10.323
15.5691 9.827
15.5842 10.174
15.5994 10.217
15.6146 10.132
15.6298 10.318
15.6449 10.059
15.6601 10.017
15.6753 10.096
15.6905 10.281
15.7056 10.160
15.7208 10.166
15.7360 10.195
15.7512 9.918
15.7663 9.893
15.7815 9.632
15.7967 9.955
15.8119 10.001
15.8270 9.970
15.8422 9.637
15.8574 9.635
15.8726 9.596
15.8877 9.798
15.9029 9.729
15.9181 9.530
15.9333 9.633
15.9484 9.592
15.9636 9.840
15.9788 9.691
15.9940 9.799
16.0091 9.933
16.0243 9.885
16.0395 9.963
16.0547 9.992
16.0698 9.778
16.0850 9.941
16.1002 9.587
16.1154 9.373
16.1305 9.657
16.1457 9.837
16.1609 9.686
16.1761 9.709
16.1912 9.751
16.2064 9.734
16.2216 9.699
16.2368 9.768
16.2519 10.032
16.2671 10.125
16.2823 10.158
16.2975 10.033
16.3126 9.983
16.3278 9.936
16.3430 10.099
16.3582 9.818
16.3733 9.800
16.3885 10.018
16.4037 10.100
16.4189 9.981
16.4340 9.870
16.4492 9.745
16.4644 9.804
16.4796 9.926
16.4947 9.787
16.5099 9.825
16.5251 10.102
16.5403 9.956
16.5554 9.815
16.5706 9.958
16.5858 9.945
16.6010 9.917
16.6161 10.069
16.6313 9.932
16.6465 9.874
16.6617 10.011
16.6768 10.071
16.6920 10.166
16.7072 10.249
16.7224 10.393
16.7375 10.303
16.7527 10.257
16.7679 9.936
16.7831 9.846
16.7982 9.829
16.8134 9.620
16.8286 9.824
16.8438 9.939
16.8589 9.921
16.8741 10.043
16.8893 10.091
16.9045 10.050
16.9196 9.933
16.9348 9.801
16.9500 9.742
16.9652 9.978
16.9803 9.896
16.9955 9.901
17.0107 10.052
17.0259 10.066
17.0410 10.011
17.0562 10.133
17.0714 10.353
17.0866 10.539
17.1017 10.737
17.1169 10.766
17.1321 10.987
17.1473 11.528
17.1624 11.929
17.1776 12.524
17.1928 13.245
17.2080 14.069
17.2231 15.258
17.2383 16.602
17.2535 17.596
17.2687 18.333
17.2838 18.461
17.2990 17.878
17.3142 17.153
17.3294 16.431
17.3445 16.108
17.3597 16.063
17.3749 16.043
17.3901 15.272
17.4052 13.882
17.4204 13.218
17.4356 12.443
17.4508 11.571
17.4659 11.645
17.4811 11.631
17.4963 11.070
17.5115 10.727
17.5266 10.616
17.5418 10.552
17.5570 10.492
17.5722 10.305
17.5873 10.153
17.6025 10.116
17.6177 10.104
17.6329 10.149
17.6480 10.187
17.6632 10.127
17.6784 10.033
17.6936 9.840
17.7087 9.828
17.7239 10.071
17.7391 10.320
17.7543 10.262
17.7694 10.426
17.7846 10.666
17.7998 10.555
17.8150 10.846
17.8301 11.186
17.8453 11.048
17.8605 11.283
17.8757 11.297
17.8908 10.931
17.9060 10.984
17.9212 11.052
17.9364 10.697
17.9515 10.583
17.9667 10.569
17.9819 10.664
17.9971 10.784
18.0122 10.605
18.0274 10.665
18.0426 10.878
18.0578 10.488
18.0729 10.224
18.0881 10.145
18.1033 9.997
18.1185 9.981
18.1336 9.996
18.1488 9.999
18.1640 9.989
18.1792 10.028
18.1943 10.025
18.2095 9.928
18.2247 9.816
18.2399 10.097
18.2550 9.941
18.2702 9.904
18.2854 9.844
18.3006 9.642
18.3157 9.873
18.3309 9.926
18.3461 9.752
18.3613 9.743
18.3764 9.900
18.3916 9.803
18.4068 9.745
18.4220 9.635
18.4371 9.337
18.4523 9.458
18.4675 9.734
18.4827 9.891
18.4978 9.970
18.5130 9.980
18.5282 9.917
18.5434 9.832
18.5585 9.835
18.5737 9.767
18.5889 9.730
18.6041 9.754
18.6192 9.777
18.6344 9.794
18.6496 9.925
18.6648 9.819
18.6799 9.777
18.6951 9.794
18.7103 9.920
18.7255 9.775
18.7406 9.593
18.7558 9.859
18.7710 9.873
18.7862 9.913
18.8013 9.726
18.8165 9.646
18.8317 9.901
18.8469 10.167
18.8620 10.117
18.8772 9.854
18.8924 9.754
18.9076 9.853
18.9227 9.904
18.9379 9.995
18.9531 10.105
18.9683 10.191
18.9834 10.197
18.9986 10.174
19.0138 10.096
19.0290 10.184
19.0441 10.371
19.0593 10.279
19.0745 10.164
19.0897 10.314
19.1048 10.537
19.1200 10.266
19.1352 10.189
19.1504 10.457
19.1655 10.614
19.1807 10.728
19.1959 10.529
19.2111 10.499
19.2262 10.843
19.2414 10.807
19.2566 10.863
19.2718 10.991
19.2869 11.078
19.3021 11.133
19.3173 11.169
19.3325 11.279
19.3476 11.163
19.3628 11.023
19.3780 11.110
19.3932 11.210
19.4083 10.985
19.4235 11.084
19.4387 11.211
19.4539 11.263
19.4690 11.392
19.4842 11.412
19.4994 11.434
19.5146 11.363
19.5297 11.524
19.5449 11.721
19.5601 11.664
19.5753 11.673
19.5904 11.481
19.6056 11.613
19.6208 11.846
19.6360 11.577
19.6511 11.499
19.6663 11.663
19.6815 11.634
19.6967 11.621
19.7118 11.685
19.7270 11.861
19.7422 11.812
19.7574 11.656
19.7725 11.689
19.7877 11.601
19.8029 11.711
19.8180 12.063
19.8332 12.203
19.8484 12.117
19.8636 12.222
19.8787 12.589
19.8939 13.093
19.9091 13.356
19.9243 13.605
19.9394 14.010
19.9546 14.138
19.9698 14.290
19.9850 14.453
20.0001 14.601
20.0153 14.520
20.0305 14.078
20.0457 13.762
20.0608 13.647
20.0760 13.843
20.0912 13.842
20.1064 13.678
20.1215 13.425
20.1367 13.353
20.1519 13.094
20.1671 12.803
20.1822 12.721
20.1974 12.676
20.2126 12.564
20.2278 12.630
20.2429 12.481
20.2581 12.159
20.2733 12.110
20.2885 11.557
20.3036 11.358
20.3188 11.326
20.3340 11.320
20.3492 11.408
20.3643 11.285
20.3795 10.929
20.3947 10.961
20.4099 10.792
20.4250 10.773
20.4402 10.538
20.4554 10.814
20.4706 10.599
20.4857 10.782
20.5009 10.709
20.5161 10.656
20.5313 10.573
20.5464 10.465
20.5616 10.587
20.5768 10.708
20.5920 10.598
20.6071 10.556
20.6223 10.546
20.6375 10.655
20.6527 10.713
20.6678 10.462
20.6830 10.614
20.6982 10.603
20.7134 10.720
20.7285 10.384
20.7437 10.334
20.7589 10.277
20.7741 10.310
20.7892 10.303
20.8044 10.291
20.8196 10.474
20.8348 9.891
20.8499 10.014
20.8651 10.336
20.8803 10.393
20.8955 10.536
20.9106 10.460
20.9258 10.443
20.9410 10.429
20.9562 10.386
20.9713 10.365
20.9865 10.547
21.0017 10.371
21.0169 10.474
21.0320 10.173
21.0472 10.614
21.0624 10.114
21.0776 10.002
21.0927 10.341
21.1079 10.123
21.1231 9.923
21.1383 9.616
21.1534 9.735
21.1686 9.948
21.1838 9.821
21.1990 9.737
21.2141 9.753
21.2293 9.448
21.2445 9.536
21.2597 9.959
21.2748 9.793
21.2900 9.613
21.3052 9.314
21.3204 9.470
21.3355 9.520
21.3507 9.468
21.3659 9.459
21.3811 9.312
21.3962 9.253
21.4114 9.415
21.4266 9.257
21.4418 9.420
21.4569 9.316
21.4721 9.443
21.4873 9.307
21.5025 9.409
21.5176 9.527
21.5328 9.248
21.5480 9.242
21.5632 9.243
21.5783 9.515
21.5935 9.306
21.6087 9.260
21.6239 9.204
21.6390 9.084
21.6542 9.185
21.6694 9.323
21.6846 9.246
21.6997 9.202
21.7149 9.101
21.7301 9.123
21.7453 9.155
21.7604 8.895
21.7756 8.922
21.7908 9.075
21.8060 8.916
21.8211 8.911
21.8363 9.012
21.8515 8.966
21.8667 9.006
21.8818 8.977
21.8970 9.118
21.9122 9.006
21.9274 8.974
21.9425 9.067
21.9577 8.990
21.9729 8.847
21.9881 8.693
22.0032 8.784
22.0184 8.973
22.0336 8.881
22.0488 8.876
22.0639 8.885
22.0791 8.753
22.0943 8.704
22.1095 8.575
22.1246 8.649
22.1398 8.585
22.1550 8.560
22.1702 8.738
22.1853 8.959
22.2005 8.875
22.2157 8.649
22.2309 8.754
22.2460 8.657
22.2612 8.537
22.2764 8.621
22.2916 8.566
22.3067 8.635
22.3219 8.692
22.3371 8.429
22.3523 8.485
22.3674 8.525
22.3826 8.550
22.3978 8.437
22.4130 8.528
22.4281 8.487
22.4433 8.501
22.4585 8.429
22.4737 8.533
22.4888 8.463
22.5040 8.445
22.5192 8.174
22.5344 8.630
22.5495 8.488
22.5647 8.419
22.5799 8.725
22.5951 8.365
22.6102 8.603
22.6254 8.452
22.6406 8.190
22.6558 8.816
22.6709 8.338
22.6861 8.428
22.7013 8.228
22.7165 7.736
22.7316 6.400
