'Id: "" Comment: "" Operator: "Lab Manager" Anode: "Mo" Scantype: "Still (Eiger2R_500K (1D mode))" TimePerStep: "300" X: "11.8" Y: "9.4" Z: "11.284" 
7.2532 19.092
7.2684 18.757
7.2836 19.185
7.2987 19.044
7.3139 18.472
7.3291 18.910
7.3443 19.282
7.3594 19.138
7.3746 19.270
7.3898 19.194
7.4050 19.699
7.4201 19.412
7.4353 19.475
7.4505 19.649
7.4657 19.714
7.4808 19.602
7.4960 19.519
7.5112 19.521
7.5264 19.749
7.5415 19.875
7.5567 20.075
7.5719 19.810
7.5871 19.925
7.6022 19.942
7.6174 19.926
7.6326 20.179
7.6478 20.428
7.6629 20.130
7.6781 20.031
7.6933 20.037
7.7085 20.113
7.7236 20.329
7.7388 20.439
7.7540 20.870
7.7692 20.817
7.7843 20.552
7.7995 20.528
7.8147 20.868
7.8299 20.785
7.8450 20.503
7.8602 20.821
7.8754 20.973
7.8905 20.952
7.9057 20.949
7.9209 20.983
7.9361 21.188
7.9512 21.058
7.9664 20.684
7.9816 20.925
7.9968 21.269
8.0119 21.271
8.0271 21.141
8.0423 21.075
8.0575 20.801
8.0726 21.165
8.0878 21.292
8.1030 21.321
8.1182 21.084
8.1333 21.238
8.1485 21.522
8.1637 21.493
8.1789 21.658
8.1940 21.760
8.2092 21.305
8.2244 21.000
8.2396 21.746
8.2547 22.088
8.2699 21.786
8.2851 21.986
8.3003 21.616
8.3154 22.217
8.3306 21.772
8.3458 21.959
8.3610 22.090
8.3761 22.205
8.3913 22.469
8.4065 21.752
8.4217 21.779
8.4368 21.851
8.4520 22.194
8.4672 22.174
8.4824 22.133
8.4975 21.951
8.5127 22.174
8.5279 22.023
8.5431 22.166
8.5582 22.286
8.5734 22.021
8.5886 21.869
8.6038 22.189
8.6189 22.298
8.6341 22.218
8.6493 21.995
8.6645 22.144
8.6796 22.519
8.6948 22.518
8.7100 22.623
8.7252 22.739
8.7403 22.621
8.7555 22.394
8.7707 22.558
8.7859 22.741
8.8010 22.956
8.8162 22.766
8.8314 22.667
8.8466 22.720
8.8617 22.145
8.8769 22.677
8.8921 22.781
8.9073 22.582
8.9224 22.486
8.9376 22.387
8.9528 22.560
8.9680 22.334
8.9831 22.635
8.9983 22.872
9.0135 23.006
9.0287 22.813
9.0438 22.928
9.0590 23.076
9.0742 22.911
9.0894 22.577
9.1045 23.063
9.1197 22.978
9.1349 22.990
9.1501 23.118
9.1652 23.150
9.1804 23.084
9.1956 23.165
9.2108 23.005
9.2259 22.786
9.2411 22.776
9.2563 22.861
9.2715 22.899
9.2866 23.088
9.3018 22.635
9.3170 22.604
9.3322 23.068
9.3473 23.234
9.3625 23.070
9.3777 23.004
9.3929 23.398
9.4080 23.331
9.4232 23.328
9.4384 23.243
9.4536 23.306
9.4687 23.263
9.4839 23.149
9.4991 22.952
9.5143 23.458
9.5294 23.396
9.5446 22.972
9.5598 23.296
9.5750 23.451
9.5901 23.330
9.6053 23.426
9.6205 23.622
9.6357 23.968
9.6508 23.867
9.6660 23.656
9.6812 23.437
9.6964 23.614
9.7115 23.830
9.7267 23.972
9.7419 24.071
9.7571 23.925
9.7722 23.800
9.7874 23.799
9.8026 23.664
9.8178 23.551
9.8329 23.683
9.8481 23.538
9.8633 23.014
9.8785 22.924
9.8936 23.199
9.9088 23.570
9.9240 23.235
9.9392 22.948
9.9543 23.329
9.9695 23.139
9.9847 23.531
9.9999 23.563
10.0150 23.393
10.0302 23.692
10.0454 23.475
10.0606 22.914
10.0757 22.961
10.0909 23.289
10.1061 23.119
10.1213 23.039
10.1364 23.037
10.1516 22.925
10.1668 23.336
10.1820 23.575
10.1971 23.381
10.2123 23.654
10.2275 23.413
10.2427 23.404
10.2578 23.509
10.2730 23.134
10.2882 23.202
10.3034 23.072
10.3185 23.164
10.3337 23.217
10.3489 22.976
10.3641 23.024
10.3792 22.981
10.3944 23.119
10.4096 22.968
10.4248 22.879
10.4399 23.445
10.4551 22.951
10.4703 22.643
10.4855 22.893
10.5006 22.885
10.5158 22.880
10.5310 23.038
10.5462 22.707
10.5613 22.780
10.5765 22.794
10.5917 22.456
10.6069 22.583
10.6220 22.693
10.6372 22.355
10.6524 22.735
10.6676 22.825
10.6827 22.449
10.6979 22.627
10.7131 22.850
10.7283 22.541
10.7434 22.428
10.7586 22.312
10.7738 22.392
10.7890 22.559
10.8041 22.152
10.8193 22.262
10.8345 21.905
10.8497 21.800
10.8648 22.410
10.8800 22.197
10.8952 22.072
10.9104 22.158
10.9255 22.081
10.9407 22.237
10.9559 22.338
10.9711 22.231
10.9862 22.236
11.0014 22.455
11.0166 22.315
11.0318 22.387
11.0469 21.788
11.0621 21.680
11.0773 21.962
11.0925 21.958
11.1076 21.675
11.1228 21.477
11.1380 21.621
11.1532 21.549
11.1683 21.615
11.1835 22.236
11.1987 21.816
11.2139 21.710
11.2290 21.867
11.2442 22.290
11.2594 21.884
11.2746 21.810
11.2897 22.014
11.3049 22.223
11.3201 21.899
11.3353 21.870
11.3504 21.801
11.3656 21.415
11.3808 21.287
11.3960 21.283
11.4111 21.487
11.4263 21.288
11.4415 21.227
11.4567 21.401
11.4718 21.335
11.4870 21.274
11.5022 20.801
11.5174 21.170
11.5325 21.075
11.5477 21.127
11.5629 21.294
11.5781 21.059
11.5932 21.046
11.6084 20.993
11.6236 20.662
11.6388 20.900
11.6539 20.879
11.6691 20.792
11.6843 20.459
11.6995 20.630
11.7146 20.610
11.7298 20.336
11.7450 20.338
11.7602 20.669
11.7753 20.233
11.7905 20.341
11.8057 20.049
11.8209 20.087
11.8360 19.925
11.8512 20.252
11.8664 20.118
11.8816 19.894
11.8967 19.811
11.9119 19.561
11.9271 19.651
11.9423 19.753
11.9574 19.604
11.9726 19.471
11.9878 19.129
12.0030 18.922
12.0181 19.283
12.0333 19.186
12.0485 19.079
12.0637 19.092
12.0788 18.991
12.0940 18.658
12.1092 18.960
12.1244 18.951
12.1395 18.683
12.1547 18.372
12.1699 18.292
12.1851 18.442
12.2002 18.221
12.2154 17.981
12.2306 17.955
12.2458 18.061
12.2609 17.938
12.2761 18.011
12.2913 17.969
12.3065 17.838
12.3216 17.803
12.3368 17.577
12.3520 17.469
12.3672 17.482
12.3823 17.471
12.3975 17.552
12.4127 17.569
12.4279 16.861
12.4430 16.866
12.4582 17.265
12.4734 17.290
12.4886 17.251
12.5037 16.941
12.5189 16.935
12.5341 16.918
12.5493 16.823
12.5644 16.660
12.5796 16.393
12.5948 16.021
12.6100 16.192
12.6251 16.144
12.6403 15.892
12.6555 15.799
12.6707 15.903
12.6858 15.924
12.7010 15.738
12.7162 15.771
12.7314 15.528
12.7465 15.229
12.7617 15.315
12.7769 15.317
12.7921 15.345
12.8072 15.258
12.8224 15.406
12.8376 15.446
12.8528 14.995
12.8679 14.941
12.8831 15.003
12.8983 14.684
12.9135 14.666
12.9286 14.809
12.9438 14.738
12.9590 14.794
12.9742 14.691
12.9893 14.496
13.0045 14.181
13.0197 14.494
13.0349 14.604
13.0500 14.177
13.0652 14.118
13.0804 14.225
13.0956 14.231
13.1107 14.123
13.1259 13.955
13.1411 13.949
13.1563 13.951
13.1714 13.668
13.1866 13.829
13.2018 13.765
13.2170 13.404
13.2321 13.598
13.2473 13.651
13.2625 13.453
13.2777 13.451
13.2928 13.520
13.3080 13.300
13.3232 13.086
13.3384 13.053
13.3535 13.241
13.3687 13.416
13.3839 13.109
13.3991 12.957
13.4142 13.103
13.4294 13.225
13.4446 13.029
13.4598 12.857
13.4749 12.748
13.4901 12.792
13.5053 12.710
13.5205 12.558
13.5356 12.525
13.5508 12.610
13.5660 12.533
13.5812 12.308
13.5963 12.319
13.6115 12.350
13.6267 12.653
13.6419 12.158
13.6570 11.761
13.6722 12.083
13.6874 12.045
13.7026 11.968
13.7177 12.107
13.7329 12.109
13.7481 12.218
13.7633 12.195
13.7784 12.475
13.7936 12.627
13.8088 12.417
13.8239 12.536
13.8391 12.489
13.8543 12.348
13.8695 12.664
13.8846 12.418
13.8998 12.244
13.9150 12.164
13.9302 12.465
13.9453 12.537
13.9605 11.984
13.9757 11.759
13.9909 11.743
14.0060 11.705
14.0212 11.332
14.0364 11.433
14.0516 11.626
14.0667 11.467
14.0819 11.610
14.0971 11.402
14.1123 11.590
14.1274 11.578
14.1426 11.619
14.1578 11.798
14.1730 11.664
14.1881 11.573
14.2033 11.635
14.2185 11.578
14.2337 11.349
14.2488 11.715
14.2640 11.857
14.2792 12.031
14.2944 11.761
14.3095 11.787
14.3247 12.018
14.3399 12.044
14.3551 12.259
14.3702 12.315
14.3854 12.340
14.4006 12.420
14.4158 12.719
14.4309 12.408
14.4461 12.123
14.4613 12.175
14.4765 12.144
14.4916 12.270
14.5068 11.933
14.5220 11.688
14.5372 11.209
14.5523 10.975
14.5675 11.172
14.5827 11.299
14.5979 11.166
14.6130 11.080
14.6282 11.202
14.6434 11.198
14.6586 11.006
14.6737 10.994
14.6889 10.861
14.7041 11.010
14.7193 10.999
14.7344 10.653
14.7496 10.808
14.7648 11.016
14.7800 10.817
14.7951 10.798
14.8103 10.601
14.8255 10.577
14.8407 10.399
14.8558 10.482
14.8710 10.659
14.8862 10.488
14.9014 10.679
14.9165 10.685
14.9317 10.881
14.9469 10.713
14.9621 10.380
14.9772 10.684
14.9924 10.635
15.0076 10.365
15.0228 10.410
15.0379 10.042
15.0531 10.337
15.0683 10.357
15.0835 10.377
15.0986 10.241
15.1138 10.468
15.1290 10.640
15.1442 10.267
15.1593 10.666
15.1745 10.485
15.1897 10.250
15.2049 10.437
15.2200 10.250
15.2352 10.458
15.2504 10.213
15.2656 10.444
15.2807 10.563
15.2959 9.688
15.3111 10.007
15.3263 10.254
15.3414 10.002
15.3566 10.144
15.3718 10.328
15.3870 10.475
15.4021 10.598
15.4173 10.730
15.4325 10.269
15.4477 10.352
15.4628 10.599
15.4780 10.392
15.4932 10.412
15.5084 10.474
15.5235 10.008
15.5387 10.519
15.5539 10.408
15.5691 10.281
15.5842 10.185
15.5994 10.299
15.6146 10.256
15.6298 10.501
15.6449 10.206
15.6601 10.000
15.6753 10.053
15.6905 9.927
15.7056 9.927
15.7208 10.166
15.7360 10.123
15.7512 9.647
15.7663 10.046
15.7815 9.746
15.7967 9.711
15.8119 9.999
15.8270 9.906
15.8422 9.811
15.8574 9.879
15.8726 9.770
15.8877 9.526
15.9029 9.743
15.9181 9.940
15.9333 10.079
15.9484 10.041
15.9636 9.714
15.9788 9.697
15.9940 9.931
16.0091 10.009
16.0243 9.961
16.0395 10.079
16.0547 9.818
16.0698 9.725
16.0850 9.625
16.1002 9.795
16.1154 9.759
16.1305 9.796
16.1457 9.866
16.1609 9.702
16.1761 9.602
16.1912 9.651
16.2064 9.798
16.2216 9.902
16.2368 9.967
16.2519 10.004
16.2671 10.081
16.2823 10.010
16.2975 10.144
16.3126 10.213
16.3278 9.984
16.3430 9.884
16.3582 10.033
16.3733 10.037
16.3885 10.078
16.4037 10.118
16.4189 10.085
16.4340 10.167
16.4492 10.201
16.4644 10.060
16.4796 9.948
16.4947 9.991
16.5099 9.762
16.5251 9.743
16.5403 9.745
16.5554 9.660
16.5706 9.708
16.5858 9.600
16.6010 9.717
16.6161 10.019
16.6313 9.826
16.6465 9.747
16.6617 9.768
16.6768 10.104
16.6920 10.166
16.7072 10.230
16.7224 10.207
16.7375 10.255
16.7527 10.265
16.7679 10.044
16.7831 9.907
16.7982 10.092
16.8134 9.973
16.8286 9.796
16.8438 9.761
16.8589 9.782
16.8741 9.792
16.8893 9.788
16.9045 9.957
16.9196 9.956
16.9348 9.976
16.9500 9.904
16.9652 9.772
16.9803 9.792
16.9955 9.814
17.0107 10.079
17.0259 9.894
17.0410 9.942
17.0562 10.176
17.0714 10.375
17.0866 10.565
17.1017 10.607
17.1169 10.624
17.1321 11.046
17.1473 11.438
17.1624 11.877
17.1776 12.573
17.1928 13.379
17.2080 14.201
17.2231 15.258
17.2383 16.500
17.2535 17.756
17.2687 18.804
17.2838 19.054
17.2990 18.334
17.3142 17.079
17.3294 16.424
17.3445 16.258
17.3597 16.183
17.3749 16.171
17.3901 15.442
17.4052 14.359
17.4204 13.343
17.4356 12.544
17.4508 12.114
17.4659 11.880
17.4811 11.534
17.4963 11.298
17.5115 11.306
17.5266 11.225
17.5418 11.241
17.5570 11.147
17.5722 11.092
17.5873 11.319
17.6025 11.282
17.6177 10.923
17.6329 10.941
17.6480 10.914
17.6632 10.650
17.6784 10.578
17.6936 10.662
17.7087 10.470
17.7239 10.452
17.7391 10.451
17.7543 10.342
17.7694 10.240
17.7846 10.201
17.7998 10.277
17.8150 10.068
17.8301 9.841
17.8453 9.815
17.8605 9.857
17.8757 10.136
17.8908 10.584
17.9060 10.542
17.9212 10.359
17.9364 10.278
17.9515 10.136
17.9667 10.381
17.9819 10.459
17.9971 10.398
18.0122 10.431
18.0274 10.302
18.0426 10.145
18.0578 10.238
18.0729 10.266
18.0881 10.462
18.1033 10.363
18.1185 10.040
18.1336 10.124
18.1488 10.117
18.1640 9.994
18.1792 10.082
18.1943 9.867
18.2095 9.822
18.2247 9.907
18.2399 9.998
18.2550 10.074
18.2702 9.847
18.2854 9.858
18.3006 9.982
18.3157 9.799
18.3309 9.791
18.3461 9.940
18.3613 9.996
18.3764 10.065
18.3916 9.767
18.4068 9.658
18.4220 10.061
18.4371 9.839
18.4523 9.762
18.4675 9.736
18.4827 9.892
18.4978 9.721
18.5130 9.583
18.5282 9.784
18.5434 9.759
18.5585 9.887
18.5737 9.850
18.5889 9.813
18.6041 9.536
18.6192 9.685
18.6344 9.886
18.6496 9.899
18.6648 9.785
18.6799 9.564
18.6951 9.674
18.7103 9.686
18.7255 9.701
18.7406 9.731
18.7558 9.913
18.7710 10.002
18.7862 9.912
18.8013 9.801
18.8165 9.690
18.8317 9.952
18.8469 9.935
18.8620 9.897
18.8772 9.943
18.8924 9.994
18.9076 9.985
18.9227 9.935
18.9379 10.000
18.9531 10.079
18.9683 10.109
18.9834 10.040
18.9986 10.022
19.0138 10.126
19.0290 10.134
19.0441 10.257
19.0593 10.435
19.0745 10.441
19.0897 10.261
19.1048 10.254
19.1200 10.108
19.1352 10.237
19.1504 10.205
19.1655 10.200
19.1807 10.405
19.1959 10.683
19.2111 10.593
19.2262 10.504
19.2414 10.674
19.2566 10.734
19.2718 10.968
19.2869 11.080
19.3021 10.893
19.3173 10.946
19.3325 11.014
19.3476 11.188
19.3628 11.319
19.3780 11.248
19.3932 11.048
19.4083 11.223
19.4235 11.409
19.4387 11.294
19.4539 11.217
19.4690 11.498
19.4842 11.711
19.4994 11.528
19.5146 11.388
19.5297 11.518
19.5449 11.502
19.5601 11.485
19.5753 11.547
19.5904 11.636
19.6056 11.746
19.6208 11.660
19.6360 11.539
19.6511 11.887
19.6663 11.950
19.6815 11.685
19.6967 11.599
19.7118 11.804
19.7270 11.710
19.7422 11.667
19.7574 11.870
19.7725 11.842
19.7877 11.883
19.8029 12.038
19.8180 12.155
19.8332 12.123
19.8484 12.039
19.8636 12.244
19.8787 12.513
19.8939 12.832
19.9091 13.104
19.9243 13.506
19.9394 13.824
19.9546 14.023
19.9698 14.235
19.9850 14.369
20.0001 14.326
20.0153 14.038
20.0305 13.808
20.0457 13.743
20.0608 13.741
20.0760 14.005
20.0912 14.105
20.1064 13.867
20.1215 13.611
20.1367 13.457
20.1519 13.204
20.1671 12.893
20.1822 12.968
20.1974 12.977
20.2126 12.745
20.2278 12.644
20.2429 12.524
20.2581 12.479
20.2733 12.286
20.2885 11.988
20.3036 11.805
20.3188 11.680
20.3340 11.573
20.3492 11.447
20.3643 11.600
20.3795 11.355
20.3947 11.383
20.4099 11.507
20.4250 11.082
20.4402 11.035
20.4554 10.955
20.4706 10.572
20.4857 10.665
20.5009 10.687
20.5161 10.488
20.5313 10.579
20.5464 10.581
20.5616 10.324
20.5768 10.358
20.5920 10.716
20.6071 10.820
20.6223 10.842
20.6375 10.679
20.6527 10.645
20.6678 10.620
20.6830 10.727
20.6982 10.406
20.7134 10.426
20.7285 10.814
20.7437 10.688
20.7589 10.405
20.7741 10.167
20.7892 10.161
20.8044 10.286
20.8196 9.905
20.8348 9.874
20.8499 10.261
20.8651 10.126
20.8803 10.394
20.8955 10.208
20.9106 10.261
20.9258 10.135
20.9410 10.242
20.9562 10.037
20.9713 10.148
20.9865 9.886
21.0017 9.903
21.0169 9.844
21.0320 10.008
21.0472 9.859
21.0624 9.976
21.0776 10.065
21.0927 9.826
21.1079 9.879
21.1231 9.985
21.1383 10.123
21.1534 9.733
21.1686 9.773
21.1838 9.586
21.1990 9.697
21.2141 9.521
21.2293 9.526
21.2445 9.783
21.2597 9.590
21.2748 9.602
21.2900 9.623
21.3052 9.651
21.3204 9.471
21.3355 9.352
21.3507 9.518
21.3659 9.515
21.3811 9.571
21.3962 9.561
21.4114 9.626
21.4266 9.250
21.4418 9.276
21.4569 9.328
21.4721 9.310
21.4873 9.505
21.5025 9.570
21.5176 9.228
21.5328 9.287
21.5480 9.269
21.5632 9.233
21.5783 9.312
21.5935 9.335
21.6087 9.438
21.6239 9.373
21.6390 9.157
21.6542 9.225
21.6694 9.040
21.6846 9.107
21.6997 9.146
21.7149 8.957
21.7301 8.946
21.7453 8.958
21.7604 9.118
21.7756 8.936
21.7908 8.876
21.8060 8.990
21.8211 9.013
21.8363 9.051
21.8515 9.105
21.8667 9.231
21.8818 9.287
21.8970 9.064
21.9122 8.948
21.9274 8.976
21.9425 8.984
21.9577 9.018
21.9729 9.033
21.9881 9.077
22.0032 9.141
22.0184 8.788
22.0336 8.710
22.0488 8.871
22.0639 8.812
22.0791 8.672
22.0943 8.707
22.1095 8.741
22.1246 8.840
22.1398 8.825
22.1550 8.724
22.1702 8.744
22.1853 8.891
22.2005 8.564
22.2157 8.578
22.2309 8.692
22.2460 8.506
22.2612 8.833
22.2764 8.913
22.2916 8.689
22.3067 8.562
22.3219 8.495
22.3371 8.632
22.3523 8.616
22.3674 8.769
22.3826 8.784
22.3978 8.777
22.4130 8.703
22.4281 8.358
22.4433 8.480
22.4585 8.588
22.4737 8.504
22.4888 8.569
22.5040 8.574
22.5192 8.649
22.5344 8.440
22.5495 8.331
22.5647 8.525
22.5799 8.543
22.5951 8.259
22.6102 8.078
22.6254 8.590
22.6406 8.606
22.6558 8.436
22.6709 8.667
22.6861 8.172
22.7013 8.125
22.7165 7.928
22.7316 6.481
