'Id: "" Comment: "" Operator: "Lab Manager" Anode: "Mo" Scantype: "Still (Eiger2R_500K (1D mode))" TimePerStep: "300" X: "11.8" Y: "9.4" Z: "11.284" 
7.2532 18.790
7.2684 18.980
7.2836 19.032
7.2987 18.689
7.3139 19.005
7.3291 19.242
7.3443 18.867
7.3594 19.588
7.3746 19.192
7.3898 19.044
7.4050 19.322
7.4201 19.296
7.4353 19.127
7.4505 19.536
7.4657 19.755
7.4808 19.414
7.4960 19.163
7.5112 19.564
7.5264 20.013
7.5415 19.981
7.5567 19.999
7.5719 19.927
7.5871 19.924
7.6022 20.031
7.6174 20.046
7.6326 19.930
7.6478 19.987
7.6629 20.536
7.6781 20.151
7.6933 20.067
7.7085 20.207
7.7236 20.437
7.7388 20.482
7.7540 20.320
7.7692 20.111
7.7843 20.192
7.7995 20.269
7.8147 20.299
7.8299 20.314
7.8450 20.631
7.8602 20.966
7.8754 20.946
7.8905 20.845
7.9057 20.671
7.9209 20.697
7.9361 20.874
7.9512 20.887
7.9664 20.921
7.9816 20.796
7.9968 20.803
8.0119 20.901
8.0271 21.238
8.0423 21.065
8.0575 21.295
8.0726 21.463
8.0878 21.373
8.1030 21.337
8.1182 21.011
8.1333 21.239
8.1485 21.599
8.1637 21.563
8.1789 21.352
8.1940 21.482
8.2092 21.893
8.2244 21.924
8.2396 21.541
8.2547 21.402
8.2699 21.343
8.2851 22.055
8.3003 21.500
8.3154 21.951
8.3306 22.118
8.3458 21.963
8.3610 21.829
8.3761 21.916
8.3913 22.105
8.4065 21.871
8.4217 21.971
8.4368 21.778
8.4520 21.622
8.4672 22.257
8.4824 22.384
8.4975 22.217
8.5127 22.085
8.5279 21.501
8.5431 21.933
8.5582 22.325
8.5734 22.195
8.5886 22.232
8.6038 21.878
8.6189 22.377
8.6341 22.196
8.6493 22.078
8.6645 21.824
8.6796 22.253
8.6948 22.641
8.7100 21.938
8.7252 22.123
8.7403 22.502
8.7555 22.432
8.7707 22.674
8.7859 22.231
8.8010 22.258
8.8162 22.711
8.8314 23.064
8.8466 22.396
8.8617 22.837
8.8769 22.520
8.8921 22.332
8.9073 22.365
8.9224 22.244
8.9376 22.493
8.9528 22.691
8.9680 22.499
8.9831 22.695
8.9983 22.868
9.0135 22.647
9.0287 22.533
9.0438 22.787
9.0590 23.131
9.0742 22.831
9.0894 22.617
9.1045 22.863
9.1197 23.249
9.1349 22.782
9.1501 22.725
9.1652 22.798
9.1804 22.933
9.1956 23.122
9.2108 23.109
9.2259 23.102
9.2411 22.564
9.2563 22.750
9.2715 23.121
9.2866 22.995
9.3018 22.972
9.3170 22.868
9.3322 22.535
9.3473 22.843
9.3625 23.013
9.3777 23.079
9.3929 23.371
9.4080 23.574
9.4232 23.116
9.4384 22.861
9.4536 22.931
9.4687 23.113
9.4839 23.020
9.4991 23.124
9.5143 23.017
9.5294 22.850
9.5446 23.425
9.5598 23.368
9.5750 23.466
9.5901 23.458
9.6053 23.162
9.6205 23.013
9.6357 23.286
9.6508 23.451
9.6660 23.641
9.6812 23.777
9.6964 23.613
9.7115 23.965
9.7267 24.101
9.7419 23.926
9.7571 23.920
9.7722 24.005
9.7874 23.970
9.8026 23.996
9.8178 23.897
9.8329 23.431
9.8481 23.301
9.8633 23.769
9.8785 23.655
9.8936 23.297
9.9088 23.324
9.9240 23.225
9.9392 23.322
9.9543 23.331
9.9695 23.232
9.9847 23.081
9.9999 22.988
10.0150 23.378
10.0302 23.458
10.0454 23.469
10.0606 23.606
10.0757 23.552
10.0909 23.445
10.1061 23.338
10.1213 23.247
10.1364 23.370
10.1516 23.449
10.1668 23.751
10.1820 23.673
10.1971 23.252
10.2123 23.354
10.2275 23.291
10.2427 22.987
10.2578 22.885
10.2730 22.764
10.2882 23.007
10.3034 22.906
10.3185 22.810
10.3337 23.029
10.3489 22.840
10.3641 22.570
10.3792 22.715
10.3944 22.832
10.4096 22.689
10.4248 22.373
10.4399 22.529
10.4551 22.469
10.4703 22.479
10.4855 22.840
10.5006 22.629
10.5158 22.485
10.5310 22.627
10.5462 22.727
10.5613 22.654
10.5765 22.595
10.5917 22.803
10.6069 22.384
10.6220 22.585
10.6372 22.633
10.6524 22.389
10.6676 22.656
10.6827 22.991
10.6979 22.821
10.7131 22.343
10.7283 22.367
10.7434 22.218
10.7586 22.473
10.7738 22.496
10.7890 22.446
10.8041 22.632
10.8193 22.490
10.8345 21.942
10.8497 22.382
10.8648 22.332
10.8800 21.987
10.8952 22.003
10.9104 21.967
10.9255 21.850
10.9407 21.971
10.9559 21.652
10.9711 22.131
10.9862 22.228
11.0014 21.897
11.0166 21.954
11.0318 21.935
11.0469 21.746
11.0621 21.850
11.0773 21.742
11.0925 21.724
11.1076 22.039
11.1228 22.217
11.1380 21.573
11.1532 21.454
11.1683 21.679
11.1835 21.811
11.1987 21.667
11.2139 21.502
11.2290 21.650
11.2442 21.519
11.2594 21.451
11.2746 21.411
11.2897 21.741
11.3049 21.303
11.3201 21.082
11.3353 21.433
11.3504 21.588
11.3656 21.576
11.3808 21.458
11.3960 21.873
11.4111 21.293
11.4263 21.343
11.4415 21.211
11.4567 21.265
11.4718 21.233
11.4870 20.900
11.5022 20.863
11.5174 21.188
11.5325 21.285
11.5477 21.008
11.5629 20.798
11.5781 20.736
11.5932 20.794
11.6084 21.014
11.6236 20.790
11.6388 20.770
11.6539 20.577
11.6691 20.711
11.6843 20.397
11.6995 20.576
11.7146 20.400
11.7298 20.297
11.7450 20.332
11.7602 20.303
11.7753 20.161
11.7905 20.163
11.8057 20.165
11.8209 20.187
11.8360 20.132
11.8512 19.621
11.8664 19.441
11.8816 19.834
11.8967 19.601
11.9119 19.436
11.9271 19.431
11.9423 19.567
11.9574 19.514
11.9726 19.751
11.9878 19.508
12.0030 19.467
12.0181 19.456
12.0333 19.021
12.0485 19.050
12.0637 18.977
12.0788 18.821
12.0940 18.617
12.1092 18.595
12.1244 18.586
12.1395 18.859
12.1547 18.560
12.1699 18.170
12.1851 18.321
12.2002 18.304
12.2154 18.036
12.2306 17.740
12.2458 17.674
12.2609 18.246
12.2761 18.447
12.2913 18.063
12.3065 17.771
12.3216 17.884
12.3368 17.669
12.3520 17.589
12.3672 17.433
12.3823 17.407
12.3975 17.215
12.4127 17.145
12.4279 17.220
12.4430 17.037
12.4582 16.773
12.4734 16.610
12.4886 16.506
12.5037 16.713
12.5189 16.691
12.5341 16.563
12.5493 16.472
12.5644 16.196
12.5796 16.097
12.5948 16.215
12.6100 16.244
12.6251 16.380
12.6403 15.952
12.6555 15.654
12.6707 15.872
12.6858 15.629
12.7010 15.498
12.7162 15.478
12.7314 15.205
12.7465 15.440
12.7617 15.290
12.7769 14.995
12.7921 14.964
12.8072 15.179
12.8224 15.251
12.8376 14.831
12.8528 14.853
12.8679 14.898
12.8831 14.848
12.8983 14.738
12.9135 14.743
12.9286 14.715
12.9438 14.696
12.9590 14.621
12.9742 14.505
12.9893 14.476
13.0045 14.451
13.0197 14.369
13.0349 14.145
13.0500 14.099
13.0652 14.129
13.0804 13.857
13.0956 13.898
13.1107 14.104
13.1259 14.009
13.1411 13.743
13.1563 13.743
13.1714 13.893
13.1866 13.710
13.2018 13.655
13.2170 13.621
13.2321 13.653
13.2473 13.771
13.2625 13.455
13.2777 13.150
13.2928 13.334
13.3080 13.455
13.3232 13.349
13.3384 13.277
13.3535 13.148
13.3687 12.933
13.3839 12.891
13.3991 13.037
13.4142 13.009
13.4294 12.935
13.4446 12.935
13.4598 13.096
13.4749 13.078
13.4901 12.712
13.5053 12.500
13.5205 12.388
13.5356 12.406
13.5508 12.243
13.5660 12.380
13.5812 12.562
13.5963 12.453
13.6115 12.174
13.6267 12.277
13.6419 12.392
13.6570 12.171
13.6722 12.184
13.6874 12.212
13.7026 12.300
13.7177 12.543
13.7329 12.348
13.7481 12.089
13.7633 12.129
13.7784 12.242
13.7936 12.248
13.8088 12.114
13.8239 12.084
13.8391 12.344
13.8543 12.334
13.8695 12.269
13.8846 12.404
13.8998 12.126
13.9150 12.080
13.9302 12.212
13.9453 11.785
13.9605 11.683
13.9757 11.956
13.9909 12.054
14.0060 11.790
14.0212 11.801
14.0364 11.483
14.0516 11.611
14.0667 11.596
14.0819 11.487
14.0971 11.420
14.1123 11.536
14.1274 11.587
14.1426 11.618
14.1578 11.734
14.1730 11.627
14.1881 11.528
14.2033 11.564
14.2185 11.467
14.2337 11.836
14.2488 11.932
14.2640 11.947
14.2792 12.177
14.2944 12.432
14.3095 12.446
14.3247 12.557
14.3399 12.682
14.3551 12.776
14.3702 13.062
14.3854 13.067
14.4006 13.244
14.4158 13.225
14.4309 12.796
14.4461 12.745
14.4613 12.600
14.4765 12.522
14.4916 12.341
14.5068 11.943
14.5220 11.915
14.5372 11.743
14.5523 11.508
14.5675 11.589
14.5827 11.357
14.5979 10.975
14.6130 10.945
14.6282 10.965
14.6434 11.043
14.6586 10.967
14.6737 10.616
14.6889 10.314
14.7041 10.563
14.7193 10.725
14.7344 10.811
14.7496 10.753
14.7648 10.675
14.7800 10.369
14.7951 10.677
14.8103 10.638
14.8255 10.800
14.8407 10.453
14.8558 10.501
14.8710 10.324
14.8862 10.603
14.9014 10.334
14.9165 11.091
14.9317 10.709
14.9469 10.551
14.9621 10.377
14.9772 9.925
14.9924 10.160
15.0076 10.223
15.0228 10.566
15.0379 10.844
15.0531 10.370
15.0683 10.245
15.0835 10.423
15.0986 10.323
15.1138 10.079
15.1290 10.620
15.1442 10.011
15.1593 10.322
15.1745 10.134
15.1897 10.036
15.2049 10.164
15.2200 9.940
15.2352 10.076
15.2504 10.301
15.2656 10.517
15.2807 9.943
15.2959 10.264
15.3111 10.153
15.3263 9.994
15.3414 10.196
15.3566 9.762
15.3718 10.227
15.3870 10.265
15.4021 10.218
15.4173 10.199
15.4325 10.089
15.4477 9.971
15.4628 10.446
15.4780 10.119
15.4932 10.145
15.5084 10.401
15.5235 10.124
15.5387 10.207
15.5539 10.019
15.5691 10.126
15.5842 10.109
15.5994 9.895
15.6146 9.755
15.6298 9.851
15.6449 9.908
15.6601 9.736
15.6753 9.904
15.6905 9.901
15.7056 10.043
15.7208 9.683
15.7360 9.730
15.7512 9.879
15.7663 9.669
15.7815 9.706
15.7967 9.971
15.8119 9.455
15.8270 9.996
15.8422 9.959
15.8574 9.574
15.8726 9.556
15.8877 9.542
15.9029 9.609
15.9181 9.410
15.9333 9.751
15.9484 9.821
15.9636 9.486
15.9788 9.698
15.9940 9.743
16.0091 9.586
16.0243 9.875
16.0395 9.882
16.0547 9.748
16.0698 9.650
16.0850 9.879
16.1002 9.373
16.1154 9.621
16.1305 9.532
16.1457 9.734
16.1609 9.782
16.1761 9.776
16.1912 9.883
16.2064 9.981
16.2216 9.908
16.2368 9.966
16.2519 9.699
16.2671 9.772
16.2823 9.889
16.2975 9.926
16.3126 9.819
16.3278 9.697
16.3430 9.923
16.3582 10.141
16.3733 9.817
16.3885 9.821
16.4037 9.866
16.4189 9.941
16.4340 10.142
16.4492 9.900
16.4644 9.690
16.4796 9.608
16.4947 9.899
16.5099 9.874
16.5251 9.673
16.5403 9.481
16.5554 9.571
16.5706 9.646
16.5858 9.554
16.6010 9.378
16.6161 9.361
16.6313 9.398
16.6465 9.526
16.6617 9.710
16.6768 9.808
16.6920 9.906
16.7072 10.201
16.7224 10.008
16.7375 9.978
16.7527 9.913
16.7679 10.075
16.7831 10.065
16.7982 9.911
16.8134 9.964
16.8286 10.122
16.8438 10.107
16.8589 9.605
16.8741 9.518
16.8893 9.900
16.9045 9.918
16.9196 9.752
16.9348 9.782
16.9500 9.609
16.9652 9.506
16.9803 9.674
16.9955 9.838
17.0107 9.887
17.0259 9.847
17.0410 9.940
17.0562 10.050
17.0714 10.184
17.0866 10.581
17.1017 10.857
17.1169 10.637
17.1321 10.904
17.1473 11.183
17.1624 11.731
17.1776 12.299
17.1928 13.041
17.2080 13.949
17.2231 14.788
17.2383 16.143
17.2535 17.464
17.2687 18.554
17.2838 18.793
17.2990 17.872
17.3142 16.837
17.3294 16.332
17.3445 15.976
17.3597 16.047
17.3749 15.908
17.3901 14.952
17.4052 14.139
17.4204 13.378
17.4356 12.706
17.4508 12.266
17.4659 11.711
17.4811 11.508
17.4963 11.644
17.5115 11.591
17.5266 11.328
17.5418 11.251
17.5570 11.175
17.5722 10.909
17.5873 10.957
17.6025 11.228
17.6177 11.471
17.6329 11.411
17.6480 11.435
17.6632 11.525
17.6784 11.688
17.6936 11.707
17.7087 11.374
17.7239 11.272
17.7391 11.218
17.7543 10.993
17.7694 10.775
17.7846 10.763
17.7998 10.735
17.8150 10.809
17.8301 10.592
17.8453 10.404
17.8605 10.529
17.8757 10.544
17.8908 10.392
17.9060 10.170
17.9212 10.123
17.9364 10.106
17.9515 9.915
17.9667 10.011
17.9819 10.090
17.9971 10.249
18.0122 10.118
18.0274 10.138
18.0426 10.206
18.0578 10.211
18.0729 10.170
18.0881 9.829
18.1033 9.958
18.1185 10.410
18.1336 10.145
18.1488 9.766
18.1640 10.159
18.1792 10.232
18.1943 10.003
18.2095 9.902
18.2247 9.835
18.2399 9.809
18.2550 9.683
18.2702 9.786
18.2854 9.865
18.3006 9.944
18.3157 9.896
18.3309 9.622
18.3461 9.897
18.3613 10.041
18.3764 9.793
18.3916 9.659
18.4068 9.677
18.4220 9.551
18.4371 9.697
18.4523 9.894
18.4675 9.796
18.4827 9.942
18.4978 9.973
18.5130 9.702
18.5282 9.866
18.5434 9.769
18.5585 9.873
18.5737 10.093
18.5889 9.759
18.6041 9.464
18.6192 9.768
18.6344 9.831
18.6496 9.747
18.6648 9.684
18.6799 9.828
18.6951 9.817
18.7103 9.724
18.7255 9.708
18.7406 9.728
18.7558 9.847
18.7710 9.826
18.7862 9.747
18.8013 9.650
18.8165 9.702
18.8317 9.687
18.8469 9.668
18.8620 9.785
18.8772 9.715
18.8924 9.951
18.9076 10.029
18.9227 9.993
18.9379 9.997
18.9531 9.857
18.9683 9.727
18.9834 9.890
18.9986 9.902
19.0138 10.030
19.0290 10.101
19.0441 10.066
19.0593 9.892
19.0745 9.870
19.0897 10.319
19.1048 10.692
19.1200 10.362
19.1352 10.369
19.1504 10.431
19.1655 10.492
19.1807 10.623
19.1959 10.450
19.2111 10.462
19.2262 10.500
19.2414 10.746
19.2566 11.033
19.2718 10.825
19.2869 10.664
19.3021 10.896
19.3173 11.087
19.3325 11.136
19.3476 10.920
19.3628 11.026
19.3780 11.249
19.3932 11.093
19.4083 11.144
19.4235 11.091
19.4387 11.029
19.4539 11.153
19.4690 11.389
19.4842 11.549
19.4994 11.602
19.5146 11.606
19.5297 11.617
19.5449 11.796
19.5601 11.659
19.5753 11.542
19.5904 11.471
19.6056 11.535
19.6208 11.543
19.6360 11.610
19.6511 11.852
19.6663 11.582
19.6815 11.539
19.6967 11.614
19.7118 11.418
19.7270 11.486
19.7422 11.669
19.7574 11.898
19.7725 11.849
19.7877 11.696
19.8029 11.781
19.8180 11.767
19.8332 12.061
19.8484 12.175
19.8636 12.143
19.8787 12.197
19.8939 12.597
19.9091 13.034
19.9243 13.292
19.9394 13.538
19.9546 14.027
19.9698 14.436
19.9850 14.500
20.0001 14.519
20.0153 14.022
20.0305 13.610
20.0457 13.397
20.0608 13.573
20.0760 13.686
20.0912 13.577
20.1064 13.800
20.1215 13.616
20.1367 13.184
20.1519 13.139
20.1671 12.936
20.1822 12.753
20.1974 12.860
20.2126 12.802
20.2278 12.722
20.2429 12.640
20.2581 12.566
20.2733 12.245
20.2885 12.031
20.3036 11.724
20.3188 12.077
20.3340 12.055
20.3492 12.076
20.3643 11.866
20.3795 11.616
20.3947 11.804
20.4099 11.868
20.4250 11.990
20.4402 11.943
20.4554 11.879
20.4706 11.928
20.4857 11.725
20.5009 11.597
20.5161 11.777
20.5313 11.449
20.5464 11.413
20.5616 11.356
20.5768 11.373
20.5920 11.217
20.6071 11.218
20.6223 11.158
20.6375 11.022
20.6527 10.636
20.6678 10.352
20.6830 10.519
20.6982 10.694
20.7134 10.810
20.7285 10.337
20.7437 10.468
20.7589 10.577
20.7741 10.444
20.7892 10.450
20.8044 10.266
20.8196 10.202
20.8348 10.032
20.8499 10.511
20.8651 10.468
20.8803 10.216
20.8955 10.177
20.9106 10.222
20.9258 10.142
20.9410 10.120
20.9562 10.089
20.9713 10.019
20.9865 9.738
21.0017 10.012
21.0169 10.070
21.0320 10.049
21.0472 9.917
21.0624 10.283
21.0776 9.853
21.0927 9.990
21.1079 10.004
21.1231 9.753
21.1383 9.756
21.1534 9.776
21.1686 9.665
21.1838 9.670
21.1990 9.730
21.2141 9.843
21.2293 9.686
21.2445 9.883
21.2597 9.939
21.2748 9.520
21.2900 9.465
21.3052 9.783
21.3204 9.730
21.3355 9.663
21.3507 9.503
21.3659 9.488
21.3811 9.530
21.3962 9.581
21.4114 9.275
21.4266 9.548
21.4418 9.591
21.4569 9.349
21.4721 9.349
21.4873 9.386
21.5025 9.236
21.5176 9.377
21.5328 9.230
21.5480 9.260
21.5632 9.287
21.5783 9.010
21.5935 8.911
21.6087 9.142
21.6239 9.229
21.6390 9.306
21.6542 9.189
21.6694 9.251
21.6846 9.411
21.6997 9.221
21.7149 9.058
21.7301 9.091
21.7453 8.891
21.7604 8.872
21.7756 8.887
21.7908 8.981
21.8060 9.015
21.8211 9.068
21.8363 9.164
21.8515 9.236
21.8667 9.203
21.8818 8.922
21.8970 8.989
21.9122 9.039
21.9274 8.947
21.9425 8.922
21.9577 8.873
21.9729 8.814
21.9881 8.750
22.0032 8.880
22.0184 9.059
22.0336 8.920
22.0488 8.981
22.0639 8.792
22.0791 8.652
22.0943 8.630
22.1095 8.772
22.1246 8.782
22.1398 8.824
22.1550 8.681
22.1702 8.693
22.1853 8.696
22.2005 8.711
22.2157 8.704
22.2309 8.729
22.2460 8.785
22.2612 8.524
22.2764 8.599
22.2916 8.621
22.3067 8.763
22.3219 8.364
22.3371 8.319
22.3523 8.473
22.3674 8.414
22.3826 8.467
22.3978 8.490
22.4130 8.491
22.4281 8.506
22.4433 8.337
22.4585 8.320
22.4737 8.511
22.4888 8.507
22.5040 8.514
22.5192 8.260
22.5344 8.242
22.5495 8.395
22.5647 8.589
22.5799 8.354
22.5951 8.221
22.6102 8.769
22.6254 8.375
22.6406 8.459
22.6558 8.231
22.6709 8.212
22.6861 8.348
22.7013 8.120
22.7165 8.123
22.7316 6.606
