'Id: "" Comment: "" Operator: "Lab Manager" Anode: "Mo" Scantype: "Still (Eiger2R_500K (1D mode))" TimePerStep: "300" X: "11.8" Y: "9.4" Z: "11.284" 
7.2532 18.871
7.2684 18.883
7.2836 19.008
7.2987 18.799
7.3139 19.273
7.3291 18.637
7.3443 18.710
7.3594 19.421
7.3746 19.185
7.3898 19.152
7.4050 19.220
7.4201 19.056
7.4353 19.252
7.4505 18.964
7.4657 19.458
7.4808 19.554
7.4960 19.329
7.5112 19.437
7.5264 19.633
7.5415 19.818
7.5567 19.766
7.5719 20.072
7.5871 19.886
7.6022 19.921
7.6174 19.898
7.6326 19.470
7.6478 19.763
7.6629 20.177
7.6781 19.894
7.6933 19.882
7.7085 20.346
7.7236 20.536
7.7388 20.608
7.7540 20.478
7.7692 20.290
7.7843 20.503
7.7995 20.381
7.8147 20.294
7.8299 20.363
7.8450 20.657
7.8602 20.826
7.8754 20.785
7.8905 20.810
7.9057 20.761
7.9209 20.574
7.9361 20.766
7.9512 21.059
7.9664 20.949
7.9816 20.657
7.9968 20.687
8.0119 21.155
8.0271 21.296
8.0423 21.045
8.0575 20.950
8.0726 21.424
8.0878 21.181
8.1030 21.466
8.1182 21.344
8.1333 21.142
8.1485 21.073
8.1637 21.440
8.1789 21.552
8.1940 21.161
8.2092 21.333
8.2244 21.352
8.2396 21.424
8.2547 21.881
8.2699 21.687
8.2851 21.934
8.3003 21.591
8.3154 21.695
8.3306 21.947
8.3458 21.312
8.3610 21.403
8.3761 21.558
8.3913 21.468
8.4065 21.686
8.4217 21.799
8.4368 21.577
8.4520 21.559
8.4672 21.707
8.4824 22.346
8.4975 22.026
8.5127 22.338
8.5279 21.855
8.5431 21.661
8.5582 21.729
8.5734 22.018
8.5886 21.866
8.6038 21.932
8.6189 22.160
8.6341 21.729
8.6493 21.860
8.6645 22.759
8.6796 22.227
8.6948 22.407
8.7100 22.384
8.7252 21.930
8.7403 22.256
8.7555 22.619
8.7707 22.520
8.7859 22.538
8.8010 22.506
8.8162 22.429
8.8314 22.161
8.8466 22.261
8.8617 22.516
8.8769 22.392
8.8921 22.274
8.9073 22.285
8.9224 22.616
8.9376 22.335
8.9528 22.323
8.9680 22.394
8.9831 22.098
8.9983 22.418
9.0135 22.647
9.0287 22.814
9.0438 22.666
9.0590 22.936
9.0742 22.750
9.0894 22.589
9.1045 22.675
9.1197 23.160
9.1349 23.325
9.1501 22.859
9.1652 22.739
9.1804 22.690
9.1956 22.800
9.2108 22.545
9.2259 22.245
9.2411 22.617
9.2563 22.973
9.2715 23.044
9.2866 22.910
9.3018 22.761
9.3170 22.931
9.3322 22.867
9.3473 22.862
9.3625 23.194
9.3777 22.884
9.3929 22.999
9.4080 23.118
9.4232 23.086
9.4384 23.042
9.4536 23.053
9.4687 23.129
9.4839 23.126
9.4991 23.095
9.5143 23.169
9.5294 23.019
9.5446 22.978
9.5598 23.282
9.5750 23.316
9.5901 23.226
9.6053 23.255
9.6205 23.261
9.6357 23.333
9.6508 23.339
9.6660 23.348
9.6812 23.471
9.6964 23.932
9.7115 24.157
9.7267 24.006
9.7419 24.283
9.7571 24.085
9.7722 23.748
9.7874 23.903
9.8026 24.032
9.8178 23.813
9.8329 23.496
9.8481 23.729
9.8633 23.679
9.8785 23.540
9.8936 23.455
9.9088 23.270
9.9240 22.984
9.9392 22.756
9.9543 23.018
9.9695 23.175
9.9847 23.067
9.9999 23.125
10.0150 23.186
10.0302 23.110
10.0454 23.370
10.0606 23.055
10.0757 23.001
10.0909 23.337
10.1061 23.188
10.1213 23.282
10.1364 23.354
10.1516 23.377
10.1668 23.216
10.1820 23.397
10.1971 23.383
10.2123 23.461
10.2275 23.117
10.2427 22.830
10.2578 22.956
10.2730 23.073
10.2882 22.780
10.3034 22.644
10.3185 23.027
10.3337 23.119
10.3489 22.952
10.3641 22.863
10.3792 22.680
10.3944 22.937
10.4096 22.755
10.4248 22.636
10.4399 22.642
10.4551 22.834
10.4703 22.887
10.4855 22.457
10.5006 22.626
10.5158 22.479
10.5310 22.592
10.5462 22.627
10.5613 22.547
10.5765 22.552
10.5917 22.694
10.6069 22.501
10.6220 22.061
10.6372 22.066
10.6524 22.213
10.6676 22.295
10.6827 22.496
10.6979 22.239
10.7131 21.965
10.7283 22.188
10.7434 22.232
10.7586 22.123
10.7738 22.255
10.7890 22.317
10.8041 21.980
10.8193 22.046
10.8345 22.019
10.8497 21.985
10.8648 22.272
10.8800 21.996
10.8952 21.990
10.9104 22.243
10.9255 22.264
10.9407 22.241
10.9559 22.271
10.9711 21.788
10.9862 21.735
11.0014 21.865
11.0166 21.913
11.0318 22.136
11.0469 22.294
11.0621 22.004
11.0773 22.016
11.0925 21.876
11.1076 21.716
11.1228 21.697
11.1380 21.646
11.1532 21.407
11.1683 21.589
11.1835 21.692
11.1987 21.807
11.2139 21.643
11.2290 21.378
11.2442 21.364
11.2594 21.602
11.2746 21.616
11.2897 21.584
11.3049 21.240
11.3201 21.467
11.3353 21.226
11.3504 21.372
11.3656 21.597
11.3808 21.613
11.3960 21.381
11.4111 21.324
11.4263 21.113
11.4415 21.400
11.4567 21.210
11.4718 21.139
11.4870 21.065
11.5022 20.964
11.5174 21.090
11.5325 20.895
11.5477 21.051
11.5629 20.989
11.5781 20.780
11.5932 20.770
11.6084 20.510
11.6236 20.938
11.6388 20.915
11.6539 20.834
11.6691 20.784
11.6843 20.745
11.6995 20.639
11.7146 20.663
11.7298 20.408
11.7450 20.065
11.7602 20.134
11.7753 20.141
11.7905 20.172
11.8057 20.325
11.8209 19.741
11.8360 19.791
11.8512 19.918
11.8664 20.126
11.8816 20.078
11.8967 19.960
11.9119 19.696
11.9271 19.449
11.9423 19.436
11.9574 19.475
11.9726 19.510
11.9878 19.302
12.0030 19.344
12.0181 18.961
12.0333 18.796
12.0485 18.690
12.0637 18.989
12.0788 19.365
12.0940 19.008
12.1092 18.921
12.1244 18.829
12.1395 18.739
12.1547 18.575
12.1699 18.319
12.1851 18.296
12.2002 18.485
12.2154 18.100
12.2306 18.104
12.2458 18.409
12.2609 17.858
12.2761 17.735
12.2913 17.648
12.3065 17.871
12.3216 17.910
12.3368 17.575
12.3520 17.400
12.3672 17.370
12.3823 17.112
12.3975 17.085
12.4127 17.295
12.4279 16.925
12.4430 16.977
12.4582 17.058
12.4734 16.591
12.4886 16.692
12.5037 16.521
12.5189 16.274
12.5341 16.294
12.5493 16.360
12.5644 16.280
12.5796 16.271
12.5948 16.004
12.6100 15.907
12.6251 15.880
12.6403 15.715
12.6555 15.728
12.6707 15.915
12.6858 15.649
12.7010 15.486
12.7162 15.421
12.7314 15.270
12.7465 15.360
12.7617 15.361
12.7769 15.438
12.7921 15.321
12.8072 15.162
12.8224 15.120
12.8376 14.778
12.8528 14.759
12.8679 15.016
12.8831 14.764
12.8983 14.419
12.9135 14.460
12.9286 14.668
12.9438 14.617
12.9590 14.683
12.9742 14.962
12.9893 14.641
13.0045 14.086
13.0197 13.991
13.0349 14.102
13.0500 13.986
13.0652 13.949
13.0804 14.057
13.0956 13.984
13.1107 13.757
13.1259 13.433
13.1411 13.505
13.1563 13.772
13.1714 13.920
13.1866 13.694
13.2018 13.415
13.2170 13.548
13.2321 13.771
13.2473 13.639
13.2625 13.255
13.2777 13.116
13.2928 13.045
13.3080 13.293
13.3232 13.103
13.3384 12.961
13.3535 13.178
13.3687 12.899
13.3839 13.023
13.3991 13.055
13.4142 12.956
13.4294 13.036
13.4446 12.808
13.4598 12.772
13.4749 12.748
13.4901 12.422
13.5053 12.307
13.5205 12.428
13.5356 12.426
13.5508 12.437
13.5660 12.472
13.5812 12.286
13.5963 12.269
13.6115 12.292
13.6267 12.005
13.6419 12.031
13.6570 12.095
13.6722 12.115
13.6874 11.984
13.7026 12.232
13.7177 12.362
13.7329 11.871
13.7481 11.896
13.7633 12.186
13.7784 11.938
13.7936 12.184
13.8088 12.302
13.8239 12.156
13.8391 12.364
13.8543 12.396
13.8695 12.072
13.8846 12.075
13.8998 12.108
13.9150 12.115
13.9302 12.163
13.9453 11.993
13.9605 11.861
13.9757 11.881
13.9909 11.630
14.0060 11.605
14.0212 11.580
14.0364 11.713
14.0516 11.701
14.0667 11.692
14.0819 11.689
14.0971 11.756
14.1123 11.469
14.1274 11.424
14.1426 11.641
14.1578 11.644
14.1730 11.463
14.1881 11.660
14.2033 11.533
14.2185 11.527
14.2337 11.564
14.2488 11.813
14.2640 11.552
14.2792 11.810
14.2944 11.903
14.3095 12.020
14.3247 12.215
14.3399 12.100
14.3551 12.627
14.3702 12.736
14.3854 12.941
14.4006 13.299
14.4158 13.636
14.4309 13.367
14.4461 13.210
14.4613 12.861
14.4765 12.299
14.4916 12.545
14.5068 12.127
14.5220 11.583
14.5372 11.606
14.5523 11.182
14.5675 11.356
14.5827 11.365
14.5979 11.248
14.6130 10.724
14.6282 10.811
14.6434 10.586
14.6586 10.625
14.6737 10.704
14.6889 10.615
14.7041 10.801
14.7193 10.599
14.7344 10.560
14.7496 10.869
14.7648 10.687
14.7800 10.599
14.7951 10.295
14.8103 10.576
14.8255 10.454
14.8407 10.600
14.8558 10.641
14.8710 10.194
14.8862 10.635
14.9014 10.630
14.9165 10.515
14.9317 10.713
14.9469 10.526
14.9621 10.483
14.9772 10.209
14.9924 10.275
15.0076 10.486
15.0228 10.538
15.0379 10.557
15.0531 10.222
15.0683 10.227
15.0835 10.194
15.0986 10.319
15.1138 10.333
15.1290 10.260
15.1442 10.090
15.1593 10.109
15.1745 10.196
15.1897 10.105
15.2049 10.096
15.2200 10.245
15.2352 10.024
15.2504 10.153
15.2656 10.134
15.2807 10.338
15.2959 10.162
15.3111 10.402
15.3263 10.171
15.3414 10.330
15.3566 10.069
15.3718 10.267
15.3870 10.104
15.4021 10.421
15.4173 10.332
15.4325 9.915
15.4477 10.295
15.4628 10.199
15.4780 9.971
15.4932 9.896
15.5084 10.017
15.5235 9.943
15.5387 9.900
15.5539 9.871
15.5691 10.136
15.5842 9.718
15.5994 9.678
15.6146 9.831
15.6298 9.698
15.6449 10.060
15.6601 9.696
15.6753 9.712
15.6905 9.980
15.7056 9.704
15.7208 9.713
15.7360 9.747
15.7512 9.725
15.7663 9.798
15.7815 9.554
15.7967 9.726
15.8119 9.607
15.8270 9.718
15.8422 9.604
15.8574 9.439
15.8726 9.460
15.8877 9.413
15.9029 9.427
15.9181 9.697
15.9333 9.591
15.9484 9.253
15.9636 9.553
15.9788 9.589
15.9940 9.562
16.0091 9.511
16.0243 9.876
16.0395 9.700
16.0547 9.657
16.0698 9.532
16.0850 9.577
16.1002 9.638
16.1154 9.523
16.1305 9.569
16.1457 9.645
16.1609 9.403
16.1761 9.544
16.1912 9.489
16.2064 9.647
16.2216 9.866
16.2368 9.804
16.2519 9.654
16.2671 9.902
16.2823 9.771
16.2975 9.780
16.3126 9.951
16.3278 9.813
16.3430 9.652
16.3582 9.755
16.3733 9.986
16.3885 9.819
16.4037 9.849
16.4189 9.917
16.4340 9.686
16.4492 9.638
16.4644 9.686
16.4796 9.618
16.4947 9.572
16.5099 9.658
16.5251 9.676
16.5403 9.801
16.5554 9.629
16.5706 9.556
16.5858 9.615
16.6010 9.377
16.6161 9.632
16.6313 9.841
16.6465 9.716
16.6617 9.541
16.6768 9.756
16.6920 9.948
16.7072 9.900
16.7224 9.584
16.7375 9.679
16.7527 10.013
16.7679 10.116
16.7831 9.988
16.7982 10.139
16.8134 10.037
16.8286 9.788
16.8438 9.857
16.8589 9.735
16.8741 9.791
16.8893 9.841
16.9045 9.649
16.9196 9.788
16.9348 10.012
16.9500 9.915
16.9652 9.829
16.9803 9.833
16.9955 9.730
17.0107 9.793
17.0259 9.821
17.0410 9.754
17.0562 9.885
17.0714 10.208
17.0866 10.356
17.1017 10.308
17.1169 10.299
17.1321 10.569
17.1473 11.199
17.1624 11.761
17.1776 12.195
17.1928 13.060
17.2080 13.975
17.2231 14.680
17.2383 16.038
17.2535 17.456
17.2687 18.124
17.2838 18.384
17.2990 17.781
17.3142 16.615
17.3294 16.112
17.3445 16.132
17.3597 15.968
17.3749 15.675
17.3901 15.287
17.4052 14.335
17.4204 13.221
17.4356 12.576
17.4508 12.058
17.4659 11.658
17.4811 11.590
17.4963 11.477
17.5115 11.118
17.5266 10.801
17.5418 10.951
17.5570 11.065
17.5722 10.887
17.5873 10.879
17.6025 10.988
17.6177 11.195
17.6329 11.286
17.6480 11.209
17.6632 11.340
17.6784 11.672
17.6936 11.764
17.7087 11.733
17.7239 11.508
17.7391 11.311
17.7543 11.395
17.7694 11.459
17.7846 11.280
17.7998 11.127
17.8150 11.060
17.8301 10.733
17.8453 10.577
17.8605 10.479
17.8757 10.342
17.8908 10.191
17.9060 10.112
17.9212 10.189
17.9364 10.211
17.9515 10.129
17.9667 10.212
17.9819 10.249
17.9971 10.031
18.0122 10.132
18.0274 10.209
18.0426 9.984
18.0578 10.065
18.0729 10.126
18.0881 10.050
18.1033 10.154
18.1185 10.112
18.1336 10.227
18.1488 10.029
18.1640 9.805
18.1792 9.918
18.1943 10.044
18.2095 9.891
18.2247 9.910
18.2399 9.886
18.2550 9.672
18.2702 9.648
18.2854 9.977
18.3006 10.003
18.3157 9.849
18.3309 10.007
18.3461 10.135
18.3613 9.874
18.3764 9.706
18.3916 9.729
18.4068 10.058
18.4220 10.001
18.4371 9.972
18.4523 10.030
18.4675 9.947
18.4827 9.696
18.4978 9.763
18.5130 9.921
18.5282 9.718
18.5434 9.723
18.5585 9.654
18.5737 9.843
18.5889 9.982
18.6041 9.745
18.6192 9.640
18.6344 9.852
18.6496 9.741
18.6648 9.461
18.6799 9.635
18.6951 9.898
18.7103 9.750
18.7255 9.803
18.7406 9.791
18.7558 9.695
18.7710 9.779
18.7862 9.696
18.8013 9.771
18.8165 9.657
18.8317 9.845
18.8469 10.099
18.8620 10.008
18.8772 9.871
18.8924 9.760
18.9076 9.772
18.9227 9.865
18.9379 9.988
18.9531 10.256
18.9683 10.271
18.9834 10.066
18.9986 10.266
19.0138 10.328
19.0290 10.182
19.0441 10.211
19.0593 10.309
19.0745 10.268
19.0897 10.112
19.1048 10.354
19.1200 10.367
19.1352 10.386
19.1504 10.573
19.1655 10.528
19.1807 10.615
19.1959 10.723
19.2111 10.641
19.2262 10.634
19.2414 10.784
19.2566 11.000
19.2718 10.919
19.2869 10.782
19.3021 10.851
19.3173 10.935
19.3325 11.068
19.3476 11.081
19.3628 11.041
19.3780 11.011
19.3932 11.246
19.4083 11.425
19.4235 11.344
19.4387 11.343
19.4539 11.303
19.4690 11.326
19.4842 11.491
19.4994 11.361
19.5146 11.347
19.5297 11.397
19.5449 11.443
19.5601 11.538
19.5753 11.337
19.5904 11.303
19.6056 11.420
19.6208 11.520
19.6360 11.823
19.6511 11.751
19.6663 11.633
19.6815 11.815
19.6967 11.729
19.7118 11.833
19.7270 11.935
19.7422 11.863
19.7574 11.847
19.7725 11.562
19.7877 11.842
19.8029 12.121
19.8180 11.943
19.8332 12.108
19.8484 12.364
19.8636 12.539
19.8787 12.547
19.8939 12.584
19.9091 13.003
19.9243 13.485
19.9394 13.706
19.9546 14.042
19.9698 14.307
19.9850 14.323
20.0001 14.369
20.0153 14.365
20.0305 14.065
20.0457 13.680
20.0608 13.673
20.0760 13.810
20.0912 13.687
20.1064 13.638
20.1215 13.432
20.1367 13.120
20.1519 12.977
20.1671 13.067
20.1822 12.960
20.1974 13.015
20.2126 12.920
20.2278 12.639
20.2429 12.513
20.2581 12.261
20.2733 12.271
20.2885 12.103
20.3036 11.892
20.3188 12.089
20.3340 12.147
20.3492 12.025
20.3643 12.037
20.3795 12.094
20.3947 11.949
20.4099 11.836
20.4250 11.860
20.4402 12.206
20.4554 12.367
20.4706 12.090
20.4857 11.696
20.5009 11.826
20.5161 11.798
20.5313 11.739
20.5464 11.624
20.5616 11.500
20.5768 11.387
20.5920 11.520
20.6071 11.445
20.6223 11.472
20.6375 11.147
20.6527 11.102
20.6678 11.104
20.6830 11.037
20.6982 10.824
20.7134 10.713
20.7285 10.791
20.7437 10.698
20.7589 10.480
20.7741 10.774
20.7892 10.570
20.8044 10.292
20.8196 10.558
20.8348 10.317
20.8499 10.126
20.8651 10.230
20.8803 10.215
20.8955 10.403
20.9106 10.097
20.9258 10.076
20.9410 10.412
20.9562 10.234
20.9713 9.974
20.9865 10.146
21.0017 10.316
21.0169 10.332
21.0320 10.161
21.0472 9.851
21.0624 9.766
21.0776 10.018
21.0927 10.034
21.1079 9.583
21.1231 9.878
21.1383 9.598
21.1534 10.223
21.1686 9.942
21.1838 9.835
21.1990 9.724
21.2141 9.768
21.2293 9.524
21.2445 9.945
21.2597 9.450
21.2748 9.576
21.2900 9.724
21.3052 9.749
21.3204 9.843
21.3355 9.735
21.3507 9.764
21.3659 9.717
21.3811 9.558
21.3962 9.688
21.4114 9.718
21.4266 9.750
21.4418 9.746
21.4569 9.585
21.4721 9.615
21.4873 9.638
21.5025 9.395
21.5176 9.272
21.5328 9.229
21.5480 9.115
21.5632 9.317
21.5783 9.497
21.5935 9.435
21.6087 9.080
21.6239 9.318
21.6390 9.223
21.6542 9.156
21.6694 9.259
21.6846 9.130
21.6997 9.179
21.7149 9.255
21.7301 9.295
21.7453 9.054
21.7604 9.028
21.7756 9.087
21.7908 9.011
21.8060 8.968
21.8211 9.094
21.8363 9.231
21.8515 9.419
21.8667 9.338
21.8818 9.357
21.8970 9.104
21.9122 8.990
21.9274 9.084
21.9425 8.900
21.9577 8.829
21.9729 9.031
21.9881 9.010
22.0032 8.894
22.0184 8.905
22.0336 8.930
22.0488 8.901
22.0639 8.822
22.0791 8.719
22.0943 8.693
22.1095 8.534
22.1246 8.496
22.1398 8.504
22.1550 8.336
22.1702 8.447
22.1853 8.512
22.2005 8.491
22.2157 8.627
22.2309 8.458
22.2460 8.366
22.2612 8.576
22.2764 8.537
22.2916 8.609
22.3067 8.522
22.3219 8.691
22.3371 8.582
22.3523 8.590
22.3674 8.637
22.3826 8.586
22.3978 8.385
22.4130 8.385
22.4281 8.240
22.4433 8.468
22.4585 8.355
22.4737 8.374
22.4888 8.417
22.5040 8.423
22.5192 8.388
22.5344 8.273
22.5495 8.242
22.5647 8.209
22.5799 8.526
22.5951 8.583
22.6102 8.443
22.6254 8.474
22.6406 8.032
22.6558 8.247
22.6709 8.333
22.6861 8.443
22.7013 8.289
22.7165 7.878
22.7316 6.343
