'Id: "" Comment: "" Operator: "Lab Manager" Anode: "Mo" Scantype: "Still (Eiger2R_500K (1D mode))" TimePerStep: "300" X: "11.8" Y: "9.4" Z: "11.284" 
7.2532 18.562
7.2684 18.795
7.2836 18.972
7.2987 18.884
7.3139 19.429
7.3291 19.142
7.3443 19.322
7.3594 19.391
7.3746 18.739
7.3898 19.582
7.4050 19.410
7.4201 19.437
7.4353 19.335
7.4505 19.333
7.4657 19.419
7.4808 19.267
7.4960 19.439
7.5112 19.623
7.5264 19.628
7.5415 19.916
7.5567 19.796
7.5719 19.830
7.5871 20.123
7.6022 19.669
7.6174 19.729
7.6326 20.015
7.6478 19.921
7.6629 20.045
7.6781 20.134
7.6933 20.071
7.7085 20.176
7.7236 20.383
7.7388 20.319
7.7540 20.060
7.7692 20.118
7.7843 20.499
7.7995 20.397
7.8147 20.176
7.8299 20.698
7.8450 20.785
7.8602 20.493
7.8754 20.547
7.8905 20.887
7.9057 20.767
7.9209 20.853
7.9361 20.886
7.9512 20.778
7.9664 20.860
7.9816 20.771
7.9968 20.471
8.0119 20.767
8.0271 21.067
8.0423 20.910
8.0575 21.151
8.0726 21.302
8.0878 21.374
8.1030 21.205
8.1182 21.157
8.1333 21.250
8.1485 21.197
8.1637 21.384
8.1789 21.260
8.1940 21.362
8.2092 21.385
8.2244 21.165
8.2396 21.458
8.2547 21.370
8.2699 21.240
8.2851 21.393
8.3003 20.972
8.3154 21.400
8.3306 21.722
8.3458 21.407
8.3610 21.843
8.3761 21.881
8.3913 21.927
8.4065 21.758
8.4217 21.702
8.4368 21.331
8.4520 22.166
8.4672 21.981
8.4824 21.439
8.4975 21.947
8.5127 22.349
8.5279 21.781
8.5431 21.814
8.5582 21.906
8.5734 21.759
8.5886 22.852
8.6038 21.725
8.6189 22.250
8.6341 22.289
8.6493 21.922
8.6645 22.068
8.6796 21.707
8.6948 22.229
8.7100 22.363
8.7252 22.162
8.7403 21.948
8.7555 22.482
8.7707 22.635
8.7859 22.885
8.8010 22.259
8.8162 22.371
8.8314 22.813
8.8466 22.289
8.8617 22.158
8.8769 22.567
8.8921 22.094
8.9073 22.396
8.9224 22.637
8.9376 22.617
8.9528 22.382
8.9680 22.680
8.9831 22.809
8.9983 22.424
9.0135 22.389
9.0287 22.383
9.0438 22.337
9.0590 22.932
9.0742 22.444
9.0894 22.592
9.1045 22.865
9.1197 22.432
9.1349 22.807
9.1501 22.705
9.1652 22.953
9.1804 23.224
9.1956 23.114
9.2108 22.893
9.2259 22.993
9.2411 22.846
9.2563 22.990
9.2715 23.381
9.2866 23.261
9.3018 23.087
9.3170 22.889
9.3322 22.590
9.3473 23.125
9.3625 23.317
9.3777 22.646
9.3929 22.486
9.4080 22.831
9.4232 22.957
9.4384 22.960
9.4536 23.177
9.4687 22.951
9.4839 23.072
9.4991 23.076
9.5143 22.919
9.5294 23.105
9.5446 23.108
9.5598 23.105
9.5750 23.211
9.5901 23.077
9.6053 23.368
9.6205 23.351
9.6357 23.277
9.6508 23.651
9.6660 23.858
9.6812 23.595
9.6964 23.728
9.7115 24.002
9.7267 24.083
9.7419 24.166
9.7571 23.743
9.7722 23.385
9.7874 23.617
9.8026 23.867
9.8178 23.442
9.8329 22.911
9.8481 23.167
9.8633 23.111
9.8785 22.875
9.8936 22.803
9.9088 23.014
9.9240 23.388
9.9392 23.069
9.9543 22.991
9.9695 23.302
9.9847 23.219
9.9999 23.150
10.0150 23.064
10.0302 23.207
10.0454 23.195
10.0606 23.002
10.0757 23.169
10.0909 23.385
10.1061 23.257
10.1213 23.270
10.1364 23.474
10.1516 23.641
10.1668 23.442
10.1820 23.295
10.1971 23.154
10.2123 23.280
10.2275 23.366
10.2427 23.112
10.2578 22.837
10.2730 22.683
10.2882 22.898
10.3034 23.174
10.3185 22.970
10.3337 22.803
10.3489 22.945
10.3641 22.553
10.3792 22.350
10.3944 22.732
10.4096 22.946
10.4248 22.652
10.4399 22.309
10.4551 22.683
10.4703 22.567
10.4855 22.504
10.5006 22.324
10.5158 22.437
10.5310 22.572
10.5462 22.708
10.5613 22.933
10.5765 22.378
10.5917 22.536
10.6069 22.525
10.6220 22.440
10.6372 22.678
10.6524 22.694
10.6676 22.556
10.6827 22.684
10.6979 22.655
10.7131 22.525
10.7283 22.254
10.7434 22.498
10.7586 22.192
10.7738 22.142
10.7890 22.299
10.8041 22.247
10.8193 21.731
10.8345 21.934
10.8497 22.055
10.8648 21.869
10.8800 21.981
10.8952 22.458
10.9104 22.177
10.9255 22.076
10.9407 22.336
10.9559 22.152
10.9711 22.193
10.9862 22.131
11.0014 21.845
11.0166 21.991
11.0318 21.831
11.0469 21.921
11.0621 21.788
11.0773 22.067
11.0925 22.111
11.1076 21.970
11.1228 21.740
11.1380 21.433
11.1532 21.715
11.1683 21.491
11.1835 21.357
11.1987 21.480
11.2139 21.427
11.2290 21.479
11.2442 21.443
11.2594 21.340
11.2746 21.598
11.2897 21.744
11.3049 21.316
11.3201 21.235
11.3353 21.512
11.3504 21.344
11.3656 21.260
11.3808 21.402
11.3960 21.152
11.4111 21.550
11.4263 21.326
11.4415 21.591
11.4567 21.408
11.4718 21.341
11.4870 21.057
11.5022 21.196
11.5174 21.384
11.5325 21.144
11.5477 21.022
11.5629 20.849
11.5781 20.830
11.5932 20.852
11.6084 20.978
11.6236 20.980
11.6388 20.867
11.6539 20.635
11.6691 20.594
11.6843 20.772
11.6995 20.352
11.7146 20.424
11.7298 20.489
11.7450 20.588
11.7602 20.501
11.7753 19.720
11.7905 19.834
11.8057 20.091
11.8209 19.985
11.8360 19.894
11.8512 19.635
11.8664 19.804
11.8816 19.824
11.8967 19.643
11.9119 19.500
11.9271 19.969
11.9423 19.700
11.9574 19.643
11.9726 19.241
11.9878 19.133
12.0030 19.205
12.0181 18.979
12.0333 18.890
12.0485 18.763
12.0637 19.099
12.0788 18.884
12.0940 18.675
12.1092 18.883
12.1244 18.919
12.1395 18.693
12.1547 18.536
12.1699 18.629
12.1851 18.798
12.2002 18.298
12.2154 18.225
12.2306 18.049
12.2458 17.718
12.2609 17.596
12.2761 17.831
12.2913 17.650
12.3065 17.639
12.3216 17.477
12.3368 17.154
12.3520 17.221
12.3672 17.114
12.3823 17.110
12.3975 17.111
12.4127 16.955
12.4279 16.815
12.4430 16.872
12.4582 16.822
12.4734 17.016
12.4886 16.915
12.5037 16.692
12.5189 16.522
12.5341 16.635
12.5493 16.194
12.5644 16.184
12.5796 16.340
12.5948 16.107
12.6100 16.135
12.6251 16.313
12.6403 16.073
12.6555 15.709
12.6707 15.724
12.6858 15.904
12.7010 15.624
12.7162 15.591
12.7314 15.466
12.7465 15.453
12.7617 15.723
12.7769 15.897
12.7921 15.811
12.8072 15.481
12.8224 15.153
12.8376 15.219
12.8528 15.109
12.8679 14.808
12.8831 14.815
12.8983 14.813
12.9135 14.502
12.9286 14.680
12.9438 14.696
12.9590 14.416
12.9742 14.550
12.9893 14.441
13.0045 14.111
13.0197 14.027
13.0349 14.256
13.0500 14.116
13.0652 13.872
13.0804 13.982
13.0956 13.926
13.1107 13.768
13.1259 13.692
13.1411 13.654
13.1563 13.624
13.1714 13.524
13.1866 13.484
13.2018 13.558
13.2170 13.429
13.2321 13.303
13.2473 13.166
13.2625 13.238
13.2777 13.476
13.2928 13.436
13.3080 13.244
13.3232 13.125
13.3384 13.236
13.3535 13.221
13.3687 13.129
13.3839 12.909
13.3991 12.876
13.4142 12.959
13.4294 12.997
13.4446 12.929
13.4598 12.758
13.4749 12.662
13.4901 12.574
13.5053 12.544
13.5205 12.560
13.5356 12.341
13.5508 12.438
13.5660 12.567
13.5812 12.497
13.5963 12.441
13.6115 12.065
13.6267 11.822
13.6419 11.924
13.6570 12.238
13.6722 12.214
13.6874 12.043
13.7026 12.136
13.7177 12.075
13.7329 11.841
13.7481 11.830
13.7633 12.004
13.7784 12.023
13.7936 11.951
13.8088 11.966
13.8239 12.230
13.8391 12.474
13.8543 12.214
13.8695 12.266
13.8846 12.105
13.8998 11.909
13.9150 12.037
13.9302 11.909
13.9453 12.024
13.9605 12.163
13.9757 11.926
13.9909 11.902
14.0060 11.934
14.0212 11.635
14.0364 11.610
14.0516 11.449
14.0667 11.484
14.0819 11.494
14.0971 11.617
14.1123 11.741
14.1274 11.715
14.1426 11.568
14.1578 11.441
14.1730 11.490
14.1881 11.708
14.2033 11.625
14.2185 12.006
14.2337 12.031
14.2488 12.146
14.2640 12.165
14.2792 11.751
14.2944 11.894
14.3095 12.130
14.3247 12.191
14.3399 12.547
14.3551 12.553
14.3702 12.722
14.3854 13.159
14.4006 13.361
14.4158 13.198
14.4309 12.954
14.4461 12.795
14.4613 12.609
14.4765 12.269
14.4916 12.305
14.5068 11.879
14.5220 11.727
14.5372 11.569
14.5523 11.458
14.5675 11.408
14.5827 11.215
14.5979 10.961
14.6130 10.944
14.6282 10.887
14.6434 10.942
14.6586 10.912
14.6737 10.539
14.6889 10.720
14.7041 10.051
14.7193 11.008
14.7344 10.338
14.7496 10.694
14.7648 10.937
14.7800 10.435
14.7951 10.610
14.8103 10.422
14.8255 10.233
14.8407 10.714
14.8558 10.797
14.8710 10.694
14.8862 10.390
14.9014 10.302
14.9165 10.574
14.9317 10.807
14.9469 10.690
14.9621 10.557
14.9772 10.340
14.9924 10.176
15.0076 10.274
15.0228 10.372
15.0379 10.433
15.0531 10.550
15.0683 10.359
15.0835 10.037
15.0986 10.454
15.1138 10.253
15.1290 10.209
15.1442 10.148
15.1593 10.412
15.1745 10.000
15.1897 10.082
15.2049 10.111
15.2200 10.092
15.2352 10.146
15.2504 9.955
15.2656 10.007
15.2807 10.358
15.2959 10.116
15.3111 10.362
15.3263 10.430
15.3414 10.307
15.3566 10.032
15.3718 10.276
15.3870 10.059
15.4021 10.116
15.4173 10.222
15.4325 10.281
15.4477 10.116
15.4628 10.097
15.4780 10.384
15.4932 10.157
15.5084 9.931
15.5235 10.140
15.5387 10.122
15.5539 10.090
15.5691 9.783
15.5842 10.017
15.5994 9.967
15.6146 9.668
15.6298 9.905
15.6449 9.815
15.6601 9.673
15.6753 9.597
15.6905 9.700
15.7056 9.923
15.7208 9.731
15.7360 9.702
15.7512 9.472
15.7663 9.388
15.7815 9.488
15.7967 9.661
15.8119 9.858
15.8270 9.950
15.8422 9.574
15.8574 9.648
15.8726 9.443
15.8877 9.454
15.9029 9.743
15.9181 9.569
15.9333 9.778
15.9484 9.457
15.9636 9.715
15.9788 9.595
15.9940 9.523
16.0091 9.383
16.0243 9.601
16.0395 9.497
16.0547 9.781
16.0698 9.648
16.0850 9.571
16.1002 9.865
16.1154 9.764
16.1305 9.780
16.1457 9.668
16.1609 9.470
16.1761 9.262
16.1912 9.387
16.2064 9.631
16.2216 9.998
16.2368 9.856
16.2519 9.733
16.2671 9.695
16.2823 9.806
16.2975 9.894
16.3126 10.142
16.3278 9.936
16.3430 9.924
16.3582 10.017
16.3733 9.818
16.3885 9.830
16.4037 9.868
16.4189 10.037
16.4340 9.768
16.4492 9.580
16.4644 9.795
16.4796 9.826
16.4947 9.648
16.5099 9.844
16.5251 9.627
16.5403 9.525
16.5554 9.539
16.5706 9.504
16.5858 9.572
16.6010 9.505
16.6161 9.693
16.6313 9.535
16.6465 9.601
16.6617 9.631
16.6768 9.624
16.6920 9.856
16.7072 9.961
16.7224 10.083
16.7375 9.970
16.7527 9.774
16.7679 10.133
16.7831 10.149
16.7982 9.849
16.8134 9.874
16.8286 9.902
16.8438 9.632
16.8589 9.805
16.8741 9.889
16.8893 9.867
16.9045 9.815
16.9196 9.702
16.9348 9.889
16.9500 9.896
16.9652 10.002
16.9803 10.064
16.9955 9.736
17.0107 9.917
17.0259 10.043
17.0410 9.904
17.0562 9.841
17.0714 10.226
17.0866 10.540
17.1017 10.478
17.1169 10.690
17.1321 10.963
17.1473 11.305
17.1624 11.731
17.1776 12.394
17.1928 13.238
17.2080 13.995
17.2231 15.154
17.2383 16.428
17.2535 17.471
17.2687 18.241
17.2838 18.849
17.2990 18.279
17.3142 16.911
17.3294 16.355
17.3445 16.296
17.3597 16.133
17.3749 15.826
17.3901 15.338
17.4052 14.172
17.4204 13.223
17.4356 12.637
17.4508 12.159
17.4659 12.024
17.4811 11.769
17.4963 11.701
17.5115 11.480
17.5266 11.170
17.5418 11.115
17.5570 11.107
17.5722 10.996
17.5873 10.876
17.6025 11.011
17.6177 11.136
17.6329 11.260
17.6480 11.364
17.6632 11.476
17.6784 11.696
17.6936 11.645
17.7087 11.429
17.7239 11.348
17.7391 11.185
17.7543 10.944
17.7694 10.713
17.7846 10.810
17.7998 10.988
17.8150 10.859
17.8301 10.513
17.8453 10.305
17.8605 10.240
17.8757 10.156
17.8908 10.320
17.9060 10.428
17.9212 10.347
17.9364 10.306
17.9515 10.148
17.9667 10.006
17.9819 10.057
17.9971 10.218
18.0122 10.150
18.0274 9.973
18.0426 9.833
18.0578 9.979
18.0729 10.020
18.0881 9.953
18.1033 9.731
18.1185 9.784
18.1336 10.019
18.1488 9.996
18.1640 9.924
18.1792 9.681
18.1943 9.678
18.2095 9.756
18.2247 9.795
18.2399 9.804
18.2550 9.887
18.2702 10.150
18.2854 10.019
18.3006 9.945
18.3157 9.992
18.3309 9.724
18.3461 9.751
18.3613 9.577
18.3764 9.598
18.3916 9.948
18.4068 9.932
18.4220 9.820
18.4371 9.919
18.4523 9.992
18.4675 9.938
18.4827 9.886
18.4978 9.676
18.5130 9.675
18.5282 9.839
18.5434 9.777
18.5585 9.793
18.5737 9.705
18.5889 9.735
18.6041 9.845
18.6192 9.797
18.6344 9.638
18.6496 9.535
18.6648 9.743
18.6799 9.797
18.6951 9.779
18.7103 9.616
18.7255 9.729
18.7406 9.573
18.7558 9.766
18.7710 10.049
18.7862 9.802
18.8013 9.648
18.8165 9.431
18.8317 9.857
18.8469 10.091
18.8620 9.832
18.8772 9.762
18.8924 9.895
18.9076 9.880
18.9227 9.847
18.9379 9.957
18.9531 10.095
18.9683 10.032
18.9834 9.954
18.9986 10.168
19.0138 10.135
19.0290 10.335
19.0441 10.296
19.0593 10.070
19.0745 10.142
19.0897 10.265
19.1048 10.242
19.1200 10.278
19.1352 10.285
19.1504 10.392
19.1655 10.634
19.1807 10.526
19.1959 10.469
19.2111 10.649
19.2262 10.692
19.2414 10.831
19.2566 10.933
19.2718 10.923
19.2869 10.822
19.3021 10.782
19.3173 10.932
19.3325 11.010
19.3476 11.070
19.3628 10.917
19.3780 10.988
19.3932 11.186
19.4083 11.277
19.4235 11.187
19.4387 11.279
19.4539 11.462
19.4690 11.389
19.4842 11.236
19.4994 11.270
19.5146 11.526
19.5297 11.641
19.5449 11.410
19.5601 11.394
19.5753 11.462
19.5904 11.571
19.6056 11.653
19.6208 11.634
19.6360 11.485
19.6511 11.396
19.6663 11.490
19.6815 11.689
19.6967 11.734
19.7118 11.862
19.7270 11.745
19.7422 11.528
19.7574 11.842
19.7725 11.933
19.7877 11.894
19.8029 11.909
19.8180 11.985
19.8332 12.133
19.8484 12.113
19.8636 12.159
19.8787 12.303
19.8939 12.802
19.9091 13.000
19.9243 13.259
19.9394 13.772
19.9546 13.857
19.9698 13.967
19.9850 14.400
20.0001 14.468
20.0153 14.256
20.0305 13.996
20.0457 13.970
20.0608 13.715
20.0760 13.594
20.0912 13.631
20.1064 13.631
20.1215 13.549
20.1367 13.273
20.1519 12.938
20.1671 12.950
20.1822 13.068
20.1974 12.738
20.2126 12.776
20.2278 12.791
20.2429 12.740
20.2581 12.579
20.2733 12.157
20.2885 12.071
20.3036 12.033
20.3188 12.045
20.3340 12.183
20.3492 11.803
20.3643 11.710
20.3795 11.801
20.3947 11.791
20.4099 11.954
20.4250 11.957
20.4402 11.789
20.4554 11.843
20.4706 11.813
20.4857 11.881
20.5009 11.767
20.5161 11.643
20.5313 11.337
20.5464 11.286
20.5616 11.472
20.5768 11.348
20.5920 11.252
20.6071 10.922
20.6223 10.794
20.6375 10.951
20.6527 10.386
20.6678 10.531
20.6830 10.511
20.6982 10.394
20.7134 10.343
20.7285 10.388
20.7437 10.252
20.7589 9.973
20.7741 10.310
20.7892 10.241
20.8044 10.476
20.8196 10.380
20.8348 10.437
20.8499 10.363
20.8651 10.384
20.8803 10.372
20.8955 10.403
20.9106 10.157
20.9258 9.949
20.9410 9.895
20.9562 10.133
20.9713 10.097
20.9865 10.016
21.0017 10.183
21.0169 10.236
21.0320 9.858
21.0472 9.820
21.0624 10.021
21.0776 10.031
21.0927 10.019
21.1079 10.000
21.1231 10.039
21.1383 9.822
21.1534 9.836
21.1686 9.649
21.1838 9.550
21.1990 9.541
21.2141 9.679
21.2293 9.957
21.2445 9.720
21.2597 9.794
21.2748 9.864
21.2900 9.544
21.3052 9.575
21.3204 9.921
21.3355 9.431
21.3507 9.392
21.3659 9.480
21.3811 9.588
21.3962 9.564
21.4114 9.469
21.4266 9.429
21.4418 9.582
21.4569 9.415
21.4721 9.325
21.4873 9.434
21.5025 9.322
21.5176 9.571
21.5328 9.217
21.5480 9.217
21.5632 9.323
21.5783 9.102
21.5935 9.070
21.6087 9.220
21.6239 9.120
21.6390 9.095
21.6542 9.535
21.6694 9.101
21.6846 9.171
21.6997 9.378
21.7149 8.974
21.7301 8.879
21.7453 9.087
21.7604 9.143
21.7756 8.723
21.7908 8.683
21.8060 8.716
21.8211 9.055
21.8363 9.065
21.8515 9.062
21.8667 9.115
21.8818 9.045
21.8970 8.926
21.9122 8.871
21.9274 9.029
21.9425 9.011
21.9577 8.908
21.9729 8.935
21.9881 8.816
22.0032 8.689
22.0184 8.793
22.0336 8.611
22.0488 8.558
22.0639 8.716
22.0791 8.820
22.0943 8.898
22.1095 8.576
22.1246 8.491
22.1398 8.571
22.1550 8.585
22.1702 8.574
22.1853 8.732
22.2005 8.766
22.2157 8.564
22.2309 8.562
22.2460 8.449
22.2612 8.492
22.2764 8.608
22.2916 8.645
22.3067 8.490
22.3219 8.231
22.3371 8.428
22.3523 8.354
22.3674 8.481
22.3826 8.612
22.3978 8.607
22.4130 8.650
22.4281 8.661
22.4433 8.412
22.4585 8.536
22.4737 8.450
22.4888 8.435
22.5040 8.537
22.5192 8.193
22.5344 8.357
22.5495 8.392
22.5647 8.714
22.5799 8.459
22.5951 8.303
22.6102 8.332
22.6254 8.419
22.6406 8.079
22.6558 8.280
22.6709 8.258
22.6861 8.220
22.7013 8.104
22.7165 7.995
22.7316 6.397
