'Id: "" Comment: "" Operator: "Lab Manager" Anode: "Mo" Scantype: "Still (Eiger2R_500K (1D mode))" TimePerStep: "300" X: "11.8" Y: "9.4" Z: "11.284" 
7.2532 18.462
7.2684 19.027
7.2836 19.109
7.2987 18.640
7.3139 18.883
7.3291 18.941
7.3443 18.745
7.3594 19.052
7.3746 19.209
7.3898 18.952
7.4050 19.177
7.4201 19.454
7.4353 19.425
7.4505 19.638
7.4657 19.288
7.4808 19.251
7.4960 19.495
7.5112 19.281
7.5264 19.231
7.5415 19.644
7.5567 19.941
7.5719 19.954
7.5871 20.130
7.6022 19.977
7.6174 19.929
7.6326 20.052
7.6478 19.804
7.6629 20.029
7.6781 19.806
7.6933 19.750
7.7085 19.989
7.7236 20.153
7.7388 20.121
7.7540 20.335
7.7692 20.577
7.7843 20.406
7.7995 20.252
7.8147 20.124
7.8299 20.208
7.8450 20.528
7.8602 20.803
7.8754 20.444
7.8905 20.328
7.9057 20.669
7.9209 20.815
7.9361 20.713
7.9512 20.552
7.9664 20.343
7.9816 20.619
7.9968 20.764
8.0119 21.080
8.0271 21.280
8.0423 20.912
8.0575 20.771
8.0726 21.104
8.0878 21.113
8.1030 21.184
8.1182 21.093
8.1333 20.965
8.1485 20.795
8.1637 21.112
8.1789 21.532
8.1940 21.580
8.2092 21.322
8.2244 21.232
8.2396 21.620
8.2547 21.572
8.2699 21.957
8.2851 21.163
8.3003 21.580
8.3154 22.157
8.3306 21.417
8.3458 21.334
8.3610 21.765
8.3761 21.940
8.3913 21.763
8.4065 22.225
8.4217 21.615
8.4368 21.989
8.4520 21.991
8.4672 21.680
8.4824 21.325
8.4975 21.584
8.5127 21.497
8.5279 21.560
8.5431 22.318
8.5582 22.001
8.5734 22.195
8.5886 22.262
8.6038 22.101
8.6189 22.215
8.6341 21.569
8.6493 22.247
8.6645 22.065
8.6796 21.971
8.6948 22.126
8.7100 22.172
8.7252 22.363
8.7403 22.334
8.7555 22.143
8.7707 21.895
8.7859 22.561
8.8010 22.270
8.8162 22.162
8.8314 22.697
8.8466 22.772
8.8617 22.044
8.8769 22.293
8.8921 22.005
8.9073 22.345
8.9224 22.691
8.9376 22.665
8.9528 22.783
8.9680 22.068
8.9831 22.691
8.9983 22.421
9.0135 22.466
9.0287 22.711
9.0438 23.004
9.0590 22.412
9.0742 22.730
9.0894 22.875
9.1045 22.733
9.1197 22.553
9.1349 22.569
9.1501 22.931
9.1652 23.095
9.1804 22.824
9.1956 22.604
9.2108 22.654
9.2259 22.641
9.2411 22.807
9.2563 23.003
9.2715 22.577
9.2866 22.520
9.3018 22.793
9.3170 22.895
9.3322 22.874
9.3473 22.908
9.3625 23.012
9.3777 22.864
9.3929 22.925
9.4080 23.017
9.4232 23.130
9.4384 23.075
9.4536 22.985
9.4687 22.912
9.4839 22.621
9.4991 22.554
9.5143 22.903
9.5294 22.987
9.5446 23.072
9.5598 23.025
9.5750 23.033
9.5901 23.099
9.6053 23.144
9.6205 23.248
9.6357 22.905
9.6508 23.014
9.6660 23.485
9.6812 23.525
9.6964 23.129
9.7115 23.479
9.7267 23.791
9.7419 23.865
9.7571 23.994
9.7722 24.067
9.7874 23.979
9.8026 23.531
9.8178 23.235
9.8329 23.401
9.8481 23.309
9.8633 23.496
9.8785 23.454
9.8936 23.057
9.9088 23.081
9.9240 23.111
9.9392 22.936
9.9543 23.046
9.9695 23.069
9.9847 22.991
9.9999 23.001
10.0150 22.982
10.0302 23.353
10.0454 23.445
10.0606 23.062
10.0757 22.973
10.0909 23.170
10.1061 23.062
10.1213 23.164
10.1364 23.467
10.1516 23.260
10.1668 23.282
10.1820 23.609
10.1971 23.275
10.2123 23.309
10.2275 22.755
10.2427 22.651
10.2578 22.986
10.2730 22.819
10.2882 22.900
10.3034 22.922
10.3185 22.776
10.3337 22.674
10.3489 22.609
10.3641 22.332
10.3792 22.189
10.3944 22.648
10.4096 22.990
10.4248 22.640
10.4399 22.326
10.4551 22.561
10.4703 22.839
10.4855 22.313
10.5006 22.319
10.5158 22.457
10.5310 22.439
10.5462 22.539
10.5613 22.527
10.5765 22.346
10.5917 21.949
10.6069 22.404
10.6220 22.527
10.6372 22.507
10.6524 22.739
10.6676 22.299
10.6827 22.184
10.6979 22.072
10.7131 22.263
10.7283 22.297
10.7434 22.385
10.7586 22.166
10.7738 22.220
10.7890 22.390
10.8041 22.251
10.8193 22.088
10.8345 22.070
10.8497 22.420
10.8648 22.325
10.8800 22.315
10.8952 22.033
10.9104 22.063
10.9255 21.847
10.9407 21.907
10.9559 22.166
10.9711 22.136
10.9862 22.078
11.0014 22.184
11.0166 22.426
11.0318 22.512
11.0469 21.847
11.0621 21.748
11.0773 21.721
11.0925 21.815
11.1076 21.887
11.1228 21.898
11.1380 21.857
11.1532 21.405
11.1683 21.635
11.1835 21.933
11.1987 21.414
11.2139 21.492
11.2290 21.455
11.2442 21.637
11.2594 21.616
11.2746 21.713
11.2897 21.767
11.3049 21.247
11.3201 21.221
11.3353 21.356
11.3504 21.485
11.3656 20.911
11.3808 21.269
11.3960 21.485
11.4111 21.056
11.4263 21.330
11.4415 21.070
11.4567 21.112
11.4718 21.197
11.4870 20.862
11.5022 20.931
11.5174 20.745
11.5325 20.981
11.5477 20.514
11.5629 21.079
11.5781 21.153
11.5932 20.932
11.6084 20.625
11.6236 20.498
11.6388 20.806
11.6539 20.788
11.6691 20.211
11.6843 20.312
11.6995 20.752
11.7146 20.199
11.7298 20.199
11.7450 20.298
11.7602 20.088
11.7753 20.324
11.7905 20.437
11.8057 20.124
11.8209 20.027
11.8360 20.214
11.8512 20.044
11.8664 19.980
11.8816 19.853
11.8967 19.602
11.9119 19.396
11.9271 19.308
11.9423 19.716
11.9574 19.473
11.9726 19.240
11.9878 19.100
12.0030 19.206
12.0181 19.115
12.0333 18.818
12.0485 18.839
12.0637 18.918
12.0788 18.832
12.0940 18.539
12.1092 18.416
12.1244 18.696
12.1395 18.653
12.1547 18.687
12.1699 18.546
12.1851 18.552
12.2002 18.188
12.2154 18.061
12.2306 17.747
12.2458 17.817
12.2609 17.826
12.2761 17.777
12.2913 17.854
12.3065 17.560
12.3216 17.429
12.3368 17.457
12.3520 17.626
12.3672 17.467
12.3823 17.365
12.3975 17.577
12.4127 17.167
12.4279 17.259
12.4430 17.157
12.4582 17.034
12.4734 17.088
12.4886 16.882
12.5037 16.705
12.5189 16.493
12.5341 16.523
12.5493 16.509
12.5644 16.211
12.5796 16.402
12.5948 16.632
12.6100 16.221
12.6251 15.890
12.6403 15.780
12.6555 15.800
12.6707 15.598
12.6858 15.551
12.7010 15.564
12.7162 15.654
12.7314 15.622
12.7465 15.335
12.7617 15.412
12.7769 15.179
12.7921 15.089
12.8072 15.185
12.8224 14.956
12.8376 15.103
12.8528 15.088
12.8679 14.876
12.8831 14.778
12.8983 14.706
12.9135 14.682
12.9286 14.460
12.9438 14.389
12.9590 14.483
12.9742 14.400
12.9893 14.345
13.0045 14.326
13.0197 14.231
13.0349 14.106
13.0500 13.979
13.0652 13.871
13.0804 13.707
13.0956 13.725
13.1107 13.870
13.1259 13.704
13.1411 13.575
13.1563 13.324
13.1714 13.342
13.1866 13.366
13.2018 13.191
13.2170 13.424
13.2321 13.398
13.2473 13.259
13.2625 13.293
13.2777 13.316
13.2928 13.009
13.3080 13.021
13.3232 13.171
13.3384 12.966
13.3535 13.136
13.3687 13.128
13.3839 12.988
13.3991 12.949
13.4142 12.885
13.4294 12.913
13.4446 12.902
13.4598 12.808
13.4749 12.578
13.4901 12.510
13.5053 12.449
13.5205 12.389
13.5356 12.525
13.5508 12.609
13.5660 12.482
13.5812 12.404
13.5963 12.272
13.6115 12.015
13.6267 12.197
13.6419 12.231
13.6570 12.121
13.6722 12.109
13.6874 12.106
13.7026 12.162
13.7177 12.188
13.7329 11.939
13.7481 11.978
13.7633 12.099
13.7784 12.057
13.7936 12.189
13.8088 12.244
13.8239 12.370
13.8391 12.454
13.8543 12.433
13.8695 12.201
13.8846 12.217
13.8998 12.310
13.9150 12.048
13.9302 12.007
13.9453 12.006
13.9605 12.233
13.9757 11.986
13.9909 11.840
14.0060 11.888
14.0212 11.881
14.0364 12.001
14.0516 11.772
14.0667 11.558
14.0819 11.488
14.0971 11.475
14.1123 11.764
14.1274 11.699
14.1426 11.755
14.1578 11.495
14.1730 11.697
14.1881 11.553
14.2033 11.341
14.2185 11.316
14.2337 11.621
14.2488 11.548
14.2640 11.675
14.2792 11.905
14.2944 12.061
14.3095 11.871
14.3247 12.144
14.3399 12.407
14.3551 12.519
14.3702 12.589
14.3854 12.633
14.4006 12.819
14.4158 12.827
14.4309 12.651
14.4461 12.746
14.4613 12.776
14.4765 12.081
14.4916 11.973
14.5068 11.789
14.5220 11.480
14.5372 11.436
14.5523 11.360
14.5675 11.235
14.5827 10.871
14.5979 11.194
14.6130 10.657
14.6282 10.981
14.6434 10.798
14.6586 10.772
14.6737 10.672
14.6889 10.444
14.7041 10.575
14.7193 10.358
14.7344 10.521
14.7496 10.460
14.7648 10.480
14.7800 10.323
14.7951 10.446
14.8103 10.417
14.8255 10.953
14.8407 10.397
14.8558 10.521
14.8710 10.585
14.8862 10.305
14.9014 10.469
14.9165 10.772
14.9317 10.898
14.9469 10.281
14.9621 10.482
14.9772 10.007
14.9924 10.142
15.0076 10.524
15.0228 10.522
15.0379 10.112
15.0531 10.452
15.0683 10.292
15.0835 10.193
15.0986 10.255
15.1138 10.250
15.1290 10.162
15.1442 10.317
15.1593 10.108
15.1745 10.494
15.1897 9.929
15.2049 10.198
15.2200 9.895
15.2352 10.510
15.2504 10.259
15.2656 9.918
15.2807 10.133
15.2959 10.140
15.3111 10.118
15.3263 10.184
15.3414 10.017
15.3566 10.123
15.3718 9.809
15.3870 9.910
15.4021 9.994
15.4173 9.876
15.4325 9.750
15.4477 10.172
15.4628 10.089
15.4780 10.131
15.4932 9.910
15.5084 9.929
15.5235 9.990
15.5387 9.973
15.5539 9.678
15.5691 9.902
15.5842 10.030
15.5994 9.825
15.6146 9.890
15.6298 9.830
15.6449 9.830
15.6601 9.856
15.6753 9.569
15.6905 9.667
15.7056 9.571
15.7208 9.724
15.7360 9.613
15.7512 9.436
15.7663 9.583
15.7815 9.644
15.7967 9.920
15.8119 9.827
15.8270 9.671
15.8422 9.695
15.8574 9.502
15.8726 9.710
15.8877 9.556
15.9029 9.908
15.9181 9.763
15.9333 9.646
15.9484 9.628
15.9636 9.487
15.9788 9.508
15.9940 9.295
16.0091 9.413
16.0243 9.640
16.0395 9.770
16.0547 9.731
16.0698 9.437
16.0850 9.644
16.1002 9.630
16.1154 9.422
16.1305 9.368
16.1457 9.578
16.1609 9.669
16.1761 9.617
16.1912 9.482
16.2064 9.432
16.2216 9.602
16.2368 9.735
16.2519 9.956
16.2671 9.687
16.2823 9.539
16.2975 9.774
16.3126 9.885
16.3278 9.770
16.3430 9.898
16.3582 9.970
16.3733 9.826
16.3885 9.796
16.4037 9.689
16.4189 9.611
16.4340 9.742
16.4492 9.802
16.4644 9.634
16.4796 9.602
16.4947 9.572
16.5099 9.477
16.5251 9.609
16.5403 9.407
16.5554 9.235
16.5706 9.404
16.5858 9.460
16.6010 9.322
16.6161 9.400
16.6313 9.588
16.6465 9.436
16.6617 9.661
16.6768 9.688
16.6920 9.811
16.7072 9.895
16.7224 9.807
16.7375 9.823
16.7527 9.899
16.7679 9.793
16.7831 9.749
16.7982 9.740
16.8134 9.870
16.8286 9.823
16.8438 9.681
16.8589 9.601
16.8741 9.649
16.8893 9.796
16.9045 9.903
16.9196 9.940
16.9348 9.854
16.9500 9.662
16.9652 9.775
16.9803 9.843
16.9955 9.677
17.0107 9.799
17.0259 9.952
17.0410 9.865
17.0562 9.899
17.0714 10.155
17.0866 10.331
17.1017 10.638
17.1169 10.903
17.1321 10.990
17.1473 11.211
17.1624 11.519
17.1776 12.243
17.1928 13.233
17.2080 14.006
17.2231 14.976
17.2383 16.386
17.2535 17.440
17.2687 18.314
17.2838 18.573
17.2990 18.001
17.3142 17.039
17.3294 16.292
17.3445 16.012
17.3597 16.003
17.3749 15.992
17.3901 15.300
17.4052 14.304
17.4204 13.472
17.4356 12.552
17.4508 12.000
17.4659 11.602
17.4811 11.371
17.4963 11.424
17.5115 11.106
17.5266 10.847
17.5418 10.726
17.5570 10.982
17.5722 11.121
17.5873 10.879
17.6025 10.906
17.6177 11.091
17.6329 11.141
17.6480 11.305
17.6632 11.422
17.6784 11.303
17.6936 11.342
17.7087 11.446
17.7239 11.318
17.7391 11.254
17.7543 11.125
17.7694 10.978
17.7846 10.850
17.7998 10.743
17.8150 10.759
17.8301 10.686
17.8453 10.469
17.8605 10.186
17.8757 10.210
17.8908 10.343
17.9060 10.339
17.9212 10.255
17.9364 10.065
17.9515 10.216
17.9667 10.389
17.9819 10.425
17.9971 10.242
18.0122 9.932
18.0274 10.008
18.0426 10.122
18.0578 10.205
18.0729 10.242
18.0881 10.129
18.1033 9.931
18.1185 9.977
18.1336 10.096
18.1488 9.938
18.1640 9.919
18.1792 10.031
18.1943 10.022
18.2095 9.888
18.2247 9.729
18.2399 9.706
18.2550 10.003
18.2702 10.180
18.2854 9.827
18.3006 9.680
18.3157 9.934
18.3309 10.045
18.3461 9.758
18.3613 9.817
18.3764 10.016
18.3916 9.856
18.4068 9.753
18.4220 9.934
18.4371 9.885
18.4523 9.831
18.4675 9.711
18.4827 9.650
18.4978 9.589
18.5130 9.706
18.5282 9.596
18.5434 9.655
18.5585 9.913
18.5737 9.889
18.5889 9.778
18.6041 9.794
18.6192 9.820
18.6344 9.822
18.6496 9.945
18.6648 9.737
18.6799 9.689
18.6951 9.860
18.7103 9.849
18.7255 9.634
18.7406 9.825
18.7558 9.665
18.7710 9.689
18.7862 9.899
18.8013 9.890
18.8165 9.725
18.8317 9.807
18.8469 9.980
18.8620 10.001
18.8772 10.069
18.8924 9.805
18.9076 9.847
18.9227 10.052
18.9379 10.049
18.9531 9.954
18.9683 10.030
18.9834 9.863
18.9986 9.946
19.0138 10.208
19.0290 10.286
19.0441 10.112
19.0593 10.195
19.0745 10.329
19.0897 10.479
19.1048 10.522
19.1200 10.421
19.1352 10.507
19.1504 10.651
19.1655 10.751
19.1807 10.796
19.1959 10.600
19.2111 10.479
19.2262 10.611
19.2414 10.857
19.2566 10.950
19.2718 10.853
19.2869 10.882
19.3021 10.914
19.3173 11.052
19.3325 11.078
19.3476 11.071
19.3628 11.004
19.3780 10.879
19.3932 11.128
19.4083 11.408
19.4235 11.357
19.4387 11.294
19.4539 11.525
19.4690 11.432
19.4842 11.273
19.4994 11.399
19.5146 11.547
19.5297 11.523
19.5449 11.519
19.5601 11.615
19.5753 11.647
19.5904 11.629
19.6056 11.600
19.6208 11.550
19.6360 11.686
19.6511 11.687
19.6663 11.567
19.6815 11.752
19.6967 11.949
19.7118 11.826
19.7270 11.719
19.7422 11.958
19.7574 12.105
19.7725 11.891
19.7877 11.723
19.8029 11.842
19.8180 12.027
19.8332 12.048
19.8484 12.342
19.8636 12.629
19.8787 12.677
19.8939 12.974
19.9091 13.375
19.9243 13.545
19.9394 13.859
19.9546 14.298
19.9698 14.608
19.9850 14.636
20.0001 14.406
20.0153 14.152
20.0305 14.002
20.0457 13.964
20.0608 13.940
20.0760 13.757
20.0912 13.644
20.1064 13.828
20.1215 13.494
20.1367 13.195
20.1519 13.188
20.1671 13.343
20.1822 13.196
20.1974 12.914
20.2126 12.746
20.2278 12.807
20.2429 12.491
20.2581 12.287
20.2733 12.234
20.2885 12.026
20.3036 12.112
20.3188 12.101
20.3340 12.070
20.3492 12.303
20.3643 12.113
20.3795 11.944
20.3947 11.739
20.4099 11.601
20.4250 11.769
20.4402 11.707
20.4554 11.888
20.4706 11.861
20.4857 11.606
20.5009 11.626
20.5161 11.316
20.5313 11.316
20.5464 11.411
20.5616 11.376
20.5768 11.534
20.5920 11.340
20.6071 11.217
20.6223 10.993
20.6375 10.956
20.6527 10.888
20.6678 10.872
20.6830 10.821
20.6982 10.728
20.7134 10.658
20.7285 10.443
20.7437 10.463
20.7589 10.686
20.7741 10.553
20.7892 10.448
20.8044 10.467
20.8196 10.529
20.8348 10.257
20.8499 10.304
20.8651 10.174
20.8803 10.440
20.8955 10.292
20.9106 10.208
20.9258 10.417
20.9410 10.241
20.9562 10.495
20.9713 10.187
20.9865 10.606
21.0017 10.174
21.0169 10.029
21.0320 10.076
21.0472 9.999
21.0624 10.003
21.0776 9.929
21.0927 9.900
21.1079 9.973
21.1231 10.208
21.1383 9.768
21.1534 10.022
21.1686 9.754
21.1838 9.648
21.1990 10.187
21.2141 9.759
21.2293 9.657
21.2445 9.524
21.2597 9.590
21.2748 9.854
21.2900 9.754
21.3052 9.544
21.3204 9.712
21.3355 9.511
21.3507 9.602
21.3659 9.437
21.3811 9.398
21.3962 9.725
21.4114 9.553
21.4266 9.279
21.4418 9.456
21.4569 9.319
21.4721 9.415
21.4873 9.451
21.5025 9.249
21.5176 9.626
21.5328 9.588
21.5480 9.316
21.5632 9.263
21.5783 9.216
21.5935 9.310
21.6087 9.166
21.6239 9.359
21.6390 9.245
21.6542 9.312
21.6694 9.162
21.6846 9.279
21.6997 8.959
21.7149 9.238
21.7301 9.284
21.7453 9.054
21.7604 8.801
21.7756 9.052
21.7908 9.060
21.8060 9.029
21.8211 8.834
21.8363 9.070
21.8515 9.438
21.8667 9.229
21.8818 9.025
21.8970 8.910
21.9122 8.854
21.9274 8.915
21.9425 8.810
21.9577 8.938
21.9729 9.216
21.9881 9.224
22.0032 8.835
22.0184 8.694
22.0336 8.861
22.0488 8.676
22.0639 8.700
22.0791 8.985
22.0943 8.823
22.1095 8.647
22.1246 8.583
22.1398 8.614
22.1550 8.520
22.1702 8.647
22.1853 8.861
22.2005 8.740
22.2157 8.660
22.2309 8.726
22.2460 8.557
22.2612 8.720
22.2764 8.707
22.2916 8.597
22.3067 8.566
22.3219 8.731
22.3371 8.604
22.3523 8.553
22.3674 8.405
22.3826 8.355
22.3978 8.391
22.4130 8.566
22.4281 8.611
22.4433 8.443
22.4585 8.422
22.4737 8.479
22.4888 8.535
22.5040 8.427
22.5192 8.629
22.5344 8.375
22.5495 8.462
22.5647 8.593
22.5799 8.396
22.5951 8.494
22.6102 8.718
22.6254 8.263
22.6406 8.455
22.6558 8.479
22.6709 8.307
22.6861 8.409
22.7013 8.455
22.7165 7.853
22.7316 6.427
