'Id: "" Comment: "" Operator: "Lab Manager" Anode: "Mo" Scantype: "Still (Eiger2R_500K (1D mode))" TimePerStep: "300" X: "11.8" Y: "9.4" Z: "11.284" 
7.2532 18.810
7.2684 18.800
7.2836 18.755
7.2987 18.648
7.3139 19.186
7.3291 18.917
7.3443 19.104
7.3594 19.266
7.3746 19.290
7.3898 19.284
7.4050 19.554
7.4201 19.410
7.4353 19.293
7.4505 19.229
7.4657 19.328
7.4808 19.349
7.4960 19.562
7.5112 19.706
7.5264 19.943
7.5415 20.286
7.5567 20.031
7.5719 20.115
7.5871 19.801
7.6022 19.953
7.6174 19.904
7.6326 19.969
7.6478 20.174
7.6629 20.108
7.6781 20.168
7.6933 20.168
7.7085 20.372
7.7236 20.240
7.7388 20.290
7.7540 20.318
7.7692 20.428
7.7843 20.508
7.7995 20.439
7.8147 20.304
7.8299 20.142
7.8450 20.556
7.8602 20.649
7.8754 20.771
7.8905 20.894
7.9057 20.904
7.9209 20.917
7.9361 20.779
7.9512 20.735
7.9664 21.007
7.9816 21.104
7.9968 21.280
8.0119 21.128
8.0271 21.171
8.0423 20.856
8.0575 20.848
8.0726 21.034
8.0878 20.818
8.1030 21.303
8.1182 21.364
8.1333 21.278
8.1485 21.353
8.1637 21.408
8.1789 21.457
8.1940 21.394
8.2092 21.561
8.2244 21.053
8.2396 21.276
8.2547 21.331
8.2699 21.425
8.2851 21.249
8.3003 21.737
8.3154 21.421
8.3306 21.531
8.3458 22.031
8.3610 21.352
8.3761 21.674
8.3913 21.585
8.4065 21.615
8.4217 21.880
8.4368 22.230
8.4520 22.634
8.4672 22.052
8.4824 22.002
8.4975 22.065
8.5127 22.469
8.5279 21.822
8.5431 22.317
8.5582 22.224
8.5734 22.235
8.5886 21.881
8.6038 21.696
8.6189 21.991
8.6341 22.423
8.6493 22.016
8.6645 22.131
8.6796 22.105
8.6948 21.988
8.7100 22.314
8.7252 22.252
8.7403 22.004
8.7555 21.967
8.7707 22.493
8.7859 23.034
8.8010 22.590
8.8162 22.842
8.8314 22.100
8.8466 22.041
8.8617 22.503
8.8769 22.604
8.8921 22.845
8.9073 22.571
8.9224 22.549
8.9376 22.232
8.9528 22.899
8.9680 22.451
8.9831 22.289
8.9983 22.558
9.0135 22.752
9.0287 22.976
9.0438 22.809
9.0590 22.559
9.0742 22.859
9.0894 22.555
9.1045 22.984
9.1197 22.948
9.1349 22.858
9.1501 22.837
9.1652 22.929
9.1804 23.168
9.1956 23.298
9.2108 23.232
9.2259 22.963
9.2411 23.016
9.2563 22.896
9.2715 22.857
9.2866 23.043
9.3018 22.989
9.3170 22.947
9.3322 23.176
9.3473 22.961
9.3625 23.121
9.3777 23.134
9.3929 23.354
9.4080 23.253
9.4232 23.262
9.4384 23.038
9.4536 23.215
9.4687 23.139
9.4839 23.177
9.4991 23.366
9.5143 23.233
9.5294 23.085
9.5446 23.142
9.5598 23.163
9.5750 23.056
9.5901 23.058
9.6053 22.916
9.6205 23.100
9.6357 23.480
9.6508 23.486
9.6660 23.326
9.6812 23.520
9.6964 23.421
9.7115 23.470
9.7267 23.752
9.7419 23.737
9.7571 23.687
9.7722 23.899
9.7874 23.739
9.8026 23.660
9.8178 23.709
9.8329 23.308
9.8481 23.287
9.8633 23.157
9.8785 23.228
9.8936 23.400
9.9088 23.320
9.9240 23.455
9.9392 23.369
9.9543 23.130
9.9695 22.977
9.9847 23.203
9.9999 23.102
10.0150 23.444
10.0302 23.319
10.0454 23.057
10.0606 23.197
10.0757 23.344
10.0909 23.483
10.1061 23.169
10.1213 22.853
10.1364 23.028
10.1516 23.247
10.1668 23.114
10.1820 23.401
10.1971 23.336
10.2123 23.211
10.2275 22.899
10.2427 22.993
10.2578 23.253
10.2730 23.235
10.2882 23.215
10.3034 23.244
10.3185 22.837
10.3337 22.707
10.3489 22.679
10.3641 22.646
10.3792 22.671
10.3944 22.795
10.4096 22.880
10.4248 22.591
10.4399 22.410
10.4551 22.733
10.4703 22.940
10.4855 22.361
10.5006 22.118
10.5158 22.395
10.5310 22.551
10.5462 22.672
10.5613 22.567
10.5765 22.548
10.5917 22.589
10.6069 22.628
10.6220 22.659
10.6372 22.815
10.6524 22.725
10.6676 22.870
10.6827 22.769
10.6979 22.482
10.7131 22.380
10.7283 22.417
10.7434 22.466
10.7586 22.166
10.7738 22.239
10.7890 22.361
10.8041 22.452
10.8193 22.089
10.8345 22.135
10.8497 21.995
10.8648 21.805
10.8800 22.083
10.8952 21.942
10.9104 21.893
10.9255 21.961
10.9407 22.234
10.9559 22.181
10.9711 21.790
10.9862 21.773
11.0014 21.761
11.0166 21.826
11.0318 21.899
11.0469 21.499
11.0621 21.575
11.0773 21.715
11.0925 21.795
11.1076 21.855
11.1228 22.231
11.1380 22.231
11.1532 21.963
11.1683 21.557
11.1835 21.495
11.1987 21.761
11.2139 21.702
11.2290 21.788
11.2442 21.936
11.2594 21.763
11.2746 21.383
11.2897 21.683
11.3049 21.797
11.3201 21.272
11.3353 21.418
11.3504 21.446
11.3656 21.066
11.3808 21.483
11.3960 21.270
11.4111 21.485
11.4263 21.440
11.4415 21.032
11.4567 20.983
11.4718 20.645
11.4870 20.747
11.5022 20.975
11.5174 21.076
11.5325 20.971
11.5477 21.125
11.5629 20.876
11.5781 20.994
11.5932 20.867
11.6084 20.852
11.6236 20.948
11.6388 20.683
11.6539 20.897
11.6691 21.174
11.6843 20.804
11.6995 20.691
11.7146 20.864
11.7298 20.552
11.7450 20.367
11.7602 20.431
11.7753 20.085
11.7905 19.934
11.8057 20.147
11.8209 20.338
11.8360 20.287
11.8512 20.039
11.8664 19.932
11.8816 19.729
11.8967 19.573
11.9119 19.270
11.9271 19.462
11.9423 19.482
11.9574 19.489
11.9726 19.798
11.9878 19.291
12.0030 19.265
12.0181 19.260
12.0333 19.098
12.0485 18.912
12.0637 18.969
12.0788 18.978
12.0940 18.743
12.1092 18.709
12.1244 18.457
12.1395 18.637
12.1547 18.563
12.1699 18.671
12.1851 18.617
12.2002 18.542
12.2154 18.111
12.2306 18.142
12.2458 18.124
12.2609 17.752
12.2761 17.604
12.2913 17.482
12.3065 17.614
12.3216 17.589
12.3368 17.590
12.3520 17.526
12.3672 17.361
12.3823 17.217
12.3975 17.049
12.4127 17.141
12.4279 17.344
12.4430 17.206
12.4582 16.855
12.4734 16.635
12.4886 16.684
12.5037 16.594
12.5189 16.583
12.5341 16.478
12.5493 16.534
12.5644 16.648
12.5796 16.588
12.5948 16.474
12.6100 16.218
12.6251 16.082
12.6403 16.022
12.6555 15.939
12.6707 15.748
12.6858 15.939
12.7010 15.639
12.7162 15.656
12.7314 15.673
12.7465 15.542
12.7617 15.496
12.7769 15.175
12.7921 15.007
12.8072 15.175
12.8224 15.284
12.8376 15.147
12.8528 15.085
12.8679 14.960
12.8831 14.764
12.8983 14.739
12.9135 14.696
12.9286 14.521
12.9438 14.532
12.9590 14.578
12.9742 14.365
12.9893 14.287
13.0045 14.224
13.0197 14.220
13.0349 14.220
13.0500 14.183
13.0652 13.993
13.0804 13.841
13.0956 13.838
13.1107 13.741
13.1259 13.900
13.1411 13.879
13.1563 13.601
13.1714 13.670
13.1866 13.692
13.2018 13.483
13.2170 13.310
13.2321 13.422
13.2473 13.365
13.2625 13.214
13.2777 13.436
13.2928 13.469
13.3080 13.324
13.3232 12.854
13.3384 12.706
13.3535 13.010
13.3687 13.129
13.3839 13.130
13.3991 13.052
13.4142 12.972
13.4294 12.709
13.4446 12.903
13.4598 13.032
13.4749 12.802
13.4901 12.782
13.5053 12.439
13.5205 12.336
13.5356 12.462
13.5508 12.433
13.5660 12.594
13.5812 12.613
13.5963 12.407
13.6115 12.454
13.6267 12.372
13.6419 12.242
13.6570 12.108
13.6722 12.063
13.6874 12.075
13.7026 12.205
13.7177 12.196
13.7329 12.051
13.7481 11.866
13.7633 12.110
13.7784 11.959
13.7936 12.159
13.8088 12.052
13.8239 12.153
13.8391 12.240
13.8543 12.104
13.8695 12.160
13.8846 12.365
13.8998 12.300
13.9150 12.091
13.9302 11.832
13.9453 11.911
13.9605 11.914
13.9757 11.718
13.9909 11.664
14.0060 11.638
14.0212 11.815
14.0364 11.780
14.0516 11.469
14.0667 11.759
14.0819 11.524
14.0971 11.556
14.1123 11.695
14.1274 11.693
14.1426 11.766
14.1578 11.588
14.1730 11.732
14.1881 12.029
14.2033 11.846
14.2185 11.842
14.2337 11.823
14.2488 11.929
14.2640 11.934
14.2792 11.949
14.2944 12.172
14.3095 12.177
14.3247 12.100
14.3399 12.283
14.3551 12.443
14.3702 12.777
14.3854 12.920
14.4006 13.026
14.4158 13.028
14.4309 13.126
14.4461 13.160
14.4613 12.610
14.4765 12.319
14.4916 12.021
14.5068 12.108
14.5220 11.780
14.5372 11.510
14.5523 11.399
14.5675 11.217
14.5827 11.027
14.5979 10.850
14.6130 10.913
14.6282 10.808
14.6434 10.745
14.6586 10.637
14.6737 10.896
14.6889 10.827
14.7041 10.845
14.7193 10.477
14.7344 10.636
14.7496 10.361
14.7648 10.433
14.7800 10.770
14.7951 10.618
14.8103 10.657
14.8255 10.723
14.8407 10.455
14.8558 10.683
14.8710 10.378
14.8862 10.526
14.9014 10.639
14.9165 10.655
14.9317 10.784
14.9469 10.607
14.9621 10.736
14.9772 10.089
14.9924 10.143
15.0076 10.304
15.0228 10.288
15.0379 10.331
15.0531 10.371
15.0683 10.465
15.0835 10.108
15.0986 10.351
15.1138 9.922
15.1290 10.332
15.1442 10.311
15.1593 10.286
15.1745 9.878
15.1897 10.398
15.2049 10.325
15.2200 10.432
15.2352 10.170
15.2504 10.069
15.2656 9.977
15.2807 10.442
15.2959 10.192
15.3111 10.174
15.3263 10.288
15.3414 10.516
15.3566 10.214
15.3718 10.043
15.3870 10.471
15.4021 9.837
15.4173 10.017
15.4325 10.351
15.4477 10.016
15.4628 10.335
15.4780 9.996
15.4932 9.842
15.5084 9.837
15.5235 10.157
15.5387 9.879
15.5539 9.868
15.5691 9.809
15.5842 9.707
15.5994 9.618
15.6146 9.663
15.6298 9.596
15.6449 9.652
15.6601 9.799
15.6753 9.680
15.6905 9.727
15.7056 9.684
15.7208 9.905
15.7360 9.562
15.7512 9.714
15.7663 9.523
15.7815 9.696
15.7967 9.836
15.8119 9.862
15.8270 9.756
15.8422 9.616
15.8574 9.644
15.8726 9.530
15.8877 9.755
15.9029 9.883
15.9181 9.776
15.9333 9.677
15.9484 9.439
15.9636 9.650
15.9788 9.714
15.9940 9.667
16.0091 9.658
16.0243 9.818
16.0395 9.815
16.0547 9.685
16.0698 9.766
16.0850 9.488
16.1002 9.673
16.1154 9.366
16.1305 9.674
16.1457 9.720
16.1609 9.624
16.1761 9.515
16.1912 9.634
16.2064 9.613
16.2216 9.789
16.2368 9.771
16.2519 9.794
16.2671 9.765
16.2823 9.760
16.2975 9.922
16.3126 9.872
16.3278 9.876
16.3430 9.794
16.3582 9.902
16.3733 9.815
16.3885 9.888
16.4037 9.817
16.4189 10.066
16.4340 10.010
16.4492 9.689
16.4644 9.654
16.4796 9.833
16.4947 9.783
16.5099 9.887
16.5251 9.639
16.5403 9.807
16.5554 9.850
16.5706 9.718
16.5858 9.934
16.6010 9.657
16.6161 9.556
16.6313 9.702
16.6465 9.622
16.6617 9.536
16.6768 9.626
16.6920 9.786
16.7072 9.956
16.7224 10.073
16.7375 10.024
16.7527 10.076
16.7679 9.800
16.7831 9.599
16.7982 9.719
16.8134 10.084
16.8286 10.140
16.8438 9.879
16.8589 9.820
16.8741 9.874
16.8893 9.659
16.9045 9.538
16.9196 9.780
16.9348 9.950
16.9500 9.948
16.9652 9.909
16.9803 10.086
16.9955 10.007
17.0107 9.851
17.0259 9.944
17.0410 10.093
17.0562 10.181
17.0714 10.125
17.0866 10.056
17.1017 10.317
17.1169 10.641
17.1321 10.952
17.1473 11.347
17.1624 11.863
17.1776 12.476
17.1928 13.020
17.2080 13.682
17.2231 14.701
17.2383 16.128
17.2535 17.374
17.2687 18.281
17.2838 18.630
17.2990 18.132
17.3142 17.121
17.3294 16.506
17.3445 16.325
17.3597 15.911
17.3749 15.813
17.3901 15.542
17.4052 14.602
17.4204 13.467
17.4356 12.495
17.4508 11.916
17.4659 11.881
17.4811 11.955
17.4963 11.692
17.5115 11.307
17.5266 11.062
17.5418 10.925
17.5570 10.872
17.5722 11.041
17.5873 10.985
17.6025 11.152
17.6177 11.285
17.6329 11.192
17.6480 11.445
17.6632 11.499
17.6784 11.455
17.6936 11.680
17.7087 11.849
17.7239 11.460
17.7391 11.033
17.7543 11.057
17.7694 11.095
17.7846 11.126
17.7998 10.863
17.8150 10.686
17.8301 10.484
17.8453 10.401
17.8605 10.185
17.8757 10.151
17.8908 10.247
17.9060 10.296
17.9212 10.602
17.9364 10.404
17.9515 10.020
17.9667 10.111
17.9819 10.283
17.9971 10.106
18.0122 10.019
18.0274 10.015
18.0426 10.160
18.0578 10.142
18.0729 10.151
18.0881 10.223
18.1033 10.136
18.1185 10.120
18.1336 9.957
18.1488 9.842
18.1640 9.894
18.1792 10.097
18.1943 10.090
18.2095 9.927
18.2247 9.904
18.2399 10.112
18.2550 9.995
18.2702 9.519
18.2854 9.777
18.3006 9.963
18.3157 9.881
18.3309 9.829
18.3461 9.891
18.3613 9.882
18.3764 9.803
18.3916 9.690
18.4068 9.853
18.4220 9.944
18.4371 9.879
18.4523 9.829
18.4675 9.862
18.4827 9.798
18.4978 9.805
18.5130 9.932
18.5282 9.824
18.5434 9.658
18.5585 9.633
18.5737 9.525
18.5889 9.712
18.6041 9.919
18.6192 9.927
18.6344 9.743
18.6496 9.872
18.6648 9.894
18.6799 9.610
18.6951 9.719
18.7103 9.680
18.7255 9.830
18.7406 9.844
18.7558 9.806
18.7710 9.747
18.7862 9.950
18.8013 9.941
18.8165 9.751
18.8317 9.722
18.8469 9.614
18.8620 9.622
18.8772 9.809
18.8924 9.781
18.9076 9.800
18.9227 9.763
18.9379 9.982
18.9531 9.942
18.9683 9.974
18.9834 10.125
18.9986 10.183
19.0138 10.018
19.0290 10.087
19.0441 10.330
19.0593 10.335
19.0745 10.292
19.0897 10.337
19.1048 10.356
19.1200 10.412
19.1352 10.333
19.1504 10.541
19.1655 10.447
19.1807 10.440
19.1959 10.538
19.2111 10.639
19.2262 10.760
19.2414 10.867
19.2566 11.106
19.2718 10.844
19.2869 10.619
19.3021 10.704
19.3173 10.811
19.3325 11.032
19.3476 10.998
19.3628 10.880
19.3780 11.174
19.3932 11.268
19.4083 11.071
19.4235 11.092
19.4387 11.284
19.4539 11.312
19.4690 11.392
19.4842 11.139
19.4994 11.215
19.5146 11.623
19.5297 11.718
19.5449 11.611
19.5601 11.546
19.5753 11.449
19.5904 11.542
19.6056 11.697
19.6208 11.686
19.6360 11.774
19.6511 11.861
19.6663 11.744
19.6815 11.737
19.6967 11.714
19.7118 11.691
19.7270 11.882
19.7422 11.881
19.7574 11.716
19.7725 11.682
19.7877 11.882
19.8029 11.911
19.8180 11.976
19.8332 12.082
19.8484 12.101
19.8636 12.244
19.8787 12.352
19.8939 12.863
19.9091 13.237
19.9243 13.518
19.9394 13.704
19.9546 14.009
19.9698 14.246
19.9850 14.376
20.0001 14.202
20.0153 14.130
20.0305 14.123
20.0457 13.983
20.0608 14.010
20.0760 13.948
20.0912 13.706
20.1064 13.668
20.1215 13.732
20.1367 13.280
20.1519 13.042
20.1671 13.111
20.1822 13.184
20.1974 13.130
20.2126 13.141
20.2278 12.754
20.2429 12.496
20.2581 12.280
20.2733 12.258
20.2885 12.231
20.3036 12.007
20.3188 11.933
20.3340 11.997
20.3492 12.097
20.3643 12.194
20.3795 12.057
20.3947 12.222
20.4099 11.954
20.4250 12.015
20.4402 11.901
20.4554 11.605
20.4706 11.748
20.4857 11.640
20.5009 11.245
20.5161 11.281
20.5313 11.318
20.5464 11.263
20.5616 11.380
20.5768 11.228
20.5920 11.229
20.6071 11.044
20.6223 10.911
20.6375 10.838
20.6527 10.776
20.6678 10.829
20.6830 10.613
20.6982 10.665
20.7134 10.464
20.7285 10.592
20.7437 10.560
20.7589 10.477
20.7741 10.347
20.7892 10.403
20.8044 10.388
20.8196 10.339
20.8348 10.317
20.8499 10.454
20.8651 10.014
20.8803 10.183
20.8955 10.008
20.9106 10.123
20.9258 10.368
20.9410 10.347
20.9562 10.077
20.9713 10.011
20.9865 10.228
21.0017 10.014
21.0169 9.897
21.0320 10.111
21.0472 10.278
21.0624 9.838
21.0776 10.030
21.0927 10.348
21.1079 9.693
21.1231 10.076
21.1383 9.640
21.1534 10.025
21.1686 9.684
21.1838 9.603
21.1990 9.926
21.2141 9.701
21.2293 9.624
21.2445 9.705
21.2597 9.996
21.2748 9.577
21.2900 9.421
21.3052 9.751
21.3204 9.528
21.3355 9.486
21.3507 9.599
21.3659 9.651
21.3811 9.577
21.3962 9.474
21.4114 9.609
21.4266 9.455
21.4418 9.731
21.4569 9.568
21.4721 9.679
21.4873 9.411
21.5025 9.436
21.5176 9.638
21.5328 9.397
21.5480 9.234
21.5632 9.343
21.5783 9.474
21.5935 9.395
21.6087 9.193
21.6239 9.245
21.6390 8.985
21.6542 9.142
21.6694 9.187
21.6846 9.320
21.6997 9.240
21.7149 9.091
21.7301 9.163
21.7453 9.126
21.7604 8.970
21.7756 8.773
21.7908 8.815
21.8060 8.888
21.8211 9.074
21.8363 9.119
21.8515 8.973
21.8667 9.066
21.8818 9.158
21.8970 8.929
21.9122 9.176
21.9274 8.959
21.9425 8.660
21.9577 8.910
21.9729 8.925
21.9881 8.674
22.0032 8.779
22.0184 8.933
22.0336 8.816
22.0488 8.562
22.0639 8.704
22.0791 8.766
22.0943 8.698
22.1095 8.877
22.1246 8.683
22.1398 8.701
22.1550 8.736
22.1702 8.614
22.1853 8.572
22.2005 8.639
22.2157 8.402
22.2309 8.476
22.2460 8.818
22.2612 8.821
22.2764 8.465
22.2916 8.370
22.3067 8.591
22.3219 8.488
22.3371 8.583
22.3523 8.502
22.3674 8.385
22.3826 8.457
22.3978 8.427
22.4130 8.567
22.4281 8.393
22.4433 8.419
22.4585 8.251
22.4737 8.468
22.4888 8.543
22.5040 8.594
22.5192 8.494
22.5344 8.160
22.5495 8.670
22.5647 8.491
22.5799 8.596
22.5951 8.827
22.6102 8.635
22.6254 8.733
22.6406 8.378
22.6558 8.385
22.6709 8.068
22.6861 8.413
22.7013 8.204
22.7165 7.879
22.7316 6.518
