'Id: "" Comment: "" Operator: "Lab Manager" Anode: "Mo" Scantype: "Still (Eiger2R_500K (1D mode))" TimePerStep: "300" X: "11.8" Y: "9.4" Z: "11.284" 
7.2532 19.122
7.2684 18.766
7.2836 18.894
7.2987 19.256
7.3139 19.448
7.3291 19.489
7.3443 18.967
7.3594 19.171
7.3746 19.387
7.3898 19.413
7.4050 19.494
7.4201 19.428
7.4353 19.430
7.4505 19.453
7.4657 19.813
7.4808 19.509
7.4960 19.565
7.5112 19.895
7.5264 19.711
7.5415 19.470
7.5567 19.789
7.5719 19.887
7.5871 20.295
7.6022 20.067
7.6174 20.194
7.6326 20.157
7.6478 20.016
7.6629 20.311
7.6781 20.619
7.6933 20.519
7.7085 20.684
7.7236 20.702
7.7388 20.992
7.7540 20.703
7.7692 20.468
7.7843 20.583
7.7995 20.691
7.8147 20.860
7.8299 20.830
7.8450 20.733
7.8602 21.025
7.8754 21.350
7.8905 21.195
7.9057 21.195
7.9209 21.120
7.9361 21.110
7.9512 20.924
7.9664 20.949
7.9816 21.196
7.9968 21.550
8.0119 21.130
8.0271 21.103
8.0423 21.173
8.0575 21.257
8.0726 21.366
8.0878 21.664
8.1030 21.249
8.1182 21.124
8.1333 21.086
8.1485 21.159
8.1637 21.761
8.1789 21.783
8.1940 21.791
8.2092 21.891
8.2244 21.863
8.2396 21.715
8.2547 21.570
8.2699 21.658
8.2851 21.681
8.3003 21.754
8.3154 22.187
8.3306 22.293
8.3458 22.179
8.3610 21.667
8.3761 22.226
8.3913 21.823
8.4065 21.765
8.4217 22.216
8.4368 22.196
8.4520 21.891
8.4672 22.041
8.4824 22.380
8.4975 22.074
8.5127 21.710
8.5279 22.478
8.5431 22.144
8.5582 22.435
8.5734 22.288
8.5886 22.445
8.6038 21.604
8.6189 22.212
8.6341 22.713
8.6493 22.276
8.6645 22.690
8.6796 22.753
8.6948 22.189
8.7100 22.756
8.7252 22.451
8.7403 22.875
8.7555 23.039
8.7707 22.876
8.7859 22.518
8.8010 22.356
8.8162 22.864
8.8314 22.298
8.8466 22.766
8.8617 22.658
8.8769 22.928
8.8921 22.650
8.9073 22.934
8.9224 22.500
8.9376 22.815
8.9528 22.789
8.9680 22.810
8.9831 22.774
8.9983 22.923
9.0135 22.914
9.0287 22.442
9.0438 22.549
9.0590 22.777
9.0742 22.429
9.0894 22.815
9.1045 22.956
9.1197 22.885
9.1349 23.081
9.1501 23.263
9.1652 23.078
9.1804 22.978
9.1956 23.258
9.2108 23.178
9.2259 23.180
9.2411 23.220
9.2563 22.548
9.2715 22.562
9.2866 22.803
9.3018 23.025
9.3170 23.200
9.3322 23.176
9.3473 23.075
9.3625 23.077
9.3777 23.001
9.3929 23.217
9.4080 23.123
9.4232 23.159
9.4384 22.863
9.4536 22.813
9.4687 23.340
9.4839 23.271
9.4991 23.227
9.5143 23.214
9.5294 23.346
9.5446 22.957
9.5598 22.791
9.5750 23.180
9.5901 23.460
9.6053 23.575
9.6205 23.770
9.6357 23.835
9.6508 23.596
9.6660 23.627
9.6812 23.803
9.6964 23.856
9.7115 24.070
9.7267 23.916
9.7419 23.746
9.7571 23.746
9.7722 23.899
9.7874 24.171
9.8026 24.113
9.8178 23.617
9.8329 23.323
9.8481 23.509
9.8633 23.666
9.8785 23.317
9.8936 23.104
9.9088 23.374
9.9240 23.595
9.9392 23.615
9.9543 23.740
9.9695 23.837
9.9847 23.659
9.9999 23.598
10.0150 23.703
10.0302 23.937
10.0454 23.878
10.0606 23.581
10.0757 23.578
10.0909 23.898
10.1061 24.170
10.1213 23.925
10.1364 24.062
10.1516 24.133
10.1668 24.030
10.1820 23.877
10.1971 23.770
10.2123 24.424
10.2275 24.634
10.2427 24.292
10.2578 24.135
10.2730 24.196
10.2882 23.983
10.3034 23.664
10.3185 23.712
10.3337 23.488
10.3489 23.288
10.3641 23.101
10.3792 22.903
10.3944 22.565
10.4096 22.877
10.4248 23.114
10.4399 22.803
10.4551 22.489
10.4703 22.695
10.4855 22.827
10.5006 22.726
10.5158 22.741
10.5310 22.638
10.5462 22.968
10.5613 22.965
10.5765 22.546
10.5917 22.623
10.6069 22.576
10.6220 22.542
10.6372 22.691
10.6524 22.739
10.6676 22.815
10.6827 22.698
10.6979 22.710
10.7131 22.462
10.7283 22.810
10.7434 22.871
10.7586 22.541
10.7738 22.584
10.7890 22.595
10.8041 22.592
10.8193 22.373
10.8345 22.519
10.8497 22.560
10.8648 22.430
10.8800 22.087
10.8952 22.179
10.9104 22.083
10.9255 21.909
10.9407 22.211
10.9559 22.277
10.9711 22.496
10.9862 22.284
11.0014 22.133
11.0166 22.169
11.0318 21.981
11.0469 21.915
11.0621 21.994
11.0773 21.981
11.0925 22.103
11.1076 21.868
11.1228 21.769
11.1380 21.917
11.1532 21.576
11.1683 21.747
11.1835 21.952
11.1987 21.982
11.2139 22.183
11.2290 22.015
11.2442 21.872
11.2594 22.071
11.2746 21.993
11.2897 21.793
11.3049 21.696
11.3201 21.849
11.3353 21.591
11.3504 21.119
11.3656 21.320
11.3808 21.466
11.3960 21.397
11.4111 21.049
11.4263 21.219
11.4415 21.326
11.4567 21.498
11.4718 21.494
11.4870 21.134
11.5022 20.925
11.5174 21.048
11.5325 20.877
11.5477 20.930
11.5629 21.047
11.5781 20.873
11.5932 20.734
11.6084 20.906
11.6236 20.748
11.6388 20.919
11.6539 20.883
11.6691 20.726
11.6843 20.459
11.6995 20.527
11.7146 20.536
11.7298 20.319
11.7450 20.211
11.7602 20.298
11.7753 20.897
11.7905 20.420
11.8057 20.359
11.8209 20.166
11.8360 19.643
11.8512 19.725
11.8664 19.846
11.8816 19.505
11.8967 19.699
11.9119 19.544
11.9271 19.475
11.9423 19.484
11.9574 19.245
11.9726 19.183
11.9878 19.314
12.0030 19.474
12.0181 19.244
12.0333 19.092
12.0485 19.068
12.0637 18.901
12.0788 18.911
12.0940 18.931
12.1092 18.886
12.1244 18.890
12.1395 18.682
12.1547 18.667
12.1699 18.569
12.1851 18.574
12.2002 18.381
12.2154 18.233
12.2306 17.940
12.2458 17.783
12.2609 17.896
12.2761 17.765
12.2913 17.668
12.3065 17.503
12.3216 17.630
12.3368 17.799
12.3520 17.661
12.3672 17.702
12.3823 17.349
12.3975 17.280
12.4127 17.198
12.4279 17.211
12.4430 17.020
12.4582 17.236
12.4734 17.116
12.4886 17.001
12.5037 16.772
12.5189 16.959
12.5341 16.939
12.5493 16.576
12.5644 16.579
12.5796 16.358
12.5948 16.176
12.6100 16.034
12.6251 16.080
12.6403 15.989
12.6555 15.957
12.6707 15.824
12.6858 15.752
12.7010 15.797
12.7162 15.467
12.7314 15.471
12.7465 15.579
12.7617 15.337
12.7769 15.286
12.7921 15.393
12.8072 15.248
12.8224 14.986
12.8376 15.075
12.8528 15.065
12.8679 14.972
12.8831 15.036
12.8983 15.110
12.9135 14.899
12.9286 14.835
12.9438 14.439
12.9590 14.431
12.9742 14.749
12.9893 14.390
13.0045 14.244
13.0197 14.516
13.0349 14.580
13.0500 14.269
13.0652 13.981
13.0804 13.957
13.0956 13.960
13.1107 13.854
13.1259 13.755
13.1411 13.789
13.1563 13.838
13.1714 13.757
13.1866 13.530
13.2018 13.151
13.2170 13.243
13.2321 13.544
13.2473 13.486
13.2625 13.358
13.2777 13.202
13.2928 13.237
13.3080 13.174
13.3232 13.056
13.3384 13.105
13.3535 12.960
13.3687 12.804
13.3839 12.807
13.3991 12.801
13.4142 12.810
13.4294 12.758
13.4446 12.727
13.4598 12.605
13.4749 12.360
13.4901 12.445
13.5053 12.477
13.5205 12.396
13.5356 12.316
13.5508 12.319
13.5660 12.258
13.5812 12.150
13.5963 12.057
13.6115 12.070
13.6267 12.443
13.6419 12.450
13.6570 12.247
13.6722 12.033
13.6874 12.128
13.7026 12.223
13.7177 11.982
13.7329 12.067
13.7481 12.335
13.7633 11.969
13.7784 11.760
13.7936 11.709
13.8088 12.040
13.8239 12.186
13.8391 12.221
13.8543 12.139
13.8695 12.192
13.8846 12.060
13.8998 12.168
13.9150 12.223
13.9302 12.157
13.9453 12.134
13.9605 11.992
13.9757 11.685
13.9909 11.470
14.0060 11.609
14.0212 11.457
14.0364 11.543
14.0516 11.460
14.0667 11.320
14.0819 11.175
14.0971 11.475
14.1123 11.321
14.1274 11.427
14.1426 11.479
14.1578 11.572
14.1730 11.574
14.1881 11.556
14.2033 11.622
14.2185 11.816
14.2337 11.774
14.2488 12.027
14.2640 12.288
14.2792 12.196
14.2944 12.309
14.3095 12.506
14.3247 12.364
14.3399 12.623
14.3551 12.573
14.3702 12.725
14.3854 13.115
14.4006 13.090
14.4158 13.262
14.4309 12.840
14.4461 13.151
14.4613 13.122
14.4765 13.025
14.4916 12.741
14.5068 12.581
14.5220 12.543
14.5372 12.220
14.5523 11.886
14.5675 11.813
14.5827 11.682
14.5979 11.687
14.6130 11.753
14.6282 11.479
14.6434 11.455
14.6586 11.372
14.6737 11.000
14.6889 11.201
14.7041 11.378
14.7193 10.879
14.7344 11.031
14.7496 10.884
14.7648 11.045
14.7800 10.834
14.7951 10.898
14.8103 10.840
14.8255 10.524
14.8407 10.320
14.8558 10.609
14.8710 10.582
14.8862 10.831
14.9014 10.477
14.9165 10.577
14.9317 10.756
14.9469 10.808
14.9621 10.678
14.9772 10.422
14.9924 10.846
15.0076 10.423
15.0228 10.625
15.0379 10.529
15.0531 10.439
15.0683 10.743
15.0835 10.761
15.0986 10.446
15.1138 10.815
15.1290 10.620
15.1442 10.746
15.1593 10.816
15.1745 10.253
15.1897 10.420
15.2049 10.577
15.2200 10.495
15.2352 10.626
15.2504 10.522
15.2656 10.362
15.2807 10.198
15.2959 10.243
15.3111 10.463
15.3263 10.341
15.3414 10.074
15.3566 10.574
15.3718 10.153
15.3870 10.457
15.4021 10.507
15.4173 10.149
15.4325 10.793
15.4477 10.621
15.4628 10.398
15.4780 10.553
15.4932 10.511
15.5084 10.485
15.5235 10.291
15.5387 10.218
15.5539 10.457
15.5691 10.312
15.5842 10.087
15.5994 10.323
15.6146 10.160
15.6298 10.162
15.6449 10.009
15.6601 10.003
15.6753 10.042
15.6905 9.975
15.7056 9.963
15.7208 9.693
15.7360 10.043
15.7512 10.051
15.7663 10.058
15.7815 9.745
15.7967 9.784
15.8119 9.774
15.8270 9.967
15.8422 9.780
15.8574 9.915
15.8726 9.677
15.8877 9.800
15.9029 9.588
15.9181 9.885
15.9333 9.771
15.9484 9.751
15.9636 9.691
15.9788 9.842
15.9940 9.747
16.0091 9.610
16.0243 9.981
16.0395 9.741
16.0547 9.550
16.0698 9.920
16.0850 9.746
16.1002 9.787
16.1154 9.961
16.1305 9.886
16.1457 9.841
16.1609 9.602
16.1761 9.513
16.1912 9.794
16.2064 9.917
16.2216 9.674
16.2368 9.875
16.2519 9.959
16.2671 9.724
16.2823 9.923
16.2975 10.075
16.3126 10.195
16.3278 10.123
16.3430 10.141
16.3582 10.027
16.3733 10.186
16.3885 9.961
16.4037 9.852
16.4189 9.940
16.4340 9.996
16.4492 9.858
16.4644 9.786
16.4796 9.684
16.4947 9.689
16.5099 9.760
16.5251 9.648
16.5403 9.629
16.5554 9.583
16.5706 9.626
16.5858 9.422
16.6010 9.440
16.6161 9.562
16.6313 9.610
16.6465 9.788
16.6617 9.769
16.6768 9.761
16.6920 9.782
16.7072 10.111
16.7224 10.021
16.7375 9.959
16.7527 9.965
16.7679 9.907
16.7831 9.822
16.7982 10.028
16.8134 10.176
16.8286 10.006
16.8438 9.899
16.8589 9.898
16.8741 9.826
16.8893 9.764
16.9045 9.822
16.9196 9.825
16.9348 9.827
16.9500 9.831
16.9652 9.955
16.9803 10.123
16.9955 10.073
17.0107 10.013
17.0259 10.238
17.0410 10.251
17.0562 10.395
17.0714 10.235
17.0866 10.230
17.1017 10.600
17.1169 10.761
17.1321 10.853
17.1473 11.405
17.1624 11.757
17.1776 12.105
17.1928 12.739
17.2080 13.590
17.2231 15.155
17.2383 16.614
17.2535 17.616
17.2687 18.420
17.2838 18.561
17.2990 17.937
17.3142 17.237
17.3294 16.601
17.3445 16.266
17.3597 16.116
17.3749 15.709
17.3901 15.056
17.4052 14.184
17.4204 13.290
17.4356 12.554
17.4508 11.924
17.4659 11.553
17.4811 11.608
17.4963 11.700
17.5115 11.569
17.5266 11.440
17.5418 11.552
17.5570 11.305
17.5722 11.285
17.5873 11.786
17.6025 11.753
17.6177 11.321
17.6329 11.026
17.6480 10.937
17.6632 10.819
17.6784 11.080
17.6936 11.077
17.7087 10.797
17.7239 10.944
17.7391 10.857
17.7543 10.889
17.7694 10.925
17.7846 10.755
17.7998 10.889
17.8150 10.952
17.8301 10.910
17.8453 10.991
17.8605 10.812
17.8757 10.841
17.8908 11.002
17.9060 11.012
17.9212 10.896
17.9364 10.639
17.9515 10.499
17.9667 10.528
17.9819 10.522
17.9971 10.609
18.0122 10.417
18.0274 10.110
18.0426 10.211
18.0578 10.261
18.0729 10.258
18.0881 10.163
18.1033 9.953
18.1185 9.993
18.1336 9.987
18.1488 10.025
18.1640 10.060
18.1792 10.134
18.1943 10.063
18.2095 10.037
18.2247 9.735
18.2399 9.715
18.2550 9.719
18.2702 9.814
18.2854 9.793
18.3006 9.813
18.3157 10.010
18.3309 10.085
18.3461 9.772
18.3613 9.809
18.3764 9.928
18.3916 9.809
18.4068 9.714
18.4220 9.552
18.4371 9.671
18.4523 9.785
18.4675 9.663
18.4827 9.761
18.4978 9.839
18.5130 9.863
18.5282 9.672
18.5434 9.857
18.5585 9.815
18.5737 9.584
18.5889 9.722
18.6041 9.802
18.6192 9.735
18.6344 9.721
18.6496 9.664
18.6648 9.694
18.6799 9.788
18.6951 9.940
18.7103 9.931
18.7255 9.817
18.7406 9.794
18.7558 9.557
18.7710 9.656
18.7862 10.101
18.8013 9.990
18.8165 9.715
18.8317 9.725
18.8469 9.836
18.8620 9.910
18.8772 9.774
18.8924 9.795
18.9076 9.971
18.9227 10.039
18.9379 10.018
18.9531 9.930
18.9683 9.887
18.9834 10.129
18.9986 10.209
19.0138 10.070
19.0290 10.213
19.0441 10.330
19.0593 10.166
19.0745 10.123
19.0897 10.069
19.1048 10.206
19.1200 10.444
19.1352 10.379
19.1504 10.374
19.1655 10.463
19.1807 10.492
19.1959 10.651
19.2111 10.687
19.2262 10.744
19.2414 10.950
19.2566 10.859
19.2718 10.848
19.2869 11.162
19.3021 10.956
19.3173 10.982
19.3325 10.794
19.3476 11.007
19.3628 11.253
19.3780 11.110
19.3932 11.226
19.4083 11.384
19.4235 11.127
19.4387 10.887
19.4539 11.108
19.4690 11.448
19.4842 11.642
19.4994 11.463
19.5146 11.354
19.5297 11.606
19.5449 11.666
19.5601 11.566
19.5753 11.593
19.5904 11.439
19.6056 11.445
19.6208 11.638
19.6360 11.579
19.6511 11.434
19.6663 11.543
19.6815 11.631
19.6967 11.674
19.7118 11.708
19.7270 11.522
19.7422 11.664
19.7574 11.625
19.7725 11.682
19.7877 11.929
19.8029 11.955
19.8180 12.139
19.8332 12.211
19.8484 12.183
19.8636 12.275
19.8787 12.593
19.8939 12.953
19.9091 13.192
19.9243 13.530
19.9394 13.619
19.9546 13.897
19.9698 14.221
19.9850 14.317
20.0001 14.211
20.0153 14.170
20.0305 13.891
20.0457 13.695
20.0608 13.834
20.0760 13.624
20.0912 13.232
20.1064 13.437
20.1215 13.491
20.1367 13.344
20.1519 13.223
20.1671 13.041
20.1822 12.834
20.1974 12.619
20.2126 12.633
20.2278 12.989
20.2429 12.796
20.2581 12.377
20.2733 12.419
20.2885 12.114
20.3036 12.074
20.3188 11.954
20.3340 11.879
20.3492 11.833
20.3643 11.706
20.3795 11.521
20.3947 11.608
20.4099 11.472
20.4250 11.221
20.4402 10.877
20.4554 10.837
20.4706 10.804
20.4857 10.621
20.5009 10.625
20.5161 10.879
20.5313 10.879
20.5464 10.955
20.5616 10.811
20.5768 10.820
20.5920 10.995
20.6071 11.030
20.6223 11.124
20.6375 10.987
20.6527 10.644
20.6678 10.530
20.6830 10.470
20.6982 10.597
20.7134 10.628
20.7285 10.678
20.7437 10.579
20.7589 10.383
20.7741 10.634
20.7892 10.540
20.8044 10.754
20.8196 10.551
20.8348 10.330
20.8499 10.025
20.8651 10.592
20.8803 10.343
20.8955 10.510
20.9106 10.045
20.9258 10.057
20.9410 10.195
20.9562 10.171
20.9713 10.360
20.9865 10.205
21.0017 10.012
21.0169 10.177
21.0320 10.216
21.0472 9.933
21.0624 10.035
21.0776 9.958
21.0927 10.179
21.1079 9.976
21.1231 10.117
21.1383 9.793
21.1534 9.361
21.1686 10.108
21.1838 9.598
21.1990 9.791
21.2141 9.832
21.2293 9.620
21.2445 9.581
21.2597 9.745
21.2748 9.383
21.2900 9.686
21.3052 9.462
21.3204 9.390
21.3355 9.564
21.3507 9.395
21.3659 9.686
21.3811 9.771
21.3962 9.439
21.4114 9.491
21.4266 9.691
21.4418 9.308
21.4569 9.306
21.4721 9.414
21.4873 9.382
21.5025 9.382
21.5176 9.368
21.5328 9.387
21.5480 9.447
21.5632 9.325
21.5783 9.171
21.5935 9.367
21.6087 9.384
21.6239 9.235
21.6390 8.862
21.6542 8.916
21.6694 9.099
21.6846 9.406
21.6997 9.269
21.7149 8.983
21.7301 9.022
21.7453 8.938
21.7604 8.796
21.7756 8.853
21.7908 9.030
21.8060 9.072
21.8211 8.872
21.8363 8.855
21.8515 9.118
21.8667 9.125
21.8818 9.046
21.8970 9.281
21.9122 9.145
21.9274 8.798
21.9425 8.713
21.9577 8.958
21.9729 8.970
21.9881 8.908
22.0032 8.891
22.0184 8.839
22.0336 8.743
22.0488 8.728
22.0639 8.914
22.0791 8.912
22.0943 8.806
22.1095 8.694
22.1246 8.757
22.1398 8.723
22.1550 8.588
22.1702 8.488
22.1853 8.523
22.2005 8.842
22.2157 8.895
22.2309 8.723
22.2460 8.572
22.2612 8.384
22.2764 8.508
22.2916 8.449
22.3067 8.440
22.3219 8.679
22.3371 8.527
22.3523 8.411
22.3674 8.518
22.3826 8.357
22.3978 8.488
22.4130 8.461
22.4281 8.266
22.4433 8.480
22.4585 8.512
22.4737 8.454
22.4888 8.411
22.5040 8.510
22.5192 8.407
22.5344 8.502
22.5495 8.498
22.5647 8.549
22.5799 8.290
22.5951 8.529
22.6102 8.511
22.6254 8.423
22.6406 8.563
22.6558 8.393
22.6709 8.652
22.6861 8.327
22.7013 8.388
22.7165 8.087
22.7316 6.590
