'Id: "" Comment: "" Operator: "Lab Manager" Anode: "Mo" Scantype: "Still (Eiger2R_500K (1D mode))" TimePerStep: "300" X: "11.8" Y: "9.4" Z: "11.284" 
7.2532 18.714
7.2684 18.762
7.2836 19.160
7.2987 18.855
7.3139 19.126
7.3291 19.160
7.3443 18.872
7.3594 19.280
7.3746 19.731
7.3898 19.531
7.4050 19.449
7.4201 19.143
7.4353 19.649
7.4505 19.704
7.4657 19.372
7.4808 19.300
7.4960 19.246
7.5112 19.635
7.5264 19.595
7.5415 19.206
7.5567 19.823
7.5719 19.815
7.5871 19.926
7.6022 19.923
7.6174 20.072
7.6326 20.068
7.6478 20.109
7.6629 20.131
7.6781 20.430
7.6933 20.192
7.7085 20.676
7.7236 20.819
7.7388 20.275
7.7540 20.252
7.7692 20.408
7.7843 20.125
7.7995 20.047
7.8147 20.598
7.8299 20.467
7.8450 20.392
7.8602 20.698
7.8754 20.581
7.8905 20.358
7.9057 20.591
7.9209 20.628
7.9361 20.648
7.9512 20.814
7.9664 20.741
7.9816 20.832
7.9968 20.919
8.0119 21.052
8.0271 20.650
8.0423 20.949
8.0575 21.207
8.0726 21.036
8.0878 20.859
8.1030 20.743
8.1182 21.147
8.1333 20.768
8.1485 21.074
8.1637 21.275
8.1789 21.486
8.1940 21.411
8.2092 21.442
8.2244 21.553
8.2396 21.108
8.2547 21.689
8.2699 21.782
8.2851 21.680
8.3003 21.523
8.3154 21.867
8.3306 21.701
8.3458 21.624
8.3610 21.288
8.3761 21.890
8.3913 22.078
8.4065 22.179
8.4217 21.976
8.4368 22.084
8.4520 21.787
8.4672 22.145
8.4824 22.369
8.4975 21.922
8.5127 22.408
8.5279 22.545
8.5431 21.799
8.5582 21.888
8.5734 21.939
8.5886 22.297
8.6038 22.257
8.6189 22.552
8.6341 21.958
8.6493 21.802
8.6645 22.213
8.6796 22.499
8.6948 21.499
8.7100 21.965
8.7252 22.062
8.7403 22.104
8.7555 22.374
8.7707 22.542
8.7859 22.547
8.8010 22.642
8.8162 22.603
8.8314 22.593
8.8466 22.423
8.8617 22.147
8.8769 22.339
8.8921 22.232
8.9073 22.464
8.9224 21.924
8.9376 22.333
8.9528 22.649
8.9680 22.298
8.9831 22.343
8.9983 22.165
9.0135 22.722
9.0287 22.239
9.0438 22.839
9.0590 22.886
9.0742 22.920
9.0894 22.804
9.1045 22.885
9.1197 22.737
9.1349 23.083
9.1501 22.656
9.1652 22.663
9.1804 22.933
9.1956 22.875
9.2108 22.943
9.2259 22.973
9.2411 23.203
9.2563 23.015
9.2715 22.830
9.2866 22.479
9.3018 22.281
9.3170 22.503
9.3322 22.903
9.3473 22.804
9.3625 22.480
9.3777 22.897
9.3929 23.239
9.4080 22.950
9.4232 22.728
9.4384 22.753
9.4536 22.746
9.4687 22.770
9.4839 23.255
9.4991 23.651
9.5143 23.463
9.5294 23.035
9.5446 22.994
9.5598 23.297
9.5750 23.241
9.5901 23.044
9.6053 23.059
9.6205 23.061
9.6357 23.029
9.6508 23.403
9.6660 23.662
9.6812 23.497
9.6964 23.553
9.7115 23.800
9.7267 23.763
9.7419 23.972
9.7571 23.861
9.7722 23.804
9.7874 23.674
9.8026 23.695
9.8178 23.603
9.8329 23.263
9.8481 23.028
9.8633 22.911
9.8785 22.997
9.8936 23.065
9.9088 23.227
9.9240 23.092
9.9392 23.029
9.9543 23.247
9.9695 23.274
9.9847 23.104
9.9999 22.845
10.0150 22.993
10.0302 23.259
10.0454 23.436
10.0606 23.454
10.0757 23.630
10.0909 23.446
10.1061 23.144
10.1213 23.367
10.1364 23.150
10.1516 23.619
10.1668 23.692
10.1820 23.443
10.1971 23.003
10.2123 23.199
10.2275 23.451
10.2427 23.162
10.2578 22.936
10.2730 22.560
10.2882 22.729
10.3034 23.008
10.3185 22.989
10.3337 22.959
10.3489 22.752
10.3641 22.628
10.3792 22.732
10.3944 22.948
10.4096 22.621
10.4248 22.673
10.4399 22.800
10.4551 22.624
10.4703 22.467
10.4855 22.678
10.5006 22.484
10.5158 22.588
10.5310 22.709
10.5462 22.643
10.5613 22.403
10.5765 22.295
10.5917 22.257
10.6069 22.003
10.6220 22.500
10.6372 22.476
10.6524 22.006
10.6676 22.640
10.6827 22.550
10.6979 22.135
10.7131 22.592
10.7283 22.926
10.7434 22.708
10.7586 22.171
10.7738 22.012
10.7890 22.174
10.8041 22.024
10.8193 21.788
10.8345 22.186
10.8497 21.957
10.8648 21.875
10.8800 22.391
10.8952 22.071
10.9104 21.988
10.9255 22.139
10.9407 21.998
10.9559 22.077
10.9711 22.080
10.9862 22.059
11.0014 21.842
11.0166 22.193
11.0318 22.151
11.0469 22.149
11.0621 21.785
11.0773 21.007
11.0925 21.365
11.1076 21.867
11.1228 21.660
11.1380 21.711
11.1532 21.732
11.1683 21.406
11.1835 21.551
11.1987 21.581
11.2139 21.738
11.2290 21.933
11.2442 21.747
11.2594 21.511
11.2746 21.527
11.2897 21.633
11.3049 21.414
11.3201 21.406
11.3353 21.490
11.3504 21.225
11.3656 21.605
11.3808 21.204
11.3960 21.063
11.4111 21.273
11.4263 21.294
11.4415 21.321
11.4567 21.547
11.4718 21.223
11.4870 21.095
11.5022 21.202
11.5174 20.998
11.5325 20.765
11.5477 20.799
11.5629 21.079
11.5781 20.926
11.5932 20.728
11.6084 20.651
11.6236 20.389
11.6388 20.354
11.6539 20.501
11.6691 20.816
11.6843 20.618
11.6995 20.473
11.7146 20.699
11.7298 20.646
11.7450 20.429
11.7602 20.377
11.7753 20.547
11.7905 20.333
11.8057 20.224
11.8209 19.949
11.8360 20.031
11.8512 19.808
11.8664 19.642
11.8816 19.784
11.8967 19.442
11.9119 19.428
11.9271 19.384
11.9423 19.247
11.9574 19.331
11.9726 19.368
11.9878 19.417
12.0030 19.323
12.0181 19.113
12.0333 19.342
12.0485 19.212
12.0637 19.114
12.0788 18.941
12.0940 18.763
12.1092 18.607
12.1244 18.392
12.1395 18.358
12.1547 18.350
12.1699 18.356
12.1851 18.376
12.2002 18.326
12.2154 18.101
12.2306 17.715
12.2458 17.337
12.2609 17.955
12.2761 18.085
12.2913 17.958
12.3065 17.487
12.3216 17.544
12.3368 17.296
12.3520 17.222
12.3672 17.139
12.3823 17.074
12.3975 17.081
12.4127 17.049
12.4279 17.152
12.4430 17.122
12.4582 16.817
12.4734 16.585
12.4886 16.872
12.5037 16.921
12.5189 16.397
12.5341 16.185
12.5493 16.058
12.5644 15.871
12.5796 16.023
12.5948 16.014
12.6100 15.895
12.6251 15.976
12.6403 15.981
12.6555 16.069
12.6707 15.811
12.6858 15.469
12.7010 15.489
12.7162 15.492
12.7314 15.482
12.7465 15.383
12.7617 15.036
12.7769 15.204
12.7921 15.295
12.8072 14.932
12.8224 14.666
12.8376 14.818
12.8528 14.986
12.8679 14.611
12.8831 14.703
12.8983 14.591
12.9135 14.517
12.9286 14.651
12.9438 14.384
12.9590 14.311
12.9742 14.349
12.9893 14.293
13.0045 14.195
13.0197 14.205
13.0349 14.132
13.0500 13.862
13.0652 13.917
13.0804 13.870
13.0956 13.675
13.1107 13.707
13.1259 13.859
13.1411 13.882
13.1563 13.568
13.1714 13.658
13.1866 13.676
13.2018 13.404
13.2170 13.285
13.2321 13.116
13.2473 13.257
13.2625 13.686
13.2777 13.737
13.2928 13.279
13.3080 12.955
13.3232 13.056
13.3384 13.142
13.3535 12.976
13.3687 12.950
13.3839 12.941
13.3991 13.023
13.4142 12.884
13.4294 12.794
13.4446 12.800
13.4598 12.613
13.4749 12.466
13.4901 12.549
13.5053 12.662
13.5205 12.493
13.5356 12.380
13.5508 12.310
13.5660 12.384
13.5812 12.186
13.5963 11.966
13.6115 12.054
13.6267 12.041
13.6419 12.172
13.6570 12.370
13.6722 12.496
13.6874 12.344
13.7026 12.126
13.7177 11.913
13.7329 11.917
13.7481 11.975
13.7633 12.281
13.7784 12.199
13.7936 12.026
13.8088 12.051
13.8239 12.030
13.8391 12.249
13.8543 12.124
13.8695 12.195
13.8846 12.074
13.8998 12.017
13.9150 11.876
13.9302 11.902
13.9453 12.014
13.9605 11.686
13.9757 11.541
13.9909 11.476
14.0060 11.566
14.0212 11.767
14.0364 11.968
14.0516 11.629
14.0667 11.585
14.0819 11.711
14.0971 11.627
14.1123 11.110
14.1274 11.178
14.1426 11.698
14.1578 11.603
14.1730 11.457
14.1881 11.645
14.2033 11.379
14.2185 11.510
14.2337 11.481
14.2488 11.420
14.2640 11.548
14.2792 11.844
14.2944 11.967
14.3095 12.008
14.3247 12.129
14.3399 12.430
14.3551 12.814
14.3702 13.202
14.3854 13.083
14.4006 13.362
14.4158 13.387
14.4309 13.298
14.4461 13.076
14.4613 13.018
14.4765 12.941
14.4916 12.276
14.5068 12.383
14.5220 11.966
14.5372 11.784
14.5523 11.471
14.5675 11.363
14.5827 11.253
14.5979 10.954
14.6130 11.201
14.6282 10.766
14.6434 10.940
14.6586 10.657
14.6737 10.982
14.6889 10.663
14.7041 10.435
14.7193 10.866
14.7344 10.489
14.7496 10.459
14.7648 10.640
14.7800 10.951
14.7951 10.416
14.8103 10.394
14.8255 10.516
14.8407 10.411
14.8558 10.575
14.8710 10.480
14.8862 10.417
14.9014 10.424
14.9165 10.822
14.9317 10.709
14.9469 10.421
14.9621 10.184
14.9772 10.339
14.9924 10.307
15.0076 10.306
15.0228 10.549
15.0379 10.430
15.0531 10.413
15.0683 10.387
15.0835 10.020
15.0986 10.635
15.1138 10.488
15.1290 10.364
15.1442 10.380
15.1593 10.139
15.1745 10.303
15.1897 10.295
15.2049 10.313
15.2200 9.961
15.2352 10.250
15.2504 10.143
15.2656 10.197
15.2807 10.437
15.2959 10.223
15.3111 10.065
15.3263 10.208
15.3414 10.092
15.3566 10.324
15.3718 10.312
15.3870 9.958
15.4021 10.138
15.4173 10.279
15.4325 10.063
15.4477 10.222
15.4628 10.076
15.4780 9.772
15.4932 10.022
15.5084 10.035
15.5235 9.785
15.5387 9.842
15.5539 10.170
15.5691 9.837
15.5842 9.789
15.5994 9.982
15.6146 9.964
15.6298 9.524
15.6449 9.844
15.6601 9.733
15.6753 9.911
15.6905 9.748
15.7056 9.607
15.7208 9.697
15.7360 9.670
15.7512 9.698
15.7663 9.745
15.7815 9.791
15.7967 9.808
15.8119 9.443
15.8270 9.912
15.8422 9.836
15.8574 9.567
15.8726 9.638
15.8877 9.607
15.9029 9.532
15.9181 9.749
15.9333 9.649
15.9484 9.417
15.9636 9.514
15.9788 9.544
15.9940 9.566
16.0091 9.562
16.0243 9.216
16.0395 9.364
16.0547 9.447
16.0698 9.522
16.0850 9.782
16.1002 9.405
16.1154 9.580
16.1305 9.573
16.1457 9.454
16.1609 9.340
16.1761 9.792
16.1912 9.611
16.2064 9.774
16.2216 9.733
16.2368 9.987
16.2519 9.781
16.2671 9.674
16.2823 9.973
16.2975 10.018
16.3126 9.813
16.3278 10.001
16.3430 9.824
16.3582 9.855
16.3733 9.979
16.3885 9.697
16.4037 9.604
16.4189 9.455
16.4340 9.511
16.4492 9.743
16.4644 9.706
16.4796 9.536
16.4947 9.596
16.5099 9.850
16.5251 9.549
16.5403 9.590
16.5554 9.840
16.5706 9.778
16.5858 9.635
16.6010 9.404
16.6161 9.474
16.6313 9.553
16.6465 9.650
16.6617 9.669
16.6768 9.701
16.6920 9.720
16.7072 9.783
16.7224 9.913
16.7375 9.965
16.7527 9.831
16.7679 9.821
16.7831 9.717
16.7982 9.787
16.8134 9.929
16.8286 9.792
16.8438 9.857
16.8589 9.880
16.8741 9.708
16.8893 9.617
16.9045 9.738
16.9196 9.432
16.9348 9.479
16.9500 9.805
16.9652 9.862
16.9803 9.698
16.9955 9.570
17.0107 9.870
17.0259 10.058
17.0410 9.787
17.0562 9.952
17.0714 10.095
17.0866 10.158
17.1017 10.440
17.1169 10.520
17.1321 10.725
17.1473 11.069
17.1624 11.372
17.1776 11.883
17.1928 12.732
17.2080 13.669
17.2231 14.734
17.2383 16.128
17.2535 17.394
17.2687 18.239
17.2838 18.490
17.2990 17.580
17.3142 16.481
17.3294 16.117
17.3445 15.976
17.3597 15.634
17.3749 15.566
17.3901 15.309
17.4052 14.200
17.4204 13.066
17.4356 12.272
17.4508 11.969
17.4659 11.533
17.4811 11.236
17.4963 11.297
17.5115 11.158
17.5266 10.896
17.5418 10.756
17.5570 11.050
17.5722 11.066
17.5873 11.078
17.6025 10.927
17.6177 10.697
17.6329 11.076
17.6480 11.173
17.6632 11.320
17.6784 12.007
17.6936 12.112
17.7087 11.818
17.7239 11.980
17.7391 11.791
17.7543 11.423
17.7694 11.443
17.7846 11.364
17.7998 11.189
17.8150 11.211
17.8301 11.136
17.8453 10.854
17.8605 10.648
17.8757 10.471
17.8908 10.441
17.9060 10.380
17.9212 10.302
17.9364 10.344
17.9515 10.138
17.9667 10.065
17.9819 10.070
17.9971 10.273
18.0122 10.131
18.0274 10.191
18.0426 10.447
18.0578 10.307
18.0729 10.134
18.0881 10.087
18.1033 10.096
18.1185 10.022
18.1336 10.076
18.1488 9.982
18.1640 9.816
18.1792 9.785
18.1943 9.944
18.2095 9.913
18.2247 9.941
18.2399 9.943
18.2550 9.968
18.2702 9.785
18.2854 9.849
18.3006 9.883
18.3157 9.783
18.3309 9.765
18.3461 9.662
18.3613 9.662
18.3764 9.691
18.3916 9.850
18.4068 9.765
18.4220 9.682
18.4371 9.975
18.4523 9.968
18.4675 9.968
18.4827 9.742
18.4978 9.747
18.5130 9.860
18.5282 9.711
18.5434 9.803
18.5585 10.082
18.5737 10.007
18.5889 10.043
18.6041 10.004
18.6192 9.816
18.6344 9.760
18.6496 9.743
18.6648 9.759
18.6799 9.573
18.6951 9.688
18.7103 10.018
18.7255 10.006
18.7406 9.838
18.7558 9.706
18.7710 9.743
18.7862 9.765
18.8013 9.622
18.8165 9.666
18.8317 9.648
18.8469 9.736
18.8620 9.917
18.8772 9.948
18.8924 9.900
18.9076 9.926
18.9227 9.888
18.9379 9.817
18.9531 9.966
18.9683 10.117
18.9834 10.125
18.9986 10.065
19.0138 10.134
19.0290 10.265
19.0441 10.464
19.0593 10.380
19.0745 10.421
19.0897 10.374
19.1048 10.105
19.1200 10.029
19.1352 9.995
19.1504 10.021
19.1655 10.746
19.1807 10.679
19.1959 10.275
19.2111 10.656
19.2262 10.998
19.2414 10.873
19.2566 10.917
19.2718 11.063
19.2869 10.817
19.3021 10.807
19.3173 10.826
19.3325 10.882
19.3476 10.829
19.3628 10.745
19.3780 11.137
19.3932 11.491
19.4083 11.367
19.4235 11.327
19.4387 11.206
19.4539 11.167
19.4690 11.361
19.4842 11.449
19.4994 11.519
19.5146 11.334
19.5297 11.300
19.5449 11.526
19.5601 11.496
19.5753 11.545
19.5904 11.525
19.6056 11.486
19.6208 11.536
19.6360 11.483
19.6511 11.658
19.6663 11.622
19.6815 11.419
19.6967 11.620
19.7118 11.627
19.7270 11.522
19.7422 11.684
19.7574 11.806
19.7725 11.800
19.7877 11.892
19.8029 12.190
19.8180 12.252
19.8332 12.093
19.8484 12.143
19.8636 12.311
19.8787 12.577
19.8939 12.758
19.9091 12.971
19.9243 13.360
19.9394 13.609
19.9546 13.745
19.9698 14.152
19.9850 14.410
20.0001 14.087
20.0153 13.991
20.0305 13.956
20.0457 13.754
20.0608 13.708
20.0760 13.872
20.0912 13.708
20.1064 13.527
20.1215 13.528
20.1367 13.013
20.1519 12.853
20.1671 12.835
20.1822 12.708
20.1974 12.610
20.2126 12.792
20.2278 12.754
20.2429 12.850
20.2581 12.645
20.2733 12.174
20.2885 12.034
20.3036 11.840
20.3188 11.946
20.3340 12.151
20.3492 12.193
20.3643 11.883
20.3795 11.535
20.3947 11.584
20.4099 11.876
20.4250 11.843
20.4402 12.068
20.4554 12.189
20.4706 12.156
20.4857 12.002
20.5009 11.970
20.5161 12.015
20.5313 12.004
20.5464 11.749
20.5616 11.603
20.5768 11.582
20.5920 11.432
20.6071 11.557
20.6223 11.475
20.6375 11.113
20.6527 10.871
20.6678 10.733
20.6830 10.554
20.6982 10.464
20.7134 10.699
20.7285 10.436
20.7437 10.413
20.7589 10.493
20.7741 10.365
20.7892 10.408
20.8044 10.535
20.8196 10.293
20.8348 10.054
20.8499 9.964
20.8651 10.067
20.8803 10.135
20.8955 10.209
20.9106 10.220
20.9258 10.327
20.9410 10.203
20.9562 10.076
20.9713 10.053
20.9865 10.228
21.0017 10.246
21.0169 10.087
21.0320 10.045
21.0472 9.912
21.0624 9.785
21.0776 9.918
21.0927 9.810
21.1079 9.761
21.1231 9.755
21.1383 9.873
21.1534 9.883
21.1686 9.663
21.1838 9.502
21.1990 9.594
21.2141 10.066
21.2293 9.489
21.2445 9.449
21.2597 9.454
21.2748 9.814
21.2900 9.625
21.3052 9.537
21.3204 9.892
21.3355 9.434
21.3507 9.266
21.3659 9.227
21.3811 9.456
21.3962 9.616
21.4114 9.494
21.4266 9.259
21.4418 9.348
21.4569 9.347
21.4721 9.364
21.4873 9.333
21.5025 9.760
21.5176 9.484
21.5328 9.135
21.5480 9.267
21.5632 9.294
21.5783 9.351
21.5935 9.284
21.6087 9.322
21.6239 9.212
21.6390 9.290
21.6542 8.937
21.6694 9.034
21.6846 9.252
21.6997 9.269
21.7149 9.010
21.7301 9.071
21.7453 8.973
21.7604 9.026
21.7756 8.998
21.7908 9.018
21.8060 8.741
21.8211 9.001
21.8363 9.054
21.8515 8.864
21.8667 8.983
21.8818 8.911
21.8970 9.095
21.9122 9.097
21.9274 8.947
21.9425 8.961
21.9577 8.941
21.9729 9.175
21.9881 9.054
22.0032 8.762
22.0184 8.890
22.0336 8.898
22.0488 8.849
22.0639 8.802
22.0791 8.868
22.0943 8.795
22.1095 8.578
22.1246 8.444
22.1398 8.485
22.1550 8.621
22.1702 8.461
22.1853 8.435
22.2005 8.401
22.2157 8.572
22.2309 8.730
22.2460 8.409
22.2612 8.205
22.2764 8.370
22.2916 8.516
22.3067 8.270
22.3219 8.448
22.3371 8.648
22.3523 8.668
22.3674 8.244
22.3826 8.403
22.3978 8.213
22.4130 8.417
22.4281 8.441
22.4433 8.430
22.4585 8.441
22.4737 8.376
22.4888 8.199
22.5040 8.248
22.5192 8.421
22.5344 8.272
22.5495 8.245
22.5647 8.171
22.5799 8.141
22.5951 8.518
22.6102 8.334
22.6254 8.437
22.6406 8.455
22.6558 8.246
22.6709 8.309
22.6861 8.072
22.7013 8.083
22.7165 8.010
22.7316 6.529
