'Id: "" Comment: "" Operator: "Lab Manager" Anode: "Mo" Scantype: "Still (Eiger2R_500K (1D mode))" TimePerStep: "300" X: "11.8" Y: "9.4" Z: "11.284" 
7.2532 19.151
7.2684 18.960
7.2836 18.944
7.2987 19.501
7.3139 19.210
7.3291 19.198
7.3443 19.090
7.3594 18.933
7.3746 19.083
7.3898 19.369
7.4050 19.328
7.4201 18.898
7.4353 19.154
7.4505 19.424
7.4657 19.624
7.4808 19.471
7.4960 19.710
7.5112 19.540
7.5264 19.566
7.5415 19.711
7.5567 19.750
7.5719 19.788
7.5871 19.933
7.6022 19.781
7.6174 19.747
7.6326 19.906
7.6478 20.217
7.6629 20.066
7.6781 20.169
7.6933 20.051
7.7085 20.500
7.7236 20.615
7.7388 20.184
7.7540 20.246
7.7692 20.492
7.7843 20.444
7.7995 20.670
7.8147 20.546
7.8299 20.129
7.8450 20.458
7.8602 20.492
7.8754 20.681
7.8905 20.985
7.9057 20.859
7.9209 20.704
7.9361 20.762
7.9512 20.960
7.9664 21.029
7.9816 20.941
7.9968 21.173
8.0119 21.280
8.0271 21.178
8.0423 20.978
8.0575 20.834
8.0726 21.165
8.0878 21.192
8.1030 21.015
8.1182 21.085
8.1333 21.376
8.1485 21.330
8.1637 21.144
8.1789 21.355
8.1940 21.386
8.2092 21.566
8.2244 21.115
8.2396 21.578
8.2547 21.258
8.2699 21.527
8.2851 21.205
8.3003 21.933
8.3154 21.873
8.3306 21.739
8.3458 21.817
8.3610 21.577
8.3761 21.323
8.3913 21.760
8.4065 22.200
8.4217 21.517
8.4368 21.895
8.4520 21.466
8.4672 22.077
8.4824 22.529
8.4975 21.851
8.5127 22.236
8.5279 21.414
8.5431 22.665
8.5582 22.547
8.5734 21.765
8.5886 22.064
8.6038 22.637
8.6189 22.415
8.6341 22.213
8.6493 22.552
8.6645 22.707
8.6796 22.136
8.6948 22.729
8.7100 22.678
8.7252 22.468
8.7403 22.247
8.7555 22.483
8.7707 22.302
8.7859 22.740
8.8010 22.639
8.8162 22.359
8.8314 22.344
8.8466 22.371
8.8617 22.040
8.8769 22.157
8.8921 22.377
8.9073 22.737
8.9224 22.486
8.9376 22.680
8.9528 22.445
8.9680 22.555
8.9831 22.852
8.9983 23.124
9.0135 22.916
9.0287 22.780
9.0438 22.807
9.0590 22.683
9.0742 22.714
9.0894 22.326
9.1045 22.894
9.1197 22.651
9.1349 22.586
9.1501 22.964
9.1652 22.705
9.1804 22.686
9.1956 23.072
9.2108 23.028
9.2259 22.821
9.2411 23.086
9.2563 23.075
9.2715 22.883
9.2866 22.785
9.3018 22.989
9.3170 23.191
9.3322 23.072
9.3473 23.050
9.3625 22.972
9.3777 22.953
9.3929 23.259
9.4080 23.095
9.4232 22.764
9.4384 22.927
9.4536 23.005
9.4687 22.963
9.4839 23.236
9.4991 23.333
9.5143 23.394
9.5294 23.368
9.5446 23.227
9.5598 23.124
9.5750 23.453
9.5901 23.861
9.6053 23.604
9.6205 23.167
9.6357 23.255
9.6508 23.463
9.6660 23.401
9.6812 23.615
9.6964 23.832
9.7115 23.586
9.7267 23.669
9.7419 23.979
9.7571 24.217
9.7722 24.401
9.7874 23.935
9.8026 23.703
9.8178 23.522
9.8329 23.455
9.8481 23.220
9.8633 22.998
9.8785 23.289
9.8936 23.484
9.9088 23.411
9.9240 23.291
9.9392 23.254
9.9543 23.317
9.9695 23.396
9.9847 23.420
9.9999 23.771
10.0150 23.702
10.0302 23.688
10.0454 23.536
10.0606 22.983
10.0757 23.127
10.0909 23.072
10.1061 23.098
10.1213 23.470
10.1364 23.547
10.1516 23.568
10.1668 23.409
10.1820 23.580
10.1971 23.543
10.2123 23.170
10.2275 23.616
10.2427 23.475
10.2578 23.063
10.2730 22.769
10.2882 22.837
10.3034 23.041
10.3185 23.003
10.3337 22.709
10.3489 22.844
10.3641 22.915
10.3792 22.879
10.3944 22.696
10.4096 22.840
10.4248 22.920
10.4399 22.286
10.4551 22.636
10.4703 22.839
10.4855 22.800
10.5006 22.478
10.5158 22.187
10.5310 22.377
10.5462 22.564
10.5613 22.408
10.5765 22.478
10.5917 22.699
10.6069 22.755
10.6220 22.597
10.6372 22.232
10.6524 22.513
10.6676 22.970
10.6827 22.494
10.6979 22.525
10.7131 22.555
10.7283 22.632
10.7434 22.708
10.7586 22.538
10.7738 22.394
10.7890 22.381
10.8041 22.063
10.8193 22.054
10.8345 21.887
10.8497 22.030
10.8648 22.620
10.8800 22.489
10.8952 22.048
10.9104 22.376
10.9255 22.053
10.9407 22.026
10.9559 22.486
10.9711 22.099
10.9862 21.939
11.0014 21.898
11.0166 22.093
11.0318 22.057
11.0469 21.568
11.0621 22.090
11.0773 21.709
11.0925 22.025
11.1076 21.986
11.1228 21.770
11.1380 21.831
11.1532 22.100
11.1683 21.531
11.1835 21.494
11.1987 21.784
11.2139 21.736
11.2290 22.228
11.2442 21.723
11.2594 21.726
11.2746 21.651
11.2897 21.196
11.3049 21.294
11.3201 21.570
11.3353 21.697
11.3504 21.554
11.3656 21.484
11.3808 21.315
11.3960 21.400
11.4111 21.055
11.4263 21.656
11.4415 21.590
11.4567 21.449
11.4718 21.335
11.4870 21.447
11.5022 21.170
11.5174 20.988
11.5325 21.079
11.5477 20.981
11.5629 20.879
11.5781 20.785
11.5932 20.667
11.6084 20.706
11.6236 20.780
11.6388 21.390
11.6539 21.046
11.6691 20.818
11.6843 20.540
11.6995 20.605
11.7146 20.490
11.7298 20.943
11.7450 20.692
11.7602 20.377
11.7753 20.284
11.7905 20.246
11.8057 20.091
11.8209 19.920
11.8360 19.854
11.8512 19.782
11.8664 19.893
11.8816 20.010
11.8967 20.312
11.9119 19.977
11.9271 19.882
11.9423 19.755
11.9574 19.667
11.9726 19.692
11.9878 19.295
12.0030 18.913
12.0181 18.868
12.0333 19.112
12.0485 19.132
12.0637 19.224
12.0788 19.247
12.0940 19.059
12.1092 18.867
12.1244 18.932
12.1395 18.783
12.1547 18.474
12.1699 18.511
12.1851 18.514
12.2002 18.334
12.2154 18.287
12.2306 18.141
12.2458 17.874
12.2609 17.754
12.2761 17.770
12.2913 17.911
12.3065 17.797
12.3216 17.663
12.3368 17.106
12.3520 17.252
12.3672 17.227
12.3823 17.459
12.3975 17.482
12.4127 17.123
12.4279 17.290
12.4430 17.351
12.4582 17.145
12.4734 17.204
12.4886 16.985
12.5037 16.682
12.5189 16.654
12.5341 16.467
12.5493 16.539
12.5644 16.448
12.5796 16.394
12.5948 16.159
12.6100 15.909
12.6251 15.758
12.6403 15.869
12.6555 15.995
12.6707 16.195
12.6858 16.123
12.7010 15.958
12.7162 15.683
12.7314 15.732
12.7465 15.508
12.7617 15.526
12.7769 15.375
12.7921 15.187
12.8072 15.130
12.8224 15.080
12.8376 15.087
12.8528 14.883
12.8679 14.747
12.8831 14.558
12.8983 14.849
12.9135 14.811
12.9286 14.582
12.9438 14.528
12.9590 14.372
12.9742 14.388
12.9893 14.597
13.0045 14.402
13.0197 14.089
13.0349 14.236
13.0500 14.368
13.0652 14.075
13.0804 14.004
13.0956 14.083
13.1107 13.883
13.1259 13.688
13.1411 13.762
13.1563 13.833
13.1714 13.613
13.1866 13.514
13.2018 13.505
13.2170 13.457
13.2321 13.400
13.2473 13.448
13.2625 13.436
13.2777 13.653
13.2928 13.668
13.3080 13.233
13.3232 13.126
13.3384 13.012
13.3535 13.156
13.3687 13.312
13.3839 13.129
13.3991 13.082
13.4142 13.014
13.4294 12.852
13.4446 12.838
13.4598 12.917
13.4749 13.133
13.4901 13.056
13.5053 12.844
13.5205 12.730
13.5356 12.762
13.5508 12.710
13.5660 12.432
13.5812 12.258
13.5963 12.207
13.6115 12.059
13.6267 12.312
13.6419 12.187
13.6570 12.068
13.6722 12.210
13.6874 12.148
13.7026 12.094
13.7177 12.206
13.7329 12.298
13.7481 12.108
13.7633 11.967
13.7784 12.074
13.7936 12.374
13.8088 12.251
13.8239 12.193
13.8391 12.508
13.8543 12.218
13.8695 12.250
13.8846 12.279
13.8998 12.325
13.9150 12.026
13.9302 12.034
13.9453 11.973
13.9605 11.993
13.9757 11.894
13.9909 11.801
14.0060 11.522
14.0212 11.602
14.0364 11.619
14.0516 11.694
14.0667 11.890
14.0819 11.738
14.0971 11.614
14.1123 11.581
14.1274 11.541
14.1426 11.688
14.1578 11.563
14.1730 11.764
14.1881 12.135
14.2033 11.951
14.2185 11.719
14.2337 11.574
14.2488 11.733
14.2640 11.981
14.2792 11.859
14.2944 12.030
14.3095 12.150
14.3247 12.425
14.3399 12.232
14.3551 12.458
14.3702 12.936
14.3854 12.762
14.4006 13.133
14.4158 13.328
14.4309 13.166
14.4461 12.794
14.4613 12.405
14.4765 12.232
14.4916 12.203
14.5068 11.877
14.5220 11.933
14.5372 11.509
14.5523 11.476
14.5675 11.245
14.5827 10.951
14.5979 11.157
14.6130 10.828
14.6282 10.742
14.6434 10.803
14.6586 10.717
14.6737 10.839
14.6889 10.845
14.7041 10.643
14.7193 10.699
14.7344 10.661
14.7496 10.673
14.7648 10.627
14.7800 10.591
14.7951 10.634
14.8103 10.563
14.8255 10.346
14.8407 10.519
14.8558 10.495
14.8710 10.561
14.8862 10.701
14.9014 10.372
14.9165 10.756
14.9317 10.675
14.9469 10.446
14.9621 10.642
14.9772 10.327
14.9924 10.316
15.0076 10.479
15.0228 10.532
15.0379 10.473
15.0531 10.479
15.0683 10.474
15.0835 10.052
15.0986 10.062
15.1138 10.286
15.1290 10.729
15.1442 10.242
15.1593 10.154
15.1745 9.814
15.1897 10.236
15.2049 10.574
15.2200 10.230
15.2352 10.385
15.2504 10.190
15.2656 10.302
15.2807 10.392
15.2959 10.182
15.3111 10.121
15.3263 10.138
15.3414 10.350
15.3566 10.116
15.3718 10.305
15.3870 10.197
15.4021 10.268
15.4173 10.163
15.4325 10.342
15.4477 10.013
15.4628 10.427
15.4780 10.362
15.4932 10.253
15.5084 10.066
15.5235 9.965
15.5387 10.227
15.5539 10.067
15.5691 9.852
15.5842 9.693
15.5994 9.824
15.6146 10.210
15.6298 10.186
15.6449 9.723
15.6601 9.679
15.6753 10.056
15.6905 9.883
15.7056 10.015
15.7208 9.813
15.7360 9.693
15.7512 9.750
15.7663 9.708
15.7815 9.907
15.7967 9.969
15.8119 9.780
15.8270 9.720
15.8422 9.706
15.8574 9.566
15.8726 9.625
15.8877 9.532
15.9029 9.442
15.9181 9.579
15.9333 9.611
15.9484 9.378
15.9636 9.610
15.9788 9.650
15.9940 9.751
16.0091 9.693
16.0243 9.739
16.0395 9.707
16.0547 9.521
16.0698 9.521
16.0850 9.508
16.1002 9.751
16.1154 9.710
16.1305 9.539
16.1457 9.840
16.1609 9.605
16.1761 9.599
16.1912 9.567
16.2064 9.788
16.2216 9.788
16.2368 9.770
16.2519 9.621
16.2671 9.784
16.2823 9.677
16.2975 9.748
16.3126 9.845
16.3278 9.696
16.3430 9.767
16.3582 9.902
16.3733 9.957
16.3885 9.842
16.4037 9.678
16.4189 9.705
16.4340 9.718
16.4492 9.851
16.4644 9.901
16.4796 9.862
16.4947 9.828
16.5099 9.995
16.5251 9.711
16.5403 9.691
16.5554 9.792
16.5706 9.852
16.5858 9.814
16.6010 9.678
16.6161 9.484
16.6313 9.767
16.6465 9.762
16.6617 9.743
16.6768 9.784
16.6920 9.802
16.7072 9.840
16.7224 10.015
16.7375 9.937
16.7527 9.895
16.7679 9.758
16.7831 9.974
16.7982 10.073
16.8134 9.909
16.8286 10.014
16.8438 9.934
16.8589 9.845
16.8741 9.824
16.8893 9.849
16.9045 10.045
16.9196 10.086
16.9348 9.922
16.9500 9.843
16.9652 9.836
16.9803 9.891
16.9955 10.173
17.0107 9.926
17.0259 9.737
17.0410 9.987
17.0562 10.061
17.0714 10.064
17.0866 10.113
17.1017 10.306
17.1169 10.583
17.1321 10.957
17.1473 11.325
17.1624 11.587
17.1776 12.074
17.1928 12.712
17.2080 13.760
17.2231 15.136
17.2383 16.498
17.2535 18.012
17.2687 19.072
17.2838 18.722
17.2990 17.894
17.3142 17.138
17.3294 16.503
17.3445 16.345
17.3597 16.115
17.3749 15.658
17.3901 15.179
17.4052 14.322
17.4204 13.238
17.4356 12.411
17.4508 11.984
17.4659 11.799
17.4811 11.668
17.4963 11.617
17.5115 11.284
17.5266 11.062
17.5418 11.117
17.5570 11.109
17.5722 11.000
17.5873 11.160
17.6025 11.297
17.6177 11.149
17.6329 11.341
17.6480 11.475
17.6632 11.585
17.6784 11.758
17.6936 11.647
17.7087 11.428
17.7239 11.166
17.7391 10.947
17.7543 11.145
17.7694 11.299
17.7846 10.990
17.7998 10.801
17.8150 10.843
17.8301 10.733
17.8453 10.509
17.8605 10.265
17.8757 10.092
17.8908 10.113
17.9060 10.161
17.9212 10.330
17.9364 10.339
17.9515 10.399
17.9667 10.388
17.9819 10.313
17.9971 10.273
18.0122 10.177
18.0274 9.994
18.0426 10.172
18.0578 10.110
18.0729 9.936
18.0881 9.928
18.1033 9.925
18.1185 10.117
18.1336 10.168
18.1488 10.006
18.1640 9.875
18.1792 9.937
18.1943 9.928
18.2095 9.987
18.2247 10.119
18.2399 9.998
18.2550 9.780
18.2702 9.829
18.2854 9.756
18.3006 9.714
18.3157 9.809
18.3309 9.673
18.3461 9.675
18.3613 9.716
18.3764 9.807
18.3916 10.013
18.4068 9.623
18.4220 9.511
18.4371 9.683
18.4523 9.714
18.4675 9.624
18.4827 9.778
18.4978 9.688
18.5130 9.633
18.5282 9.725
18.5434 9.850
18.5585 9.878
18.5737 9.855
18.5889 9.912
18.6041 9.827
18.6192 9.620
18.6344 9.475
18.6496 9.683
18.6648 9.865
18.6799 9.802
18.6951 9.883
18.7103 9.865
18.7255 9.790
18.7406 9.847
18.7558 9.633
18.7710 9.792
18.7862 10.049
18.8013 10.013
18.8165 9.853
18.8317 9.959
18.8469 9.933
18.8620 9.886
18.8772 10.062
18.8924 10.105
18.9076 10.033
18.9227 10.019
18.9379 10.179
18.9531 10.200
18.9683 10.004
18.9834 10.013
18.9986 10.062
19.0138 10.219
19.0290 10.370
19.0441 10.184
19.0593 10.238
19.0745 10.383
19.0897 10.450
19.1048 10.462
19.1200 10.525
19.1352 10.544
19.1504 10.569
19.1655 10.528
19.1807 10.371
19.1959 10.384
19.2111 10.735
19.2262 10.784
19.2414 10.588
19.2566 10.821
19.2718 10.969
19.2869 10.868
19.3021 10.783
19.3173 10.903
19.3325 10.993
19.3476 11.067
19.3628 11.353
19.3780 11.157
19.3932 11.072
19.4083 11.044
19.4235 11.021
19.4387 11.382
19.4539 11.516
19.4690 11.392
19.4842 11.259
19.4994 11.423
19.5146 11.505
19.5297 11.602
19.5449 11.697
19.5601 11.458
19.5753 11.368
19.5904 11.352
19.6056 11.567
19.6208 11.610
19.6360 11.585
19.6511 11.922
19.6663 11.792
19.6815 11.483
19.6967 11.574
19.7118 11.618
19.7270 11.523
19.7422 11.589
19.7574 11.778
19.7725 11.773
19.7877 11.965
19.8029 12.264
19.8180 12.253
19.8332 12.028
19.8484 12.180
19.8636 12.223
19.8787 12.370
19.8939 12.714
19.9091 12.937
19.9243 13.414
19.9394 13.728
19.9546 13.909
19.9698 14.321
19.9850 14.543
20.0001 14.278
20.0153 14.133
20.0305 14.070
20.0457 13.903
20.0608 13.779
20.0760 13.587
20.0912 13.735
20.1064 13.747
20.1215 13.512
20.1367 13.453
20.1519 13.327
20.1671 13.121
20.1822 12.774
20.1974 12.826
20.2126 12.880
20.2278 12.802
20.2429 12.527
20.2581 12.212
20.2733 12.240
20.2885 12.010
20.3036 12.154
20.3188 12.122
20.3340 12.019
20.3492 12.062
20.3643 12.420
20.3795 11.980
20.3947 11.692
20.4099 11.749
20.4250 11.925
20.4402 11.805
20.4554 11.925
20.4706 11.817
20.4857 11.809
20.5009 11.598
20.5161 11.477
20.5313 11.386
20.5464 11.458
20.5616 11.496
20.5768 11.210
20.5920 11.316
20.6071 11.041
20.6223 11.059
20.6375 10.900
20.6527 10.814
20.6678 10.476
20.6830 10.705
20.6982 10.297
20.7134 10.587
20.7285 10.590
20.7437 10.313
20.7589 10.476
20.7741 10.439
20.7892 10.518
20.8044 10.302
20.8196 10.124
20.8348 10.258
20.8499 10.329
20.8651 10.399
20.8803 10.351
20.8955 10.175
20.9106 10.175
20.9258 9.933
20.9410 10.062
20.9562 10.399
20.9713 10.295
20.9865 10.174
21.0017 9.862
21.0169 9.861
21.0320 9.994
21.0472 9.766
21.0624 10.052
21.0776 9.893
21.0927 9.886
21.1079 9.827
21.1231 9.769
21.1383 9.695
21.1534 9.677
21.1686 9.775
21.1838 9.974
21.1990 9.706
21.2141 9.300
21.2293 9.496
21.2445 9.745
21.2597 10.050
21.2748 9.704
21.2900 9.568
21.3052 9.525
21.3204 9.687
21.3355 9.637
21.3507 9.372
21.3659 9.645
21.3811 9.689
21.3962 9.669
21.4114 9.622
21.4266 9.378
21.4418 9.353
21.4569 9.417
21.4721 9.417
21.4873 9.164
21.5025 9.401
21.5176 9.311
21.5328 9.422
21.5480 9.318
21.5632 9.358
21.5783 9.109
21.5935 9.171
21.6087 8.976
21.6239 9.021
21.6390 9.077
21.6542 9.221
21.6694 9.239
21.6846 9.318
21.6997 9.080
21.7149 9.271
21.7301 9.004
21.7453 8.999
21.7604 9.171
21.7756 9.070
21.7908 9.257
21.8060 8.922
21.8211 8.985
21.8363 9.000
21.8515 8.991
21.8667 9.095
21.8818 9.066
21.8970 8.782
21.9122 8.858
21.9274 9.080
21.9425 9.046
21.9577 8.704
21.9729 8.810
21.9881 8.932
22.0032 8.755
22.0184 8.779
22.0336 8.775
22.0488 8.769
22.0639 8.852
22.0791 8.943
22.0943 8.883
22.1095 8.882
22.1246 8.901
22.1398 8.663
22.1550 8.670
22.1702 8.756
22.1853 8.865
22.2005 9.014
22.2157 8.775
22.2309 8.636
22.2460 8.771
22.2612 8.547
22.2764 8.498
22.2916 8.436
22.3067 8.426
22.3219 8.643
22.3371 8.383
22.3523 8.506
22.3674 8.506
22.3826 8.644
22.3978 8.653
22.4130 8.444
22.4281 8.482
22.4433 8.637
22.4585 8.562
22.4737 8.363
22.4888 8.505
22.5040 8.665
22.5192 8.502
22.5344 8.532
22.5495 8.396
22.5647 8.454
22.5799 8.716
22.5951 8.163
22.6102 8.459
22.6254 8.801
22.6406 8.403
22.6558 8.467
22.6709 8.219
22.6861 8.285
22.7013 8.204
22.7165 7.877
22.7316 6.355
