'Id: "" Comment: "" Operator: "Lab Manager" Anode: "Mo" Scantype: "Still (Eiger2R_500K (1D mode))" TimePerStep: "300" X: "11.8" Y: "9.4" Z: "11.284" 
7.2532 18.977
7.2684 18.735
7.2836 18.996
7.2987 19.206
7.3139 19.255
7.3291 19.110
7.3443 19.328
7.3594 19.568
7.3746 19.418
7.3898 19.828
7.4050 19.736
7.4201 19.788
7.4353 19.982
7.4505 19.600
7.4657 19.803
7.4808 19.730
7.4960 19.723
7.5112 19.686
7.5264 19.815
7.5415 19.888
7.5567 19.566
7.5719 20.093
7.5871 20.230
7.6022 19.951
7.6174 19.804
7.6326 19.880
7.6478 20.196
7.6629 20.530
7.6781 20.182
7.6933 20.182
7.7085 20.438
7.7236 20.689
7.7388 20.954
7.7540 20.831
7.7692 20.478
7.7843 20.538
7.7995 20.731
7.8147 20.839
7.8299 20.889
7.8450 20.622
7.8602 20.369
7.8754 20.528
7.8905 20.888
7.9057 20.860
7.9209 20.886
7.9361 21.037
7.9512 21.262
7.9664 21.018
7.9816 21.140
7.9968 21.466
8.0119 21.368
8.0271 21.163
8.0423 21.314
8.0575 21.022
8.0726 21.083
8.0878 21.424
8.1030 21.096
8.1182 21.243
8.1333 21.623
8.1485 21.792
8.1637 21.707
8.1789 21.605
8.1940 21.312
8.2092 21.981
8.2244 21.930
8.2396 21.677
8.2547 21.696
8.2699 21.694
8.2851 21.632
8.3003 21.377
8.3154 21.479
8.3306 21.955
8.3458 21.935
8.3610 22.095
8.3761 22.037
8.3913 21.925
8.4065 21.945
8.4217 22.162
8.4368 21.859
8.4520 22.211
8.4672 21.969
8.4824 22.001
8.4975 22.178
8.5127 22.144
8.5279 22.595
8.5431 22.013
8.5582 22.062
8.5734 21.837
8.5886 22.414
8.6038 21.818
8.6189 21.924
8.6341 22.130
8.6493 22.926
8.6645 22.179
8.6796 22.169
8.6948 22.258
8.7100 22.667
8.7252 22.760
8.7403 22.834
8.7555 22.862
8.7707 22.171
8.7859 22.192
8.8010 22.719
8.8162 22.858
8.8314 22.811
8.8466 22.511
8.8617 22.810
8.8769 22.887
8.8921 22.586
8.9073 22.647
8.9224 22.768
8.9376 22.721
8.9528 22.220
8.9680 22.731
8.9831 22.891
8.9983 22.931
9.0135 23.254
9.0287 22.873
9.0438 22.830
9.0590 23.111
9.0742 22.918
9.0894 23.126
9.1045 22.672
9.1197 23.050
9.1349 22.730
9.1501 22.965
9.1652 23.157
9.1804 23.030
9.1956 23.051
9.2108 22.889
9.2259 23.193
9.2411 23.024
9.2563 23.197
9.2715 22.910
9.2866 22.880
9.3018 23.130
9.3170 23.162
9.3322 23.194
9.3473 22.955
9.3625 22.617
9.3777 22.569
9.3929 22.978
9.4080 23.142
9.4232 22.895
9.4384 22.722
9.4536 22.920
9.4687 22.981
9.4839 22.871
9.4991 23.155
9.5143 23.214
9.5294 23.389
9.5446 23.527
9.5598 23.491
9.5750 23.341
9.5901 23.146
9.6053 23.458
9.6205 23.677
9.6357 23.410
9.6508 23.271
9.6660 23.639
9.6812 23.663
9.6964 23.348
9.7115 23.753
9.7267 24.056
9.7419 23.803
9.7571 23.685
9.7722 23.804
9.7874 24.021
9.8026 23.914
9.8178 23.525
9.8329 23.589
9.8481 23.897
9.8633 23.976
9.8785 23.899
9.8936 23.535
9.9088 23.493
9.9240 23.743
9.9392 24.022
9.9543 23.993
9.9695 23.957
9.9847 23.901
9.9999 23.599
10.0150 23.735
10.0302 23.838
10.0454 23.501
10.0606 23.604
10.0757 23.846
10.0909 23.677
10.1061 23.884
10.1213 23.848
10.1364 23.738
10.1516 23.694
10.1668 23.713
10.1820 23.742
10.1971 23.671
10.2123 23.550
10.2275 23.546
10.2427 23.737
10.2578 23.944
10.2730 23.691
10.2882 23.388
10.3034 23.421
10.3185 23.278
10.3337 23.376
10.3489 23.629
10.3641 23.151
10.3792 22.859
10.3944 23.270
10.4096 23.176
10.4248 22.924
10.4399 22.902
10.4551 23.150
10.4703 23.183
10.4855 23.381
10.5006 22.829
10.5158 22.565
10.5310 22.501
10.5462 22.538
10.5613 22.567
10.5765 22.570
10.5917 22.854
10.6069 22.754
10.6220 22.606
10.6372 22.658
10.6524 22.740
10.6676 22.872
10.6827 22.753
10.6979 22.753
10.7131 22.810
10.7283 22.575
10.7434 22.356
10.7586 22.506
10.7738 22.514
10.7890 22.421
10.8041 22.148
10.8193 22.349
10.8345 22.377
10.8497 22.469
10.8648 22.340
10.8800 22.707
10.8952 22.621
10.9104 22.431
10.9255 22.165
10.9407 22.196
10.9559 22.116
10.9711 21.705
10.9862 21.789
11.0014 22.094
11.0166 22.094
11.0318 22.063
11.0469 21.976
11.0621 21.795
11.0773 21.775
11.0925 21.804
11.1076 21.909
11.1228 21.835
11.1380 21.711
11.1532 21.683
11.1683 21.683
11.1835 21.709
11.1987 21.610
11.2139 21.706
11.2290 21.835
11.2442 21.654
11.2594 21.607
11.2746 21.574
11.2897 21.735
11.3049 21.722
11.3201 21.457
11.3353 21.153
11.3504 21.150
11.3656 21.248
11.3808 21.350
11.3960 21.395
11.4111 21.519
11.4263 21.618
11.4415 21.369
11.4567 21.050
11.4718 21.231
11.4870 21.235
11.5022 21.223
11.5174 21.377
11.5325 21.257
11.5477 21.149
11.5629 21.296
11.5781 20.950
11.5932 20.815
11.6084 20.770
11.6236 20.898
11.6388 20.750
11.6539 20.608
11.6691 20.705
11.6843 20.380
11.6995 20.138
11.7146 20.215
11.7298 20.562
11.7450 20.189
11.7602 20.052
11.7753 20.229
11.7905 20.386
11.8057 20.100
11.8209 20.010
11.8360 20.166
11.8512 20.284
11.8664 20.327
11.8816 19.637
11.8967 19.483
11.9119 19.489
11.9271 19.396
11.9423 19.281
11.9574 19.340
11.9726 19.247
11.9878 19.197
12.0030 19.228
12.0181 19.127
12.0333 18.939
12.0485 18.685
12.0637 18.487
12.0788 18.902
12.0940 18.946
12.1092 18.608
12.1244 18.346
12.1395 18.736
12.1547 18.933
12.1699 18.159
12.1851 18.065
12.2002 18.016
12.2154 18.019
12.2306 18.278
12.2458 18.129
12.2609 17.619
12.2761 17.629
12.2913 18.012
12.3065 17.657
12.3216 17.362
12.3368 17.531
12.3520 17.536
12.3672 17.499
12.3823 17.272
12.3975 16.879
12.4127 16.716
12.4279 16.970
12.4430 17.218
12.4582 16.902
12.4734 17.038
12.4886 17.080
12.5037 16.970
12.5189 16.867
12.5341 16.741
12.5493 16.423
12.5644 16.267
12.5796 16.080
12.5948 16.002
12.6100 16.014
12.6251 15.932
12.6403 15.794
12.6555 15.724
12.6707 15.658
12.6858 15.928
12.7010 15.863
12.7162 15.482
12.7314 15.401
12.7465 15.214
12.7617 15.078
12.7769 15.151
12.7921 15.231
12.8072 15.144
12.8224 15.016
12.8376 14.935
12.8528 14.913
12.8679 14.987
12.8831 15.111
12.8983 14.804
12.9135 14.456
12.9286 14.441
12.9438 14.570
12.9590 14.533
12.9742 14.299
12.9893 14.311
13.0045 14.322
13.0197 14.380
13.0349 14.365
13.0500 14.137
13.0652 13.825
13.0804 13.714
13.0956 13.786
13.1107 13.675
13.1259 13.770
13.1411 13.882
13.1563 13.594
13.1714 13.515
13.1866 13.468
13.2018 13.398
13.2170 13.219
13.2321 13.040
13.2473 13.237
13.2625 13.277
13.2777 13.231
13.2928 13.150
13.3080 13.134
13.3232 12.995
13.3384 13.033
13.3535 13.168
13.3687 12.946
13.3839 12.896
13.3991 13.159
13.4142 13.291
13.4294 12.990
13.4446 12.796
13.4598 12.751
13.4749 12.600
13.4901 12.668
13.5053 12.739
13.5205 12.647
13.5356 12.658
13.5508 12.387
13.5660 12.135
13.5812 12.104
13.5963 12.208
13.6115 12.164
13.6267 12.188
13.6419 12.244
13.6570 12.377
13.6722 12.194
13.6874 11.938
13.7026 11.737
13.7177 11.897
13.7329 12.014
13.7481 11.961
13.7633 11.670
13.7784 11.686
13.7936 11.773
13.8088 11.951
13.8239 12.208
13.8391 12.184
13.8543 11.971
13.8695 11.983
13.8846 12.087
13.8998 11.826
13.9150 11.912
13.9302 12.025
13.9453 11.989
13.9605 12.144
13.9757 11.943
13.9909 11.778
14.0060 11.651
14.0212 11.769
14.0364 11.549
14.0516 11.402
14.0667 11.439
14.0819 11.119
14.0971 11.260
14.1123 11.456
14.1274 11.268
14.1426 11.209
14.1578 11.268
14.1730 11.433
14.1881 11.444
14.2033 11.432
14.2185 11.687
14.2337 11.807
14.2488 11.804
14.2640 11.423
14.2792 11.489
14.2944 11.483
14.3095 11.909
14.3247 12.065
14.3399 12.270
14.3551 12.315
14.3702 12.564
14.3854 12.641
14.4006 13.058
14.4158 13.196
14.4309 12.666
14.4461 13.060
14.4613 13.192
14.4765 13.616
14.4916 13.286
14.5068 13.064
14.5220 13.233
14.5372 13.041
14.5523 12.902
14.5675 12.728
14.5827 12.577
14.5979 12.305
14.6130 12.081
14.6282 11.824
14.6434 12.021
14.6586 11.560
14.6737 11.608
14.6889 11.528
14.7041 11.232
14.7193 11.472
14.7344 11.133
14.7496 11.159
14.7648 11.483
14.7800 11.214
14.7951 11.080
14.8103 10.956
14.8255 11.171
14.8407 11.188
14.8558 11.019
14.8710 10.880
14.8862 10.563
14.9014 10.744
14.9165 11.015
14.9317 10.985
14.9469 11.144
14.9621 10.875
14.9772 10.550
14.9924 10.519
15.0076 10.457
15.0228 10.619
15.0379 10.727
15.0531 10.168
15.0683 10.579
15.0835 10.534
15.0986 10.669
15.1138 10.901
15.1290 10.468
15.1442 10.310
15.1593 10.366
15.1745 10.371
15.1897 10.731
15.2049 10.667
15.2200 10.419
15.2352 10.514
15.2504 10.155
15.2656 10.582
15.2807 10.387
15.2959 10.567
15.3111 10.345
15.3263 10.073
15.3414 10.170
15.3566 10.498
15.3718 10.398
15.3870 10.370
15.4021 10.167
15.4173 10.210
15.4325 10.398
15.4477 10.248
15.4628 10.736
15.4780 10.204
15.4932 10.350
15.5084 10.197
15.5235 10.550
15.5387 10.349
15.5539 10.204
15.5691 10.329
15.5842 10.299
15.5994 10.285
15.6146 10.090
15.6298 10.257
15.6449 10.064
15.6601 10.107
15.6753 10.094
15.6905 10.099
15.7056 10.035
15.7208 9.911
15.7360 9.821
15.7512 9.741
15.7663 9.884
15.7815 9.773
15.7967 9.562
15.8119 10.044
15.8270 9.842
15.8422 9.846
15.8574 9.695
15.8726 9.691
15.8877 9.825
15.9029 9.462
15.9181 9.852
15.9333 9.770
15.9484 9.710
15.9636 9.772
15.9788 9.890
15.9940 9.773
16.0091 9.845
16.0243 9.697
16.0395 9.986
16.0547 9.483
16.0698 9.602
16.0850 9.840
16.1002 9.899
16.1154 9.728
16.1305 9.747
16.1457 9.930
16.1609 9.840
16.1761 9.900
16.1912 9.705
16.2064 9.610
16.2216 9.792
16.2368 9.711
16.2519 9.672
16.2671 10.021
16.2823 10.222
16.2975 10.256
16.3126 10.006
16.3278 9.932
16.3430 9.949
16.3582 9.996
16.3733 10.209
16.3885 10.442
16.4037 10.236
16.4189 10.344
16.4340 10.049
16.4492 10.119
16.4644 10.031
16.4796 10.182
16.4947 9.899
16.5099 10.013
16.5251 9.919
16.5403 9.757
16.5554 9.832
16.5706 9.758
16.5858 9.790
16.6010 10.086
16.6161 10.101
16.6313 9.865
16.6465 9.792
16.6617 9.899
16.6768 9.834
16.6920 9.730
16.7072 10.232
16.7224 10.251
16.7375 10.117
16.7527 10.003
16.7679 9.990
16.7831 10.062
16.7982 10.020
16.8134 9.938
16.8286 10.101
16.8438 9.807
16.8589 9.659
16.8741 9.834
16.8893 9.718
16.9045 9.625
16.9196 9.732
16.9348 9.865
16.9500 9.791
16.9652 9.841
16.9803 10.068
16.9955 10.087
17.0107 10.184
17.0259 10.146
17.0410 10.316
17.0562 10.354
17.0714 10.199
17.0866 10.328
17.1017 10.678
17.1169 10.917
17.1321 11.064
17.1473 11.358
17.1624 11.897
17.1776 12.369
17.1928 12.927
17.2080 13.950
17.2231 15.252
17.2383 16.327
17.2535 17.419
17.2687 18.555
17.2838 18.917
17.2990 18.026
17.3142 16.844
17.3294 16.166
17.3445 15.993
17.3597 16.084
17.3749 16.039
17.3901 15.264
17.4052 13.973
17.4204 13.140
17.4356 12.339
17.4508 11.881
17.4659 11.826
17.4811 11.531
17.4963 11.302
17.5115 11.141
17.5266 10.740
17.5418 10.521
17.5570 10.741
17.5722 10.927
17.5873 10.875
17.6025 10.702
17.6177 10.561
17.6329 10.457
17.6480 10.522
17.6632 10.613
17.6784 10.667
17.6936 10.582
17.7087 10.426
17.7239 10.464
17.7391 10.605
17.7543 10.732
17.7694 11.000
17.7846 11.195
17.7998 11.377
17.8150 11.554
17.8301 11.841
17.8453 12.040
17.8605 12.223
17.8757 12.369
17.8908 12.136
17.9060 12.067
17.9212 12.151
17.9364 11.856
17.9515 11.659
17.9667 11.482
17.9819 11.189
17.9971 11.032
18.0122 11.043
18.0274 10.892
18.0426 10.747
18.0578 10.493
18.0729 10.139
18.0881 10.115
18.1033 10.126
18.1185 10.140
18.1336 10.283
18.1488 10.354
18.1640 10.230
18.1792 9.778
18.1943 9.568
18.2095 10.063
18.2247 9.964
18.2399 9.875
18.2550 10.033
18.2702 10.095
18.2854 9.844
18.3006 9.933
18.3157 10.078
18.3309 9.883
18.3461 9.853
18.3613 9.977
18.3764 9.998
18.3916 9.767
18.4068 9.732
18.4220 9.968
18.4371 9.900
18.4523 9.842
18.4675 9.893
18.4827 9.852
18.4978 9.870
18.5130 10.009
18.5282 9.784
18.5434 9.687
18.5585 10.054
18.5737 10.116
18.5889 9.815
18.6041 9.623
18.6192 9.604
18.6344 9.744
18.6496 9.811
18.6648 9.489
18.6799 9.410
18.6951 9.762
18.7103 9.798
18.7255 9.653
18.7406 9.750
18.7558 9.829
18.7710 9.741
18.7862 9.827
18.8013 9.799
18.8165 9.786
18.8317 9.811
18.8469 10.045
18.8620 10.038
18.8772 9.934
18.8924 10.002
18.9076 10.043
18.9227 9.948
18.9379 9.925
18.9531 9.989
18.9683 9.894
18.9834 9.814
18.9986 10.100
19.0138 10.415
19.0290 10.374
19.0441 10.213
19.0593 10.097
19.0745 10.271
19.0897 10.330
19.1048 10.547
19.1200 10.459
19.1352 10.455
19.1504 10.654
19.1655 10.592
19.1807 10.583
19.1959 10.672
19.2111 10.727
19.2262 10.832
19.2414 10.702
19.2566 10.666
19.2718 10.809
19.2869 11.065
19.3021 11.106
19.3173 11.128
19.3325 11.277
19.3476 11.428
19.3628 11.441
19.3780 11.240
19.3932 11.189
19.4083 11.295
19.4235 11.469
19.4387 11.488
19.4539 11.440
19.4690 11.421
19.4842 11.214
19.4994 10.955
19.5146 11.281
19.5297 11.424
19.5449 11.369
19.5601 11.276
19.5753 11.376
19.5904 11.545
19.6056 11.745
19.6208 11.789
19.6360 11.508
19.6511 11.475
19.6663 11.458
19.6815 11.637
19.6967 11.864
19.7118 11.423
19.7270 11.347
19.7422 11.603
19.7574 11.899
19.7725 12.015
19.7877 11.784
19.8029 11.814
19.8180 11.759
19.8332 11.790
19.8484 12.244
19.8636 12.430
19.8787 12.557
19.8939 12.808
19.9091 13.117
19.9243 13.612
19.9394 14.086
19.9546 14.160
19.9698 14.286
19.9850 14.519
20.0001 14.475
20.0153 14.173
20.0305 14.038
20.0457 14.258
20.0608 13.981
20.0760 13.661
20.0912 13.540
20.1064 13.615
20.1215 13.595
20.1367 13.330
20.1519 12.876
20.1671 12.827
20.1822 12.748
20.1974 12.613
20.2126 12.503
20.2278 12.634
20.2429 12.292
20.2581 12.125
20.2733 12.091
20.2885 11.878
20.3036 11.671
20.3188 11.776
20.3340 11.775
20.3492 11.727
20.3643 11.464
20.3795 11.075
20.3947 11.141
20.4099 10.969
20.4250 10.846
20.4402 10.749
20.4554 10.939
20.4706 11.023
20.4857 10.909
20.5009 10.939
20.5161 10.869
20.5313 10.847
20.5464 10.941
20.5616 10.803
20.5768 10.752
20.5920 10.960
20.6071 10.919
20.6223 10.973
20.6375 10.954
20.6527 10.717
20.6678 10.623
20.6830 10.558
20.6982 10.604
20.7134 10.817
20.7285 10.869
20.7437 10.682
20.7589 10.795
20.7741 10.433
20.7892 10.863
20.8044 10.791
20.8196 10.428
20.8348 10.592
20.8499 10.492
20.8651 10.258
20.8803 10.407
20.8955 10.508
20.9106 10.229
20.9258 10.654
20.9410 10.452
20.9562 10.565
20.9713 10.328
20.9865 10.479
21.0017 10.515
21.0169 10.099
21.0320 10.124
21.0472 10.204
21.0624 9.997
21.0776 10.083
21.0927 10.404
21.1079 10.027
21.1231 9.968
21.1383 9.849
21.1534 10.214
21.1686 9.892
21.1838 9.705
21.1990 10.239
21.2141 9.787
21.2293 9.655
21.2445 10.015
21.2597 9.756
21.2748 9.688
21.2900 9.673
21.3052 9.635
21.3204 9.832
21.3355 9.363
21.3507 9.773
21.3659 9.519
21.3811 9.704
21.3962 9.503
21.4114 9.268
21.4266 9.370
21.4418 9.359
21.4569 9.552
21.4721 9.541
21.4873 9.229
21.5025 9.341
21.5176 9.143
21.5328 9.079
21.5480 9.254
21.5632 9.150
21.5783 9.278
21.5935 9.215
21.6087 9.269
21.6239 9.191
21.6390 9.165
21.6542 9.307
21.6694 9.041
21.6846 9.092
21.6997 8.992
21.7149 9.192
21.7301 9.202
21.7453 9.026
21.7604 8.908
21.7756 9.107
21.7908 8.921
21.8060 9.103
21.8211 9.152
21.8363 8.762
21.8515 8.950
21.8667 9.298
21.8818 8.916
21.8970 8.895
21.9122 9.073
21.9274 9.020
21.9425 8.972
21.9577 9.022
21.9729 9.132
21.9881 9.041
22.0032 8.913
22.0184 8.831
22.0336 8.709
22.0488 8.822
22.0639 8.750
22.0791 8.433
22.0943 8.628
22.1095 8.874
22.1246 8.700
22.1398 8.600
22.1550 8.543
22.1702 8.560
22.1853 8.573
22.2005 8.468
22.2157 8.329
22.2309 8.464
22.2460 8.666
22.2612 8.750
22.2764 8.637
22.2916 8.630
22.3067 8.583
22.3219 8.305
22.3371 8.487
22.3523 8.420
22.3674 8.349
22.3826 8.444
22.3978 8.546
22.4130 8.667
22.4281 8.480
22.4433 8.565
22.4585 8.596
22.4737 8.356
22.4888 8.408
22.5040 8.326
22.5192 8.310
22.5344 8.475
22.5495 8.525
22.5647 8.323
22.5799 8.403
22.5951 8.483
22.6102 8.597
22.6254 8.616
22.6406 8.466
22.6558 8.315
22.6709 8.138
22.6861 8.158
22.7013 8.319
22.7165 8.082
22.7316 6.210
