'Id: "" Comment: "" Operator: "Lab Manager" Anode: "Mo" Scantype: "Still (Eiger2R_500K (1D mode))" TimePerStep: "300" X: "11.8" Y: "9.4" Z: "11.284" 
7.2532 18.384
7.2684 18.512
7.2836 19.577
7.2987 19.221
7.3139 18.885
7.3291 19.391
7.3443 19.335
7.3594 19.099
7.3746 19.837
7.3898 19.228
7.4050 19.576
7.4201 20.171
7.4353 19.950
7.4505 19.648
7.4657 19.385
7.4808 19.561
7.4960 19.790
7.5112 19.883
7.5264 19.754
7.5415 19.851
7.5567 19.974
7.5719 20.068
7.5871 19.936
7.6022 20.088
7.6174 20.032
7.6326 20.216
7.6478 20.379
7.6629 20.286
7.6781 20.163
7.6933 20.219
7.7085 20.353
7.7236 20.399
7.7388 20.070
7.7540 19.991
7.7692 20.300
7.7843 20.265
7.7995 20.030
7.8147 20.279
7.8299 20.556
7.8450 20.701
7.8602 20.630
7.8754 20.667
7.8905 21.171
7.9057 21.142
7.9209 20.854
7.9361 20.784
7.9512 20.972
7.9664 21.085
7.9816 20.926
7.9968 20.813
8.0119 21.125
8.0271 21.370
8.0423 21.431
8.0575 21.285
8.0726 21.188
8.0878 21.187
8.1030 21.322
8.1182 21.292
8.1333 21.580
8.1485 21.371
8.1637 21.140
8.1789 21.399
8.1940 21.639
8.2092 21.415
8.2244 21.454
8.2396 21.312
8.2547 21.584
8.2699 21.463
8.2851 21.579
8.3003 21.597
8.3154 21.692
8.3306 21.715
8.3458 22.062
8.3610 22.032
8.3761 22.014
8.3913 21.936
8.4065 22.003
8.4217 22.408
8.4368 21.801
8.4520 21.840
8.4672 21.852
8.4824 21.853
8.4975 21.535
8.5127 22.183
8.5279 22.167
8.5431 21.684
8.5582 22.337
8.5734 22.891
8.5886 22.817
8.6038 22.111
8.6189 22.078
8.6341 22.520
8.6493 22.259
8.6645 22.418
8.6796 22.149
8.6948 22.678
8.7100 22.350
8.7252 22.186
8.7403 22.462
8.7555 21.954
8.7707 22.525
8.7859 22.548
8.8010 22.481
8.8162 22.306
8.8314 21.907
8.8466 22.987
8.8617 22.976
8.8769 22.495
8.8921 22.454
8.9073 22.461
8.9224 22.361
8.9376 22.550
8.9528 22.316
8.9680 22.626
8.9831 22.415
8.9983 22.472
9.0135 22.521
9.0287 22.792
9.0438 22.521
9.0590 22.392
9.0742 22.552
9.0894 22.622
9.1045 22.836
9.1197 22.915
9.1349 23.138
9.1501 22.959
9.1652 23.018
9.1804 22.729
9.1956 22.939
9.2108 23.227
9.2259 23.105
9.2411 22.719
9.2563 22.901
9.2715 22.992
9.2866 22.872
9.3018 22.571
9.3170 23.164
9.3322 23.256
9.3473 23.416
9.3625 22.920
9.3777 22.939
9.3929 23.234
9.4080 23.329
9.4232 23.044
9.4384 22.882
9.4536 22.446
9.4687 22.617
9.4839 23.067
9.4991 22.896
9.5143 22.874
9.5294 22.896
9.5446 23.476
9.5598 23.474
9.5750 23.148
9.5901 23.148
9.6053 23.308
9.6205 23.294
9.6357 23.521
9.6508 23.433
9.6660 23.100
9.6812 23.281
9.6964 23.857
9.7115 24.002
9.7267 23.789
9.7419 23.837
9.7571 23.925
9.7722 23.918
9.7874 23.969
9.8026 24.066
9.8178 24.080
9.8329 23.695
9.8481 23.581
9.8633 23.634
9.8785 23.121
9.8936 23.103
9.9088 23.117
9.9240 22.870
9.9392 23.518
9.9543 23.309
9.9695 22.825
9.9847 23.211
9.9999 23.510
10.0150 23.161
10.0302 23.122
10.0454 23.465
10.0606 23.143
10.0757 23.170
10.0909 23.269
10.1061 23.308
10.1213 23.324
10.1364 23.114
10.1516 23.346
10.1668 23.429
10.1820 23.458
10.1971 23.564
10.2123 23.606
10.2275 23.318
10.2427 23.010
10.2578 22.830
10.2730 22.847
10.2882 22.983
10.3034 23.064
10.3185 22.729
10.3337 22.852
10.3489 22.669
10.3641 22.681
10.3792 22.810
10.3944 22.749
10.4096 22.522
10.4248 22.847
10.4399 22.844
10.4551 22.922
10.4703 22.860
10.4855 22.773
10.5006 22.544
10.5158 22.270
10.5310 22.661
10.5462 22.457
10.5613 22.126
10.5765 22.159
10.5917 22.824
10.6069 22.879
10.6220 22.631
10.6372 22.800
10.6524 23.230
10.6676 23.022
10.6827 22.512
10.6979 22.324
10.7131 22.436
10.7283 22.530
10.7434 22.455
10.7586 22.257
10.7738 22.262
10.7890 22.513
10.8041 22.719
10.8193 22.380
10.8345 22.244
10.8497 22.383
10.8648 22.018
10.8800 21.990
10.8952 22.156
10.9104 21.794
10.9255 21.904
10.9407 21.958
10.9559 22.144
10.9711 21.895
10.9862 21.968
11.0014 22.194
11.0166 22.290
11.0318 22.272
11.0469 21.816
11.0621 21.651
11.0773 21.818
11.0925 22.070
11.1076 21.952
11.1228 21.558
11.1380 21.477
11.1532 21.383
11.1683 21.686
11.1835 21.762
11.1987 21.428
11.2139 21.228
11.2290 21.541
11.2442 21.582
11.2594 21.469
11.2746 22.032
11.2897 22.017
11.3049 21.472
11.3201 21.862
11.3353 21.737
11.3504 21.365
11.3656 21.486
11.3808 21.442
11.3960 21.560
11.4111 21.546
11.4263 21.373
11.4415 21.287
11.4567 21.450
11.4718 21.458
11.4870 21.420
11.5022 21.138
11.5174 20.996
11.5325 21.018
11.5477 20.850
11.5629 20.723
11.5781 20.886
11.5932 20.779
11.6084 20.764
11.6236 20.727
11.6388 20.753
11.6539 20.777
11.6691 20.686
11.6843 20.950
11.6995 20.787
11.7146 20.366
11.7298 20.157
11.7450 20.116
11.7602 19.999
11.7753 19.774
11.7905 20.145
11.8057 20.197
11.8209 19.971
11.8360 19.859
11.8512 19.839
11.8664 19.684
11.8816 19.937
11.8967 19.986
11.9119 19.471
11.9271 19.484
11.9423 19.747
11.9574 19.561
11.9726 19.335
11.9878 19.722
12.0030 19.785
12.0181 19.611
12.0333 19.363
12.0485 19.043
12.0637 18.931
12.0788 18.931
12.0940 18.694
12.1092 18.728
12.1244 18.846
12.1395 18.743
12.1547 18.503
12.1699 18.625
12.1851 18.430
12.2002 18.011
12.2154 18.296
12.2306 18.056
12.2458 17.913
12.2609 17.970
12.2761 17.957
12.2913 17.839
12.3065 17.443
12.3216 17.670
12.3368 17.819
12.3520 17.748
12.3672 17.371
12.3823 16.923
12.3975 17.039
12.4127 17.408
12.4279 17.138
12.4430 16.855
12.4582 17.096
12.4734 16.833
12.4886 16.587
12.5037 16.591
12.5189 16.761
12.5341 16.595
12.5493 16.134
12.5644 16.159
12.5796 16.367
12.5948 16.373
12.6100 16.176
12.6251 16.034
12.6403 15.941
12.6555 15.768
12.6707 15.597
12.6858 15.560
12.7010 15.223
12.7162 15.632
12.7314 15.790
12.7465 15.599
12.7617 15.570
12.7769 15.561
12.7921 15.455
12.8072 15.127
12.8224 15.020
12.8376 15.097
12.8528 15.199
12.8679 15.002
12.8831 14.847
12.8983 14.680
12.9135 14.833
12.9286 15.021
12.9438 14.636
12.9590 14.337
12.9742 14.229
12.9893 14.152
13.0045 14.276
13.0197 14.508
13.0349 14.416
13.0500 14.038
13.0652 13.795
13.0804 13.660
13.0956 13.880
13.1107 13.856
13.1259 13.799
13.1411 13.804
13.1563 13.790
13.1714 13.835
13.1866 13.598
13.2018 13.599
13.2170 13.719
13.2321 13.752
13.2473 13.514
13.2625 13.238
13.2777 13.216
13.2928 12.963
13.3080 12.932
13.3232 13.277
13.3384 13.185
13.3535 13.044
13.3687 13.101
13.3839 13.009
13.3991 12.847
13.4142 12.889
13.4294 12.851
13.4446 12.810
13.4598 12.716
13.4749 12.842
13.4901 12.854
13.5053 12.607
13.5205 12.599
13.5356 12.652
13.5508 12.483
13.5660 12.373
13.5812 12.172
13.5963 12.272
13.6115 12.345
13.6267 12.313
13.6419 12.189
13.6570 12.215
13.6722 12.337
13.6874 12.029
13.7026 11.877
13.7177 12.020
13.7329 12.077
13.7481 12.065
13.7633 12.063
13.7784 12.010
13.7936 12.223
13.8088 12.203
13.8239 12.201
13.8391 12.136
13.8543 12.476
13.8695 12.472
13.8846 12.441
13.8998 12.300
13.9150 12.172
13.9302 12.110
13.9453 12.035
13.9605 11.762
13.9757 11.651
13.9909 11.825
14.0060 11.692
14.0212 11.444
14.0364 11.385
14.0516 11.411
14.0667 11.602
14.0819 11.553
14.0971 11.628
14.1123 11.753
14.1274 11.601
14.1426 11.432
14.1578 11.433
14.1730 11.403
14.1881 11.535
14.2033 11.241
14.2185 11.443
14.2337 11.665
14.2488 11.821
14.2640 12.071
14.2792 11.934
14.2944 11.890
14.3095 12.192
14.3247 12.474
14.3399 12.541
14.3551 12.467
14.3702 12.670
14.3854 13.058
14.4006 13.533
14.4158 13.456
14.4309 13.433
14.4461 13.479
14.4613 12.917
14.4765 13.010
14.4916 12.642
14.5068 12.289
14.5220 12.149
14.5372 11.922
14.5523 11.508
14.5675 11.246
14.5827 11.321
14.5979 11.310
14.6130 11.068
14.6282 11.106
14.6434 11.147
14.6586 10.886
14.6737 11.018
14.6889 11.023
14.7041 10.688
14.7193 10.770
14.7344 10.841
14.7496 10.594
14.7648 10.772
14.7800 10.207
14.7951 10.512
14.8103 10.531
14.8255 10.647
14.8407 10.470
14.8558 10.639
14.8710 10.580
14.8862 10.570
14.9014 10.192
14.9165 10.592
14.9317 10.611
14.9469 10.510
14.9621 10.629
14.9772 10.630
14.9924 10.492
15.0076 10.339
15.0228 10.549
15.0379 10.511
15.0531 10.461
15.0683 10.535
15.0835 9.969
15.0986 10.065
15.1138 10.009
15.1290 10.015
15.1442 10.263
15.1593 9.856
15.1745 10.064
15.1897 10.270
15.2049 10.099
15.2200 10.662
15.2352 10.255
15.2504 10.223
15.2656 9.991
15.2807 10.212
15.2959 10.266
15.3111 10.464
15.3263 9.995
15.3414 9.764
15.3566 10.137
15.3718 10.178
15.3870 10.338
15.4021 10.098
15.4173 10.288
15.4325 10.170
15.4477 10.059
15.4628 9.903
15.4780 10.224
15.4932 9.961
15.5084 10.120
15.5235 9.949
15.5387 10.102
15.5539 10.094
15.5691 10.218
15.5842 9.974
15.5994 9.724
15.6146 9.941
15.6298 9.775
15.6449 9.941
15.6601 9.921
15.6753 9.727
15.6905 9.596
15.7056 9.920
15.7208 9.748
15.7360 9.699
15.7512 9.732
15.7663 9.614
15.7815 9.787
15.7967 9.739
15.8119 9.558
15.8270 9.553
15.8422 9.753
15.8574 9.924
15.8726 9.758
15.8877 9.509
15.9029 9.680
15.9181 9.819
15.9333 9.950
15.9484 9.648
15.9636 9.534
15.9788 9.526
15.9940 9.825
16.0091 9.603
16.0243 9.672
16.0395 9.547
16.0547 9.575
16.0698 9.715
16.0850 9.626
16.1002 9.693
16.1154 9.675
16.1305 9.585
16.1457 9.582
16.1609 9.385
16.1761 9.609
16.1912 9.656
16.2064 9.650
16.2216 9.847
16.2368 9.870
16.2519 9.884
16.2671 10.020
16.2823 9.936
16.2975 9.834
16.3126 9.970
16.3278 9.791
16.3430 9.678
16.3582 9.822
16.3733 9.942
16.3885 9.918
16.4037 9.773
16.4189 9.741
16.4340 9.580
16.4492 9.660
16.4644 9.781
16.4796 9.809
16.4947 9.792
16.5099 9.665
16.5251 9.680
16.5403 9.612
16.5554 9.727
16.5706 9.601
16.5858 9.486
16.6010 9.646
16.6161 9.815
16.6313 9.800
16.6465 9.743
16.6617 9.746
16.6768 9.681
16.6920 9.853
16.7072 9.877
16.7224 9.941
16.7375 9.921
16.7527 9.935
16.7679 9.963
16.7831 10.169
16.7982 9.902
16.8134 9.753
16.8286 9.892
16.8438 9.917
16.8589 9.690
16.8741 9.802
16.8893 9.731
16.9045 9.641
16.9196 9.895
16.9348 10.073
16.9500 9.918
16.9652 9.794
16.9803 9.772
16.9955 9.862
17.0107 9.811
17.0259 9.851
17.0410 10.062
17.0562 10.147
17.0714 10.173
17.0866 10.013
17.1017 10.138
17.1169 10.690
17.1321 11.023
17.1473 11.338
17.1624 11.810
17.1776 12.105
17.1928 12.675
17.2080 13.760
17.2231 15.026
17.2383 16.175
17.2535 17.243
17.2687 18.006
17.2838 18.206
17.2990 17.628
17.3142 17.106
17.3294 16.410
17.3445 15.879
17.3597 15.849
17.3749 15.810
17.3901 15.324
17.4052 14.164
17.4204 13.052
17.4356 12.332
17.4508 12.054
17.4659 11.682
17.4811 11.367
17.4963 11.424
17.5115 11.236
17.5266 11.026
17.5418 10.999
17.5570 10.833
17.5722 10.987
17.5873 11.037
17.6025 10.959
17.6177 11.068
17.6329 11.293
17.6480 11.488
17.6632 11.730
17.6784 12.065
17.6936 12.396
17.7087 12.214
17.7239 11.955
17.7391 11.842
17.7543 11.551
17.7694 11.451
17.7846 11.636
17.7998 11.631
17.8150 11.284
17.8301 11.085
17.8453 10.732
17.8605 10.447
17.8757 10.457
17.8908 10.627
17.9060 10.678
17.9212 10.551
17.9364 10.430
17.9515 10.236
17.9667 10.290
17.9819 10.351
17.9971 10.281
18.0122 10.234
18.0274 10.190
18.0426 10.188
18.0578 10.251
18.0729 10.072
18.0881 9.926
18.1033 10.015
18.1185 9.893
18.1336 9.783
18.1488 9.922
18.1640 10.102
18.1792 10.174
18.1943 9.986
18.2095 10.062
18.2247 10.188
18.2399 10.222
18.2550 9.987
18.2702 9.881
18.2854 9.997
18.3006 10.053
18.3157 9.898
18.3309 9.707
18.3461 10.026
18.3613 10.205
18.3764 9.894
18.3916 9.695
18.4068 9.801
18.4220 9.886
18.4371 9.941
18.4523 9.949
18.4675 10.023
18.4827 10.001
18.4978 9.784
18.5130 9.787
18.5282 9.687
18.5434 9.756
18.5585 9.776
18.5737 9.726
18.5889 9.756
18.6041 9.926
18.6192 9.773
18.6344 9.600
18.6496 9.656
18.6648 9.807
18.6799 9.668
18.6951 9.592
18.7103 9.675
18.7255 9.749
18.7406 9.663
18.7558 9.798
18.7710 9.989
18.7862 9.927
18.8013 9.595
18.8165 9.710
18.8317 9.880
18.8469 9.541
18.8620 9.703
18.8772 9.813
18.8924 9.963
18.9076 10.060
18.9227 9.782
18.9379 9.912
18.9531 9.952
18.9683 9.868
18.9834 9.913
18.9986 10.114
19.0138 10.420
19.0290 10.263
19.0441 9.985
19.0593 10.195
19.0745 10.242
19.0897 10.151
19.1048 10.254
19.1200 10.160
19.1352 10.180
19.1504 10.475
19.1655 10.583
19.1807 10.443
19.1959 10.508
19.2111 10.644
19.2262 10.680
19.2414 10.435
19.2566 10.657
19.2718 10.804
19.2869 10.554
19.3021 10.716
19.3173 10.988
19.3325 11.102
19.3476 10.897
19.3628 10.638
19.3780 10.814
19.3932 11.073
19.4083 11.098
19.4235 11.160
19.4387 11.345
19.4539 11.475
19.4690 11.332
19.4842 11.182
19.4994 11.315
19.5146 11.640
19.5297 11.535
19.5449 11.424
19.5601 11.456
19.5753 11.333
19.5904 11.367
19.6056 11.653
19.6208 11.570
19.6360 11.456
19.6511 11.371
19.6663 11.463
19.6815 11.646
19.6967 11.624
19.7118 11.739
19.7270 11.752
19.7422 11.622
19.7574 11.548
19.7725 11.720
19.7877 11.888
19.8029 12.235
19.8180 12.371
19.8332 12.181
19.8484 12.273
19.8636 12.351
19.8787 12.494
19.8939 12.766
19.9091 13.045
19.9243 13.336
19.9394 13.638
19.9546 14.144
19.9698 14.400
19.9850 14.486
20.0001 14.510
20.0153 14.176
20.0305 13.845
20.0457 13.801
20.0608 13.760
20.0760 13.765
20.0912 13.601
20.1064 13.577
20.1215 13.458
20.1367 13.226
20.1519 13.124
20.1671 13.059
20.1822 12.755
20.1974 12.639
20.2126 12.515
20.2278 12.428
20.2429 12.697
20.2581 12.494
20.2733 12.111
20.2885 11.844
20.3036 11.586
20.3188 11.576
20.3340 11.739
20.3492 12.106
20.3643 11.975
20.3795 11.948
20.3947 11.951
20.4099 11.684
20.4250 11.636
20.4402 11.643
20.4554 11.746
20.4706 11.980
20.4857 11.999
20.5009 12.054
20.5161 11.913
20.5313 11.548
20.5464 11.547
20.5616 11.410
20.5768 11.625
20.5920 11.635
20.6071 11.349
20.6223 11.218
20.6375 11.156
20.6527 11.048
20.6678 10.949
20.6830 11.057
20.6982 10.859
20.7134 10.592
20.7285 10.752
20.7437 10.587
20.7589 10.296
20.7741 10.201
20.7892 10.493
20.8044 10.327
20.8196 10.168
20.8348 10.359
20.8499 10.465
20.8651 10.141
20.8803 10.319
20.8955 10.239
20.9106 10.248
20.9258 10.278
20.9410 10.446
20.9562 10.356
20.9713 10.065
20.9865 9.888
21.0017 10.194
21.0169 10.072
21.0320 10.263
21.0472 9.903
21.0624 9.943
21.0776 9.954
21.0927 9.941
21.1079 9.890
21.1231 9.743
21.1383 9.983
21.1534 9.810
21.1686 9.614
21.1838 9.621
21.1990 9.746
21.2141 9.828
21.2293 9.678
21.2445 9.712
21.2597 9.468
21.2748 9.597
21.2900 9.510
21.3052 9.738
21.3204 9.855
21.3355 9.539
21.3507 9.678
21.3659 9.785
21.3811 9.362
21.3962 9.403
21.4114 9.602
21.4266 9.611
21.4418 9.652
21.4569 9.470
21.4721 9.408
21.4873 9.219
21.5025 9.211
21.5176 9.362
21.5328 9.336
21.5480 9.309
21.5632 9.112
21.5783 9.189
21.5935 9.394
21.6087 9.420
21.6239 9.184
21.6390 9.101
21.6542 9.486
21.6694 9.183
21.6846 9.152
21.6997 9.221
21.7149 9.320
21.7301 9.097
21.7453 9.064
21.7604 9.192
21.7756 8.892
21.7908 8.946
21.8060 8.977
21.8211 9.269
21.8363 9.243
21.8515 8.989
21.8667 9.193
21.8818 9.161
21.8970 8.851
21.9122 9.173
21.9274 9.349
21.9425 9.138
21.9577 8.998
21.9729 9.113
21.9881 8.899
22.0032 8.794
22.0184 8.762
22.0336 8.782
22.0488 8.770
22.0639 8.705
22.0791 8.549
22.0943 8.554
22.1095 8.540
22.1246 8.566
22.1398 8.554
22.1550 8.549
22.1702 8.597
22.1853 8.596
22.2005 8.499
22.2157 8.581
22.2309 8.611
22.2460 8.632
22.2612 8.654
22.2764 8.527
22.2916 8.395
22.3067 8.452
22.3219 8.532
22.3371 8.491
22.3523 8.303
22.3674 8.110
22.3826 8.594
22.3978 8.572
22.4130 8.277
22.4281 8.458
22.4433 8.495
22.4585 8.329
22.4737 8.389
22.4888 8.448
22.5040 8.217
22.5192 8.505
22.5344 8.357
22.5495 8.458
22.5647 8.651
22.5799 8.244
22.5951 8.622
22.6102 8.453
22.6254 8.598
22.6406 8.679
22.6558 8.350
22.6709 8.470
22.6861 8.162
22.7013 8.208
22.7165 7.840
22.7316 6.516
