'Id: "" Comment: "" Operator: "Lab Manager" Anode: "Mo" Scantype: "Still (Eiger2R_500K (1D mode))" TimePerStep: "300" X: "11.8" Y: "9.4" Z: "11.284" 
7.2532 19.669
7.2684 18.824
7.2836 19.035
7.2987 18.667
7.3139 18.996
7.3291 19.062
7.3443 19.046
7.3594 19.436
7.3746 19.443
7.3898 19.095
7.4050 19.244
7.4201 19.234
7.4353 19.385
7.4505 19.191
7.4657 19.785
7.4808 19.613
7.4960 19.801
7.5112 19.652
7.5264 19.917
7.5415 19.767
7.5567 19.484
7.5719 19.962
7.5871 19.917
7.6022 19.854
7.6174 20.022
7.6326 19.888
7.6478 20.184
7.6629 20.267
7.6781 20.345
7.6933 20.440
7.7085 20.773
7.7236 20.709
7.7388 20.466
7.7540 20.333
7.7692 20.416
7.7843 20.717
7.7995 20.438
7.8147 20.408
7.8299 20.470
7.8450 20.462
7.8602 20.568
7.8754 20.594
7.8905 20.781
7.9057 20.810
7.9209 20.710
7.9361 21.146
7.9512 20.890
7.9664 20.615
7.9816 20.726
7.9968 20.515
8.0119 20.643
8.0271 21.105
8.0423 21.183
8.0575 21.122
8.0726 21.345
8.0878 21.108
8.1030 20.913
8.1182 21.362
8.1333 21.127
8.1485 21.560
8.1637 21.569
8.1789 21.515
8.1940 21.349
8.2092 21.572
8.2244 21.422
8.2396 21.433
8.2547 21.865
8.2699 22.320
8.2851 22.086
8.3003 21.903
8.3154 21.930
8.3306 21.714
8.3458 21.516
8.3610 21.914
8.3761 21.805
8.3913 21.804
8.4065 21.900
8.4217 21.796
8.4368 22.121
8.4520 22.557
8.4672 22.035
8.4824 22.209
8.4975 21.590
8.5127 22.129
8.5279 21.736
8.5431 21.665
8.5582 22.242
8.5734 22.299
8.5886 22.348
8.6038 22.331
8.6189 22.630
8.6341 22.271
8.6493 22.062
8.6645 21.908
8.6796 22.559
8.6948 22.254
8.7100 22.649
8.7252 22.352
8.7403 22.751
8.7555 22.528
8.7707 22.574
8.7859 22.408
8.8010 22.078
8.8162 22.600
8.8314 22.964
8.8466 22.987
8.8617 22.754
8.8769 22.705
8.8921 22.659
8.9073 22.569
8.9224 22.762
8.9376 22.769
8.9528 22.939
8.9680 22.558
8.9831 22.506
8.9983 22.857
9.0135 22.912
9.0287 22.849
9.0438 22.974
9.0590 22.628
9.0742 22.775
9.0894 22.953
9.1045 22.845
9.1197 23.060
9.1349 23.077
9.1501 22.523
9.1652 23.021
9.1804 22.809
9.1956 22.902
9.2108 22.823
9.2259 22.870
9.2411 23.209
9.2563 23.042
9.2715 22.957
9.2866 23.397
9.3018 23.381
9.3170 23.261
9.3322 22.753
9.3473 22.722
9.3625 22.825
9.3777 23.345
9.3929 23.837
9.4080 23.464
9.4232 23.104
9.4384 23.150
9.4536 23.425
9.4687 23.217
9.4839 22.867
9.4991 22.870
9.5143 23.103
9.5294 23.404
9.5446 23.560
9.5598 23.219
9.5750 23.493
9.5901 23.748
9.6053 23.672
9.6205 23.421
9.6357 23.356
9.6508 23.742
9.6660 23.609
9.6812 23.375
9.6964 23.818
9.7115 23.977
9.7267 23.819
9.7419 24.048
9.7571 24.266
9.7722 24.132
9.7874 24.152
9.8026 23.838
9.8178 23.473
9.8329 23.403
9.8481 23.196
9.8633 23.036
9.8785 23.106
9.8936 23.425
9.9088 23.284
9.9240 22.807
9.9392 23.162
9.9543 23.489
9.9695 23.554
9.9847 23.406
9.9999 22.993
10.0150 23.116
10.0302 23.381
10.0454 23.455
10.0606 23.364
10.0757 23.479
10.0909 23.660
10.1061 23.308
10.1213 23.607
10.1364 23.738
10.1516 23.227
10.1668 23.300
10.1820 23.589
10.1971 23.427
10.2123 23.123
10.2275 22.834
10.2427 22.870
10.2578 23.092
10.2730 23.015
10.2882 23.261
10.3034 23.025
10.3185 22.853
10.3337 22.711
10.3489 22.961
10.3641 22.808
10.3792 22.633
10.3944 22.785
10.4096 22.881
10.4248 22.847
10.4399 22.740
10.4551 22.964
10.4703 22.934
10.4855 22.598
10.5006 22.272
10.5158 22.337
10.5310 22.686
10.5462 22.469
10.5613 22.646
10.5765 23.174
10.5917 23.022
10.6069 22.768
10.6220 22.829
10.6372 22.476
10.6524 22.222
10.6676 22.578
10.6827 22.593
10.6979 22.697
10.7131 22.654
10.7283 22.620
10.7434 22.719
10.7586 22.442
10.7738 22.365
10.7890 22.416
10.8041 22.377
10.8193 22.423
10.8345 22.259
10.8497 22.295
10.8648 22.027
10.8800 22.214
10.8952 22.069
10.9104 22.133
10.9255 22.288
10.9407 22.275
10.9559 22.334
10.9711 22.033
10.9862 22.171
11.0014 22.348
11.0166 22.540
11.0318 22.140
11.0469 21.774
11.0621 22.050
11.0773 21.860
11.0925 21.976
11.1076 22.250
11.1228 22.103
11.1380 21.638
11.1532 21.926
11.1683 21.723
11.1835 21.575
11.1987 21.813
11.2139 21.536
11.2290 21.362
11.2442 21.299
11.2594 21.598
11.2746 21.782
11.2897 21.242
11.3049 21.547
11.3201 21.661
11.3353 21.670
11.3504 21.070
11.3656 21.505
11.3808 21.647
11.3960 21.360
11.4111 20.908
11.4263 21.596
11.4415 21.362
11.4567 21.190
11.4718 21.339
11.4870 21.392
11.5022 21.318
11.5174 21.158
11.5325 21.329
11.5477 21.412
11.5629 20.991
11.5781 21.163
11.5932 21.175
11.6084 20.678
11.6236 20.773
11.6388 20.847
11.6539 20.811
11.6691 20.883
11.6843 20.574
11.6995 20.128
11.7146 20.358
11.7298 20.660
11.7450 20.495
11.7602 20.591
11.7753 20.156
11.7905 19.969
11.8057 19.986
11.8209 20.166
11.8360 19.910
11.8512 19.960
11.8664 20.113
11.8816 19.977
11.8967 19.548
11.9119 19.506
11.9271 19.555
11.9423 19.642
11.9574 19.533
11.9726 19.284
11.9878 19.348
12.0030 19.264
12.0181 19.245
12.0333 19.080
12.0485 19.069
12.0637 18.797
12.0788 18.701
12.0940 18.833
12.1092 18.984
12.1244 18.498
12.1395 18.443
12.1547 18.645
12.1699 18.379
12.1851 18.359
12.2002 18.492
12.2154 18.341
12.2306 18.198
12.2458 17.998
12.2609 17.819
12.2761 17.812
12.2913 17.503
12.3065 17.663
12.3216 17.784
12.3368 17.259
12.3520 17.361
12.3672 17.404
12.3823 17.544
12.3975 17.389
12.4127 17.021
12.4279 16.941
12.4430 17.084
12.4582 17.093
12.4734 17.034
12.4886 16.856
12.5037 16.621
12.5189 16.786
12.5341 16.787
12.5493 16.670
12.5644 16.642
12.5796 16.484
12.5948 16.284
12.6100 16.031
12.6251 15.806
12.6403 15.914
12.6555 15.942
12.6707 15.837
12.6858 15.962
12.7010 15.809
12.7162 15.443
12.7314 15.472
12.7465 15.281
12.7617 15.151
12.7769 15.328
12.7921 15.211
12.8072 15.034
12.8224 15.146
12.8376 15.096
12.8528 14.944
12.8679 14.919
12.8831 15.055
12.8983 15.073
12.9135 14.733
12.9286 14.740
12.9438 14.621
12.9590 14.326
12.9742 14.366
12.9893 14.446
13.0045 14.417
13.0197 14.309
13.0349 14.267
13.0500 14.272
13.0652 14.313
13.0804 14.190
13.0956 14.145
13.1107 13.982
13.1259 13.765
13.1411 13.902
13.1563 14.019
13.1714 14.092
13.1866 13.971
13.2018 13.655
13.2170 13.613
13.2321 13.471
13.2473 13.543
13.2625 13.474
13.2777 13.000
13.2928 12.907
13.3080 12.940
13.3232 13.284
13.3384 13.329
13.3535 13.241
13.3687 13.234
13.3839 13.042
13.3991 12.889
13.4142 12.937
13.4294 12.912
13.4446 12.776
13.4598 12.836
13.4749 12.841
13.4901 12.830
13.5053 12.683
13.5205 12.550
13.5356 12.476
13.5508 12.396
13.5660 12.487
13.5812 12.411
13.5963 12.276
13.6115 12.149
13.6267 12.134
13.6419 12.261
13.6570 12.032
13.6722 12.187
13.6874 12.084
13.7026 11.913
13.7177 11.971
13.7329 12.238
13.7481 12.081
13.7633 11.839
13.7784 12.132
13.7936 12.233
13.8088 12.395
13.8239 12.563
13.8391 12.542
13.8543 12.487
13.8695 12.697
13.8846 12.596
13.8998 12.212
13.9150 12.176
13.9302 12.322
13.9453 12.252
13.9605 12.105
13.9757 11.928
13.9909 11.911
14.0060 11.648
14.0212 11.668
14.0364 11.716
14.0516 11.443
14.0667 11.199
14.0819 11.703
14.0971 11.541
14.1123 11.427
14.1274 11.159
14.1426 11.244
14.1578 11.530
14.1730 11.513
14.1881 11.472
14.2033 11.234
14.2185 11.526
14.2337 11.436
14.2488 11.742
14.2640 11.787
14.2792 11.941
14.2944 11.623
14.3095 12.061
14.3247 12.484
14.3399 12.671
14.3551 12.809
14.3702 13.181
14.3854 13.387
14.4006 13.712
14.4158 13.496
14.4309 13.219
14.4461 13.006
14.4613 13.182
14.4765 12.781
14.4916 12.627
14.5068 12.436
14.5220 11.932
14.5372 11.764
14.5523 11.294
14.5675 11.222
14.5827 11.127
14.5979 11.068
14.6130 11.225
14.6282 10.976
14.6434 10.929
14.6586 10.932
14.6737 10.879
14.6889 10.688
14.7041 10.974
14.7193 10.646
14.7344 10.593
14.7496 10.857
14.7648 10.691
14.7800 10.876
14.7951 11.017
14.8103 10.833
14.8255 10.596
14.8407 10.748
14.8558 10.756
14.8710 10.612
14.8862 10.628
14.9014 10.477
14.9165 10.700
14.9317 10.799
14.9469 10.446
14.9621 10.223
14.9772 10.282
14.9924 10.458
15.0076 10.376
15.0228 10.504
15.0379 10.326
15.0531 10.213
15.0683 10.539
15.0835 10.373
15.0986 10.490
15.1138 10.590
15.1290 10.315
15.1442 10.401
15.1593 10.660
15.1745 10.239
15.1897 10.161
15.2049 10.450
15.2200 10.356
15.2352 10.254
15.2504 10.277
15.2656 10.203
15.2807 10.563
15.2959 10.190
15.3111 10.306
15.3263 10.076
15.3414 10.358
15.3566 10.302
15.3718 10.461
15.3870 10.590
15.4021 10.225
15.4173 10.068
15.4325 10.491
15.4477 10.340
15.4628 10.431
15.4780 10.524
15.4932 10.111
15.5084 10.141
15.5235 10.277
15.5387 10.399
15.5539 10.175
15.5691 9.949
15.5842 10.095
15.5994 10.089
15.6146 10.165
15.6298 9.726
15.6449 9.997
15.6601 10.041
15.6753 10.089
15.6905 9.827
15.7056 10.267
15.7208 9.904
15.7360 9.887
15.7512 9.726
15.7663 9.453
15.7815 9.472
15.7967 9.959
15.8119 9.927
15.8270 9.630
15.8422 9.666
15.8574 10.158
15.8726 10.041
15.8877 9.772
15.9029 9.710
15.9181 9.763
15.9333 9.882
15.9484 9.770
15.9636 9.678
15.9788 9.729
15.9940 9.934
16.0091 9.749
16.0243 9.594
16.0395 9.792
16.0547 9.459
16.0698 9.858
16.0850 9.654
16.1002 9.553
16.1154 9.632
16.1305 9.786
16.1457 9.655
16.1609 9.793
16.1761 9.786
16.1912 9.516
16.2064 9.676
16.2216 9.971
16.2368 9.709
16.2519 9.692
16.2671 10.014
16.2823 9.957
16.2975 9.910
16.3126 9.824
16.3278 9.874
16.3430 10.000
16.3582 10.203
16.3733 10.289
16.3885 10.258
16.4037 10.099
16.4189 9.886
16.4340 9.739
16.4492 9.881
16.4644 9.864
16.4796 9.875
16.4947 9.846
16.5099 9.715
16.5251 9.659
16.5403 9.546
16.5554 9.730
16.5706 9.929
16.5858 9.895
16.6010 9.562
16.6161 9.407
16.6313 9.608
16.6465 9.780
16.6617 9.830
16.6768 9.863
16.6920 9.724
16.7072 9.895
16.7224 10.006
16.7375 10.051
16.7527 10.369
16.7679 10.130
16.7831 10.065
16.7982 10.020
16.8134 10.375
16.8286 10.323
16.8438 9.958
16.8589 10.005
16.8741 10.017
16.8893 9.849
16.9045 9.972
16.9196 10.050
16.9348 9.933
16.9500 9.847
16.9652 9.961
16.9803 9.974
16.9955 10.142
17.0107 10.112
17.0259 9.944
17.0410 10.022
17.0562 10.190
17.0714 10.703
17.0866 10.741
17.1017 10.593
17.1169 10.718
17.1321 10.864
17.1473 11.264
17.1624 11.693
17.1776 12.390
17.1928 13.077
17.2080 13.834
17.2231 15.089
17.2383 16.309
17.2535 17.427
17.2687 18.435
17.2838 18.700
17.2990 17.988
17.3142 17.067
17.3294 16.478
17.3445 16.459
17.3597 16.287
17.3749 15.863
17.3901 15.197
17.4052 13.986
17.4204 13.154
17.4356 12.550
17.4508 11.971
17.4659 11.659
17.4811 11.437
17.4963 11.138
17.5115 11.106
17.5266 11.074
17.5418 10.595
17.5570 10.540
17.5722 10.805
17.5873 10.955
17.6025 11.183
17.6177 11.365
17.6329 11.456
17.6480 11.609
17.6632 11.746
17.6784 11.622
17.6936 11.719
17.7087 11.825
17.7239 11.587
17.7391 11.401
17.7543 11.195
17.7694 11.129
17.7846 11.226
17.7998 11.305
17.8150 11.118
17.8301 10.708
17.8453 10.695
17.8605 10.484
17.8757 10.215
17.8908 10.433
17.9060 10.467
17.9212 10.190
17.9364 10.212
17.9515 10.252
17.9667 10.158
17.9819 10.176
17.9971 10.410
18.0122 10.417
18.0274 10.197
18.0426 10.175
18.0578 10.209
18.0729 10.145
18.0881 9.970
18.1033 9.983
18.1185 10.175
18.1336 10.145
18.1488 10.122
18.1640 10.143
18.1792 9.997
18.1943 9.929
18.2095 9.905
18.2247 9.827
18.2399 9.706
18.2550 9.779
18.2702 9.732
18.2854 9.808
18.3006 9.922
18.3157 9.653
18.3309 9.833
18.3461 9.783
18.3613 9.733
18.3764 9.751
18.3916 9.683
18.4068 9.700
18.4220 9.663
18.4371 9.701
18.4523 9.934
18.4675 9.666
18.4827 9.710
18.4978 9.982
18.5130 9.963
18.5282 9.744
18.5434 9.684
18.5585 9.823
18.5737 9.816
18.5889 9.863
18.6041 9.817
18.6192 9.719
18.6344 9.774
18.6496 9.769
18.6648 9.816
18.6799 9.740
18.6951 9.752
18.7103 9.796
18.7255 9.749
18.7406 9.742
18.7558 9.802
18.7710 9.701
18.7862 9.829
18.8013 9.720
18.8165 9.618
18.8317 9.702
18.8469 9.778
18.8620 10.001
18.8772 10.134
18.8924 10.022
18.9076 9.854
18.9227 9.776
18.9379 10.032
18.9531 10.262
18.9683 10.127
18.9834 10.029
18.9986 10.068
19.0138 10.183
19.0290 10.155
19.0441 10.140
19.0593 10.238
19.0745 10.280
19.0897 10.223
19.1048 10.277
19.1200 10.291
19.1352 10.244
19.1504 10.279
19.1655 10.478
19.1807 10.542
19.1959 10.582
19.2111 10.628
19.2262 10.713
19.2414 10.761
19.2566 10.769
19.2718 10.925
19.2869 10.936
19.3021 11.004
19.3173 10.813
19.3325 10.857
19.3476 11.019
19.3628 10.963
19.3780 11.035
19.3932 11.205
19.4083 11.250
19.4235 11.303
19.4387 11.255
19.4539 11.015
19.4690 11.258
19.4842 11.346
19.4994 11.275
19.5146 11.318
19.5297 11.439
19.5449 11.666
19.5601 11.711
19.5753 11.537
19.5904 11.665
19.6056 11.693
19.6208 11.594
19.6360 11.585
19.6511 11.685
19.6663 11.741
19.6815 11.602
19.6967 11.706
19.7118 11.706
19.7270 11.706
19.7422 11.763
19.7574 11.690
19.7725 11.615
19.7877 11.693
19.8029 11.827
19.8180 12.133
19.8332 12.017
19.8484 12.026
19.8636 12.449
19.8787 12.592
19.8939 12.670
19.9091 12.852
19.9243 13.434
19.9394 14.109
19.9546 14.423
19.9698 14.465
19.9850 14.492
20.0001 14.408
20.0153 14.216
20.0305 13.896
20.0457 13.601
20.0608 13.533
20.0760 13.487
20.0912 13.467
20.1064 13.511
20.1215 13.383
20.1367 13.090
20.1519 12.880
20.1671 12.911
20.1822 12.675
20.1974 12.632
20.2126 12.726
20.2278 12.523
20.2429 12.329
20.2581 12.388
20.2733 12.108
20.2885 11.865
20.3036 11.918
20.3188 11.896
20.3340 11.767
20.3492 11.977
20.3643 11.765
20.3795 11.823
20.3947 11.925
20.4099 11.754
20.4250 11.786
20.4402 11.851
20.4554 11.952
20.4706 11.901
20.4857 11.932
20.5009 11.871
20.5161 11.651
20.5313 11.345
20.5464 11.328
20.5616 11.530
20.5768 11.483
20.5920 11.315
20.6071 11.213
20.6223 11.184
20.6375 11.043
20.6527 10.903
20.6678 11.033
20.6830 10.394
20.6982 10.221
20.7134 10.682
20.7285 10.329
20.7437 10.265
20.7589 10.335
20.7741 10.375
20.7892 10.338
20.8044 10.335
20.8196 10.283
20.8348 10.563
20.8499 10.331
20.8651 10.362
20.8803 10.194
20.8955 10.158
20.9106 10.319
20.9258 10.257
20.9410 10.431
20.9562 10.153
20.9713 10.148
20.9865 10.115
21.0017 10.066
21.0169 10.247
21.0320 10.199
21.0472 9.658
21.0624 9.750
21.0776 9.916
21.0927 10.186
21.1079 9.562
21.1231 9.951
21.1383 9.931
21.1534 9.927
21.1686 9.820
21.1838 10.099
21.1990 9.825
21.2141 10.095
21.2293 9.866
21.2445 9.568
21.2597 9.519
21.2748 9.618
21.2900 9.283
21.3052 9.853
21.3204 9.615
21.3355 9.717
21.3507 9.575
21.3659 9.745
21.3811 9.657
21.3962 9.519
21.4114 9.361
21.4266 9.306
21.4418 9.520
21.4569 9.491
21.4721 9.433
21.4873 9.361
21.5025 9.662
21.5176 9.323
21.5328 9.311
21.5480 9.168
21.5632 9.147
21.5783 8.926
21.5935 9.106
21.6087 9.287
21.6239 9.197
21.6390 9.167
21.6542 9.254
21.6694 9.098
21.6846 9.081
21.6997 9.055
21.7149 9.222
21.7301 9.226
21.7453 8.994
21.7604 9.018
21.7756 9.461
21.7908 9.191
21.8060 8.993
21.8211 8.860
21.8363 8.843
21.8515 9.037
21.8667 9.082
21.8818 9.316
21.8970 9.073
21.9122 9.023
21.9274 9.150
21.9425 8.993
21.9577 8.860
21.9729 8.899
21.9881 8.817
22.0032 9.068
22.0184 9.077
22.0336 8.798
22.0488 8.754
22.0639 8.783
22.0791 8.666
22.0943 8.663
22.1095 8.639
22.1246 8.458
22.1398 8.651
22.1550 8.792
22.1702 8.679
22.1853 8.597
22.2005 8.915
22.2157 8.816
22.2309 8.627
22.2460 8.634
22.2612 8.421
22.2764 8.334
22.2916 8.565
22.3067 8.642
22.3219 8.598
22.3371 8.783
22.3523 8.528
22.3674 8.469
22.3826 8.521
22.3978 8.580
22.4130 8.812
22.4281 8.533
22.4433 8.510
22.4585 8.290
22.4737 8.323
22.4888 8.432
22.5040 8.411
22.5192 8.231
22.5344 8.230
22.5495 8.400
22.5647 8.332
22.5799 8.483
22.5951 8.467
22.6102 8.174
22.6254 8.444
22.6406 8.427
22.6558 8.297
22.6709 8.349
22.6861 8.238
22.7013 8.263
22.7165 7.835
22.7316 6.472
