'Id: "" Comment: "" Operator: "Lab Manager" Anode: "Mo" Scantype: "Still (Eiger2R_500K (1D mode))" TimePerStep: "300" X: "11.8" Y: "9.4" Z: "11.284" 
7.2532 18.773
7.2684 18.884
7.2836 18.918
7.2987 19.418
7.3139 19.200
7.3291 19.333
7.3443 19.060
7.3594 19.378
7.3746 19.507
7.3898 19.514
7.4050 19.259
7.4201 19.448
7.4353 19.548
7.4505 19.332
7.4657 19.362
7.4808 19.461
7.4960 19.827
7.5112 19.954
7.5264 19.759
7.5415 19.943
7.5567 19.722
7.5719 19.804
7.5871 20.132
7.6022 19.875
7.6174 20.090
7.6326 20.035
7.6478 20.125
7.6629 20.203
7.6781 20.876
7.6933 20.868
7.7085 20.407
7.7236 20.449
7.7388 20.590
7.7540 20.300
7.7692 20.580
7.7843 20.743
7.7995 20.508
7.8147 20.725
7.8299 20.789
7.8450 20.635
7.8602 20.676
7.8754 21.048
7.8905 21.222
7.9057 21.056
7.9209 20.889
7.9361 21.207
7.9512 21.395
7.9664 21.289
7.9816 21.328
7.9968 21.101
8.0119 20.949
8.0271 21.288
8.0423 21.622
8.0575 21.533
8.0726 21.506
8.0878 21.415
8.1030 21.681
8.1182 21.532
8.1333 21.508
8.1485 21.399
8.1637 21.578
8.1789 21.723
8.1940 21.626
8.2092 21.881
8.2244 21.739
8.2396 22.019
8.2547 22.074
8.2699 22.079
8.2851 21.724
8.3003 21.789
8.3154 21.993
8.3306 22.294
8.3458 21.650
8.3610 21.827
8.3761 21.986
8.3913 22.086
8.4065 22.113
8.4217 22.425
8.4368 22.421
8.4520 21.977
8.4672 22.640
8.4824 21.822
8.4975 21.522
8.5127 21.903
8.5279 21.739
8.5431 22.260
8.5582 22.481
8.5734 22.198
8.5886 22.475
8.6038 22.377
8.6189 22.068
8.6341 22.340
8.6493 22.352
8.6645 22.280
8.6796 22.681
8.6948 22.814
8.7100 22.431
8.7252 22.289
8.7403 22.430
8.7555 22.312
8.7707 22.488
8.7859 22.950
8.8010 22.849
8.8162 22.683
8.8314 22.505
8.8466 23.213
8.8617 23.232
8.8769 22.680
8.8921 22.577
8.9073 22.405
8.9224 22.427
8.9376 22.344
8.9528 22.675
8.9680 22.671
8.9831 22.936
8.9983 22.857
9.0135 22.763
9.0287 23.034
9.0438 22.763
9.0590 22.639
9.0742 22.597
9.0894 22.944
9.1045 22.810
9.1197 22.487
9.1349 22.529
9.1501 23.108
9.1652 23.075
9.1804 23.151
9.1956 23.190
9.2108 23.221
9.2259 22.945
9.2411 22.992
9.2563 23.041
9.2715 22.725
9.2866 22.717
9.3018 23.019
9.3170 23.428
9.3322 23.404
9.3473 23.685
9.3625 23.445
9.3777 23.202
9.3929 22.860
9.4080 22.917
9.4232 23.208
9.4384 23.247
9.4536 23.001
9.4687 23.196
9.4839 23.464
9.4991 23.554
9.5143 23.432
9.5294 23.144
9.5446 22.948
9.5598 23.011
9.5750 23.376
9.5901 23.213
9.6053 23.300
9.6205 23.520
9.6357 23.456
9.6508 23.459
9.6660 23.662
9.6812 23.777
9.6964 23.832
9.7115 23.978
9.7267 24.075
9.7419 24.223
9.7571 24.333
9.7722 24.367
9.7874 23.982
9.8026 23.898
9.8178 23.761
9.8329 23.454
9.8481 23.625
9.8633 23.620
9.8785 23.507
9.8936 23.614
9.9088 23.991
9.9240 23.940
9.9392 24.021
9.9543 24.287
9.9695 24.067
9.9847 23.892
9.9999 23.793
10.0150 23.736
10.0302 23.589
10.0454 23.736
10.0606 23.799
10.0757 24.098
10.0909 23.825
10.1061 23.844
10.1213 24.187
10.1364 24.328
10.1516 24.112
10.1668 23.780
10.1820 23.877
10.1971 24.223
10.2123 24.170
10.2275 23.495
10.2427 23.850
10.2578 23.991
10.2730 23.625
10.2882 23.670
10.3034 23.565
10.3185 23.549
10.3337 23.452
10.3489 23.281
10.3641 23.365
10.3792 23.312
10.3944 23.100
10.4096 22.966
10.4248 22.975
10.4399 23.066
10.4551 22.999
10.4703 22.757
10.4855 22.796
10.5006 22.984
10.5158 22.670
10.5310 22.500
10.5462 22.480
10.5613 22.618
10.5765 22.470
10.5917 22.996
10.6069 22.884
10.6220 22.933
10.6372 22.828
10.6524 22.772
10.6676 22.563
10.6827 22.542
10.6979 22.671
10.7131 22.576
10.7283 22.454
10.7434 22.719
10.7586 22.519
10.7738 22.235
10.7890 22.184
10.8041 22.460
10.8193 22.363
10.8345 22.320
10.8497 22.533
10.8648 22.421
10.8800 22.490
10.8952 22.339
10.9104 22.275
10.9255 22.624
10.9407 22.393
10.9559 22.251
10.9711 22.401
10.9862 22.209
11.0014 22.368
11.0166 22.174
11.0318 22.213
11.0469 21.713
11.0621 21.491
11.0773 21.953
11.0925 21.818
11.1076 21.645
11.1228 21.611
11.1380 22.009
11.1532 21.848
11.1683 21.662
11.1835 21.651
11.1987 22.032
11.2139 21.715
11.2290 21.766
11.2442 21.765
11.2594 21.630
11.2746 21.601
11.2897 21.908
11.3049 21.644
11.3201 21.705
11.3353 21.348
11.3504 21.710
11.3656 21.472
11.3808 21.096
11.3960 21.383
11.4111 21.438
11.4263 21.670
11.4415 21.689
11.4567 21.613
11.4718 21.398
11.4870 21.228
11.5022 21.165
11.5174 21.161
11.5325 21.063
11.5477 20.728
11.5629 20.696
11.5781 20.757
11.5932 20.694
11.6084 21.083
11.6236 20.879
11.6388 20.264
11.6539 20.528
11.6691 20.731
11.6843 20.559
11.6995 20.556
11.7146 20.480
11.7298 20.636
11.7450 20.394
11.7602 20.226
11.7753 20.454
11.7905 20.035
11.8057 19.868
11.8209 20.050
11.8360 20.356
11.8512 20.054
11.8664 19.983
11.8816 19.743
11.8967 19.704
11.9119 19.663
11.9271 19.527
11.9423 19.454
11.9574 19.522
11.9726 19.534
11.9878 19.481
12.0030 19.284
12.0181 19.305
12.0333 18.935
12.0485 19.036
12.0637 19.153
12.0788 18.789
12.0940 18.650
12.1092 18.545
12.1244 18.451
12.1395 18.375
12.1547 18.361
12.1699 18.300
12.1851 18.326
12.2002 18.096
12.2154 18.139
12.2306 18.335
12.2458 17.984
12.2609 17.996
12.2761 17.865
12.2913 17.648
12.3065 17.861
12.3216 17.897
12.3368 17.576
12.3520 17.373
12.3672 17.239
12.3823 17.204
12.3975 17.157
12.4127 17.264
12.4279 17.164
12.4430 17.014
12.4582 16.898
12.4734 16.851
12.4886 16.882
12.5037 16.874
12.5189 16.928
12.5341 16.976
12.5493 16.733
12.5644 16.438
12.5796 16.120
12.5948 16.024
12.6100 15.897
12.6251 16.129
12.6403 16.144
12.6555 15.919
12.6707 15.618
12.6858 15.722
12.7010 15.724
12.7162 15.372
12.7314 15.160
12.7465 15.203
12.7617 15.108
12.7769 15.156
12.7921 15.379
12.8072 15.101
12.8224 14.877
12.8376 15.004
12.8528 15.008
12.8679 14.904
12.8831 14.795
12.8983 14.714
12.9135 14.516
12.9286 14.382
12.9438 14.699
12.9590 14.720
12.9742 14.499
12.9893 14.436
13.0045 14.423
13.0197 14.228
13.0349 14.076
13.0500 13.925
13.0652 14.059
13.0804 14.337
13.0956 14.567
13.1107 14.799
13.1259 14.560
13.1411 14.146
13.1563 13.957
13.1714 13.931
13.1866 13.819
13.2018 13.784
13.2170 13.517
13.2321 13.338
13.2473 13.241
13.2625 13.146
13.2777 13.150
13.2928 13.080
13.3080 13.281
13.3232 13.122
13.3384 12.939
13.3535 12.950
13.3687 12.842
13.3839 12.676
13.3991 12.749
13.4142 12.759
13.4294 12.629
13.4446 12.753
13.4598 12.750
13.4749 12.556
13.4901 12.515
13.5053 12.678
13.5205 12.755
13.5356 12.401
13.5508 12.289
13.5660 12.401
13.5812 12.433
13.5963 12.470
13.6115 12.217
13.6267 12.190
13.6419 12.005
13.6570 11.808
13.6722 12.071
13.6874 12.273
13.7026 12.119
13.7177 11.897
13.7329 11.870
13.7481 11.969
13.7633 12.084
13.7784 12.036
13.7936 12.068
13.8088 12.056
13.8239 12.236
13.8391 12.228
13.8543 12.307
13.8695 12.154
13.8846 12.123
13.8998 12.077
13.9150 12.140
13.9302 12.060
13.9453 11.922
13.9605 11.729
13.9757 11.582
13.9909 11.982
14.0060 11.487
14.0212 11.586
14.0364 11.286
14.0516 11.244
14.0667 11.354
14.0819 11.512
14.0971 11.473
14.1123 11.324
14.1274 11.061
14.1426 11.332
14.1578 11.415
14.1730 11.502
14.1881 11.392
14.2033 11.316
14.2185 11.555
14.2337 11.858
14.2488 11.341
14.2640 11.564
14.2792 11.825
14.2944 11.880
14.3095 12.015
14.3247 12.062
14.3399 12.155
14.3551 12.300
14.3702 12.957
14.3854 12.834
14.4006 12.916
14.4158 13.269
14.4309 12.977
14.4461 13.093
14.4613 13.274
14.4765 13.373
14.4916 13.113
14.5068 12.508
14.5220 13.196
14.5372 12.791
14.5523 12.499
14.5675 12.350
14.5827 12.209
14.5979 12.171
14.6130 12.235
14.6282 12.088
14.6434 11.694
14.6586 11.686
14.6737 11.742
14.6889 11.652
14.7041 11.366
14.7193 11.250
14.7344 11.072
14.7496 11.184
14.7648 11.422
14.7800 11.028
14.7951 11.064
14.8103 11.278
14.8255 10.895
14.8407 10.588
14.8558 10.761
14.8710 10.848
14.8862 11.094
14.9014 10.767
14.9165 10.789
14.9317 10.995
14.9469 10.640
14.9621 10.711
14.9772 10.531
14.9924 10.445
15.0076 10.618
15.0228 10.712
15.0379 10.177
15.0531 10.590
15.0683 10.600
15.0835 10.624
15.0986 10.614
15.1138 10.331
15.1290 10.604
15.1442 10.876
15.1593 10.677
15.1745 10.765
15.1897 10.580
15.2049 10.542
15.2200 10.298
15.2352 9.892
15.2504 10.682
15.2656 10.177
15.2807 10.181
15.2959 10.520
15.3111 10.433
15.3263 10.119
15.3414 10.408
15.3566 10.804
15.3718 10.155
15.3870 9.934
15.4021 10.174
15.4173 10.317
15.4325 10.663
15.4477 10.756
15.4628 10.652
15.4780 10.364
15.4932 10.622
15.5084 10.365
15.5235 10.607
15.5387 10.593
15.5539 10.668
15.5691 10.560
15.5842 10.565
15.5994 10.203
15.6146 10.145
15.6298 10.209
15.6449 10.051
15.6601 9.989
15.6753 10.288
15.6905 9.972
15.7056 9.861
15.7208 9.847
15.7360 10.190
15.7512 10.289
15.7663 9.669
15.7815 9.638
15.7967 9.917
15.8119 10.201
15.8270 10.091
15.8422 9.857
15.8574 10.008
15.8726 9.896
15.8877 9.884
15.9029 9.695
15.9181 9.672
15.9333 9.852
15.9484 10.006
15.9636 9.864
15.9788 9.649
15.9940 9.853
16.0091 10.173
16.0243 10.047
16.0395 9.859
16.0547 9.803
16.0698 9.502
16.0850 9.655
16.1002 9.849
16.1154 9.625
16.1305 9.640
16.1457 9.762
16.1609 9.544
16.1761 9.680
16.1912 9.594
16.2064 9.480
16.2216 9.595
16.2368 9.928
16.2519 10.004
16.2671 9.958
16.2823 10.270
16.2975 10.207
16.3126 10.004
16.3278 9.893
16.3430 9.853
16.3582 9.966
16.3733 10.177
16.3885 10.080
16.4037 10.186
16.4189 10.223
16.4340 10.221
16.4492 10.109
16.4644 10.063
16.4796 9.794
16.4947 9.712
16.5099 9.799
16.5251 9.802
16.5403 9.775
16.5554 9.846
16.5706 9.675
16.5858 9.484
16.6010 9.761
16.6161 9.779
16.6313 9.876
16.6465 9.918
16.6617 9.898
16.6768 10.082
16.6920 10.238
16.7072 10.194
16.7224 10.083
16.7375 10.039
16.7527 10.088
16.7679 10.200
16.7831 10.050
16.7982 10.063
16.8134 10.026
16.8286 9.956
16.8438 10.058
16.8589 9.971
16.8741 9.737
16.8893 9.793
16.9045 9.829
16.9196 9.850
16.9348 9.869
16.9500 9.920
16.9652 10.004
16.9803 9.989
16.9955 10.011
17.0107 9.842
17.0259 9.900
17.0410 9.951
17.0562 10.004
17.0714 10.036
17.0866 10.231
17.1017 10.590
17.1169 10.929
17.1321 11.116
17.1473 11.284
17.1624 11.790
17.1776 12.526
17.1928 13.209
17.2080 14.189
17.2231 15.160
17.2383 16.021
17.2535 17.404
17.2687 18.354
17.2838 18.396
17.2990 18.084
17.3142 17.272
17.3294 16.506
17.3445 16.072
17.3597 15.838
17.3749 15.808
17.3901 15.189
17.4052 14.097
17.4204 13.144
17.4356 12.472
17.4508 11.958
17.4659 11.478
17.4811 11.238
17.4963 11.230
17.5115 11.220
17.5266 11.053
17.5418 11.019
17.5570 10.956
17.5722 10.916
17.5873 11.120
17.6025 11.215
17.6177 11.072
17.6329 10.916
17.6480 10.794
17.6632 10.709
17.6784 10.776
17.6936 10.795
17.7087 10.764
17.7239 10.639
17.7391 10.857
17.7543 10.907
17.7694 10.840
17.7846 11.038
17.7998 11.184
17.8150 11.519
17.8301 11.749
17.8453 11.637
17.8605 11.568
17.8757 11.793
17.8908 12.119
17.9060 11.970
17.9212 11.726
17.9364 11.574
17.9515 11.138
17.9667 10.976
17.9819 11.223
17.9971 11.173
18.0122 10.939
18.0274 10.804
18.0426 10.514
18.0578 10.175
18.0729 10.232
18.0881 10.110
18.1033 10.146
18.1185 10.303
18.1336 10.340
18.1488 10.348
18.1640 10.060
18.1792 9.857
18.1943 9.988
18.2095 9.885
18.2247 9.883
18.2399 9.902
18.2550 9.917
18.2702 9.944
18.2854 9.783
18.3006 9.798
18.3157 10.012
18.3309 9.895
18.3461 9.821
18.3613 9.884
18.3764 9.824
18.3916 9.778
18.4068 9.760
18.4220 9.611
18.4371 9.552
18.4523 9.692
18.4675 9.889
18.4827 9.862
18.4978 9.790
18.5130 9.865
18.5282 9.902
18.5434 9.907
18.5585 9.925
18.5737 9.872
18.5889 9.588
18.6041 9.657
18.6192 9.778
18.6344 9.813
18.6496 9.896
18.6648 9.867
18.6799 9.651
18.6951 9.540
18.7103 9.610
18.7255 9.591
18.7406 9.707
18.7558 9.755
18.7710 9.883
18.7862 9.824
18.8013 9.635
18.8165 9.558
18.8317 9.904
18.8469 10.006
18.8620 9.982
18.8772 9.771
18.8924 9.988
18.9076 10.239
18.9227 9.871
18.9379 9.970
18.9531 10.109
18.9683 9.813
18.9834 9.887
18.9986 9.934
19.0138 10.069
19.0290 10.124
19.0441 10.071
19.0593 10.154
19.0745 10.357
19.0897 10.358
19.1048 10.246
19.1200 10.355
19.1352 10.449
19.1504 10.534
19.1655 10.620
19.1807 10.541
19.1959 10.579
19.2111 10.709
19.2262 10.691
19.2414 10.777
19.2566 10.953
19.2718 10.810
19.2869 10.788
19.3021 10.947
19.3173 11.072
19.3325 11.307
19.3476 11.078
19.3628 11.004
19.3780 11.212
19.3932 11.121
19.4083 11.290
19.4235 11.304
19.4387 11.176
19.4539 11.206
19.4690 11.384
19.4842 11.364
19.4994 11.399
19.5146 11.457
19.5297 11.428
19.5449 11.434
19.5601 11.724
19.5753 11.769
19.5904 11.552
19.6056 11.722
19.6208 11.623
19.6360 11.393
19.6511 11.640
19.6663 11.616
19.6815 11.614
19.6967 11.672
19.7118 11.652
19.7270 11.886
19.7422 11.997
19.7574 11.912
19.7725 11.746
19.7877 11.806
19.8029 11.840
19.8180 11.735
19.8332 11.947
19.8484 12.414
19.8636 12.642
19.8787 12.593
19.8939 12.588
19.9091 12.860
19.9243 13.205
19.9394 13.521
19.9546 13.850
19.9698 14.151
19.9850 14.418
20.0001 14.704
20.0153 14.263
20.0305 13.875
20.0457 13.819
20.0608 13.592
20.0760 13.656
20.0912 14.036
20.1064 13.624
20.1215 13.203
20.1367 13.110
20.1519 12.820
20.1671 12.737
20.1822 12.718
20.1974 12.829
20.2126 13.030
20.2278 12.782
20.2429 12.440
20.2581 12.242
20.2733 11.939
20.2885 11.676
20.3036 11.600
20.3188 11.955
20.3340 11.900
20.3492 11.758
20.3643 11.496
20.3795 11.314
20.3947 11.134
20.4099 11.157
20.4250 11.127
20.4402 11.092
20.4554 10.989
20.4706 10.732
20.4857 10.786
20.5009 10.893
20.5161 10.919
20.5313 11.158
20.5464 10.943
20.5616 11.067
20.5768 10.786
20.5920 10.825
20.6071 11.070
20.6223 11.051
20.6375 11.065
20.6527 11.044
20.6678 10.667
20.6830 10.654
20.6982 10.883
20.7134 10.549
20.7285 10.817
20.7437 11.013
20.7589 11.100
20.7741 11.260
20.7892 10.804
20.8044 10.539
20.8196 10.628
20.8348 10.364
20.8499 10.762
20.8651 10.415
20.8803 10.250
20.8955 10.456
20.9106 10.431
20.9258 10.355
20.9410 10.397
20.9562 10.393
20.9713 10.296
20.9865 10.092
21.0017 10.391
21.0169 10.337
21.0320 10.384
21.0472 10.227
21.0624 10.223
21.0776 10.102
21.0927 10.139
21.1079 9.962
21.1231 10.115
21.1383 9.672
21.1534 9.762
21.1686 9.798
21.1838 9.766
21.1990 9.817
21.2141 9.736
21.2293 9.595
21.2445 9.244
21.2597 9.608
21.2748 9.505
21.2900 9.575
21.3052 9.573
21.3204 9.672
21.3355 9.310
21.3507 9.616
21.3659 9.404
21.3811 9.648
21.3962 9.756
21.4114 9.575
21.4266 9.595
21.4418 9.277
21.4569 9.317
21.4721 9.545
21.4873 9.418
21.5025 9.362
21.5176 9.113
21.5328 9.677
21.5480 9.491
21.5632 9.265
21.5783 8.917
21.5935 9.251
21.6087 9.124
21.6239 9.309
21.6390 9.072
21.6542 8.922
21.6694 9.057
21.6846 9.044
21.6997 9.101
21.7149 8.946
21.7301 9.040
21.7453 8.894
21.7604 9.156
21.7756 8.923
21.7908 8.932
21.8060 8.937
21.8211 9.053
21.8363 9.038
21.8515 9.003
21.8667 8.969
21.8818 9.062
21.8970 9.127
21.9122 9.044
21.9274 9.002
21.9425 8.994
21.9577 9.045
21.9729 8.949
21.9881 8.874
22.0032 8.894
22.0184 8.965
22.0336 9.070
22.0488 8.944
22.0639 8.642
22.0791 8.573
22.0943 8.687
22.1095 8.724
22.1246 8.719
22.1398 8.802
22.1550 8.786
22.1702 8.665
22.1853 8.595
22.2005 8.596
22.2157 8.590
22.2309 8.611
22.2460 8.252
22.2612 8.265
22.2764 8.511
22.2916 8.649
22.3067 8.492
22.3219 8.558
22.3371 8.503
22.3523 8.706
22.3674 8.635
22.3826 8.579
22.3978 8.498
22.4130 8.551
22.4281 8.442
22.4433 8.563
22.4585 8.524
22.4737 8.670
22.4888 8.337
22.5040 8.381
22.5192 8.264
22.5344 8.377
22.5495 8.424
22.5647 8.331
22.5799 8.270
22.5951 8.603
22.6102 8.676
22.6254 8.638
22.6406 8.583
22.6558 8.153
22.6709 8.358
22.6861 8.129
22.7013 8.393
22.7165 7.900
22.7316 6.360
