'Id: "" Comment: "" Operator: "Lab Manager" Anode: "Mo" Scantype: "Still (Eiger2R_500K (1D mode))" TimePerStep: "300" X: "11.8" Y: "9.4" Z: "11.284" 
7.2532 18.781
7.2684 18.907
7.2836 18.828
7.2987 18.728
7.3139 19.100
7.3291 19.175
7.3443 19.235
7.3594 19.388
7.3746 19.658
7.3898 19.062
7.4050 18.798
7.4201 19.142
7.4353 19.109
7.4505 19.346
7.4657 19.173
7.4808 19.761
7.4960 19.692
7.5112 19.513
7.5264 19.720
7.5415 19.789
7.5567 19.626
7.5719 19.714
7.5871 19.941
7.6022 19.717
7.6174 19.880
7.6326 19.914
7.6478 20.232
7.6629 19.999
7.6781 20.200
7.6933 20.111
7.7085 20.051
7.7236 20.153
7.7388 19.918
7.7540 19.998
7.7692 20.250
7.7843 20.512
7.7995 20.886
7.8147 20.721
7.8299 20.437
7.8450 20.178
7.8602 20.603
7.8754 20.853
7.8905 20.557
7.9057 20.847
7.9209 20.985
7.9361 20.849
7.9512 20.667
7.9664 20.696
7.9816 20.772
7.9968 20.616
8.0119 20.990
8.0271 21.342
8.0423 21.049
8.0575 20.778
8.0726 21.096
8.0878 21.518
8.1030 21.519
8.1182 21.521
8.1333 21.130
8.1485 21.061
8.1637 21.203
8.1789 21.210
8.1940 21.323
8.2092 21.113
8.2244 21.416
8.2396 21.411
8.2547 21.231
8.2699 21.201
8.2851 21.410
8.3003 21.256
8.3154 21.895
8.3306 21.559
8.3458 21.180
8.3610 21.722
8.3761 21.553
8.3913 21.907
8.4065 21.689
8.4217 21.318
8.4368 21.660
8.4520 21.549
8.4672 21.180
8.4824 21.821
8.4975 21.529
8.5127 22.204
8.5279 22.172
8.5431 21.701
8.5582 21.431
8.5734 22.337
8.5886 21.442
8.6038 21.630
8.6189 21.735
8.6341 21.975
8.6493 22.599
8.6645 21.689
8.6796 22.368
8.6948 21.911
8.7100 22.491
8.7252 22.061
8.7403 22.517
8.7555 22.199
8.7707 22.321
8.7859 22.254
8.8010 22.157
8.8162 22.594
8.8314 22.443
8.8466 22.422
8.8617 22.088
8.8769 22.142
8.8921 22.263
8.9073 22.032
8.9224 22.365
8.9376 22.366
8.9528 22.836
8.9680 22.374
8.9831 22.509
8.9983 22.741
9.0135 22.842
9.0287 22.592
9.0438 22.688
9.0590 22.638
9.0742 22.754
9.0894 22.810
9.1045 22.679
9.1197 22.582
9.1349 22.689
9.1501 22.504
9.1652 22.627
9.1804 22.604
9.1956 22.521
9.2108 22.527
9.2259 22.504
9.2411 22.834
9.2563 22.989
9.2715 22.980
9.2866 22.756
9.3018 22.794
9.3170 23.079
9.3322 23.040
9.3473 22.757
9.3625 22.783
9.3777 22.850
9.3929 22.927
9.4080 23.088
9.4232 22.928
9.4384 22.649
9.4536 22.803
9.4687 22.882
9.4839 22.722
9.4991 22.807
9.5143 23.071
9.5294 23.146
9.5446 23.294
9.5598 23.141
9.5750 23.340
9.5901 23.347
9.6053 23.131
9.6205 23.142
9.6357 23.543
9.6508 23.457
9.6660 23.093
9.6812 23.144
9.6964 23.319
9.7115 23.494
9.7267 23.368
9.7419 23.442
9.7571 23.681
9.7722 23.607
9.7874 23.440
9.8026 23.596
9.8178 23.654
9.8329 23.269
9.8481 23.153
9.8633 23.304
9.8785 22.944
9.8936 22.863
9.9088 23.266
9.9240 23.060
9.9392 22.861
9.9543 23.147
9.9695 23.099
9.9847 22.713
9.9999 22.680
10.0150 22.734
10.0302 23.081
10.0454 23.024
10.0606 22.815
10.0757 23.068
10.0909 23.361
10.1061 23.363
10.1213 23.315
10.1364 23.585
10.1516 23.438
10.1668 23.319
10.1820 23.321
10.1971 22.903
10.2123 23.050
10.2275 23.337
10.2427 22.968
10.2578 22.822
10.2730 22.794
10.2882 22.836
10.3034 22.671
10.3185 22.738
10.3337 22.493
10.3489 22.319
10.3641 22.374
10.3792 22.333
10.3944 22.309
10.4096 22.532
10.4248 22.469
10.4399 22.211
10.4551 22.172
10.4703 22.266
10.4855 22.630
10.5006 22.862
10.5158 22.455
10.5310 22.713
10.5462 22.632
10.5613 22.480
10.5765 22.193
10.5917 22.321
10.6069 22.826
10.6220 22.768
10.6372 22.681
10.6524 22.427
10.6676 22.379
10.6827 22.433
10.6979 22.414
10.7131 22.176
10.7283 22.470
10.7434 22.358
10.7586 22.524
10.7738 22.229
10.7890 22.385
10.8041 22.361
10.8193 22.296
10.8345 22.203
10.8497 22.175
10.8648 22.112
10.8800 22.100
10.8952 22.032
10.9104 21.777
10.9255 21.973
10.9407 22.001
10.9559 21.871
10.9711 21.851
10.9862 21.495
11.0014 21.551
11.0166 21.885
11.0318 21.920
11.0469 21.809
11.0621 21.578
11.0773 21.520
11.0925 21.908
11.1076 21.854
11.1228 21.485
11.1380 21.236
11.1532 21.582
11.1683 21.763
11.1835 21.838
11.1987 21.751
11.2139 21.472
11.2290 21.477
11.2442 21.594
11.2594 21.345
11.2746 21.430
11.2897 21.597
11.3049 21.961
11.3201 21.566
11.3353 21.347
11.3504 21.521
11.3656 21.490
11.3808 21.487
11.3960 21.371
11.4111 21.412
11.4263 21.224
11.4415 21.336
11.4567 21.261
11.4718 21.167
11.4870 21.371
11.5022 21.139
11.5174 20.701
11.5325 20.823
11.5477 21.052
11.5629 21.022
11.5781 20.622
11.5932 20.569
11.6084 20.794
11.6236 20.981
11.6388 20.602
11.6539 20.166
11.6691 20.323
11.6843 20.564
11.6995 20.984
11.7146 20.162
11.7298 20.181
11.7450 20.201
11.7602 20.041
11.7753 20.255
11.7905 20.296
11.8057 20.140
11.8209 20.178
11.8360 20.076
11.8512 19.738
11.8664 19.489
11.8816 19.814
11.8967 19.899
11.9119 19.609
11.9271 19.520
11.9423 19.367
11.9574 19.725
11.9726 19.526
11.9878 19.173
12.0030 18.967
12.0181 18.839
12.0333 19.121
12.0485 19.094
12.0637 18.858
12.0788 18.834
12.0940 18.851
12.1092 18.869
12.1244 18.780
12.1395 18.786
12.1547 18.655
12.1699 18.456
12.1851 17.924
12.2002 17.909
12.2154 18.236
12.2306 18.039
12.2458 17.899
12.2609 17.783
12.2761 17.592
12.2913 17.496
12.3065 17.503
12.3216 17.414
12.3368 17.453
12.3520 17.325
12.3672 17.232
12.3823 17.285
12.3975 17.300
12.4127 17.046
12.4279 17.156
12.4430 17.453
12.4582 17.140
12.4734 16.880
12.4886 16.876
12.5037 16.471
12.5189 16.365
12.5341 16.814
12.5493 16.662
12.5644 16.252
12.5796 16.142
12.5948 15.992
12.6100 15.709
12.6251 15.725
12.6403 15.746
12.6555 15.946
12.6707 15.966
12.6858 16.004
12.7010 15.986
12.7162 15.667
12.7314 15.509
12.7465 15.294
12.7617 15.081
12.7769 15.359
12.7921 15.354
12.8072 15.249
12.8224 14.916
12.8376 14.663
12.8528 14.990
12.8679 15.177
12.8831 14.899
12.8983 14.790
12.9135 14.607
12.9286 14.487
12.9438 14.257
12.9590 14.093
12.9742 14.131
12.9893 14.122
13.0045 14.257
13.0197 14.215
13.0349 13.908
13.0500 13.847
13.0652 13.955
13.0804 13.987
13.0956 13.718
13.1107 13.545
13.1259 13.751
13.1411 13.667
13.1563 13.600
13.1714 13.664
13.1866 13.444
13.2018 13.384
13.2170 13.504
13.2321 13.536
13.2473 13.631
13.2625 13.446
13.2777 13.085
13.2928 13.079
13.3080 13.016
13.3232 12.941
13.3384 13.250
13.3535 13.173
13.3687 12.932
13.3839 12.884
13.3991 12.787
13.4142 13.112
13.4294 13.215
13.4446 12.993
13.4598 12.749
13.4749 12.581
13.4901 12.638
13.5053 12.634
13.5205 12.547
13.5356 12.425
13.5508 12.444
13.5660 12.605
13.5812 12.387
13.5963 12.146
13.6115 12.109
13.6267 12.090
13.6419 11.984
13.6570 11.841
13.6722 11.788
13.6874 11.795
13.7026 11.959
13.7177 12.027
13.7329 12.023
13.7481 11.962
13.7633 12.053
13.7784 11.998
13.7936 11.901
13.8088 12.048
13.8239 12.246
13.8391 12.261
13.8543 12.429
13.8695 12.353
13.8846 12.392
13.8998 12.264
13.9150 12.169
13.9302 12.102
13.9453 11.873
13.9605 11.716
13.9757 11.755
13.9909 11.603
14.0060 11.602
14.0212 11.538
14.0364 11.598
14.0516 11.631
14.0667 11.642
14.0819 11.558
14.0971 11.428
14.1123 11.578
14.1274 11.635
14.1426 11.553
14.1578 11.661
14.1730 11.681
14.1881 11.595
14.2033 11.398
14.2185 11.519
14.2337 11.860
14.2488 11.754
14.2640 11.832
14.2792 12.021
14.2944 11.876
14.3095 11.860
14.3247 11.838
14.3399 12.317
14.3551 12.737
14.3702 12.757
14.3854 12.827
14.4006 13.091
14.4158 13.278
14.4309 12.920
14.4461 13.169
14.4613 12.580
14.4765 12.232
14.4916 12.138
14.5068 12.100
14.5220 11.738
14.5372 11.400
14.5523 11.344
14.5675 11.261
14.5827 11.136
14.5979 11.120
14.6130 11.147
14.6282 10.603
14.6434 10.739
14.6586 10.892
14.6737 10.805
14.6889 10.641
14.7041 10.764
14.7193 10.704
14.7344 10.737
14.7496 10.705
14.7648 10.392
14.7800 10.780
14.7951 10.553
14.8103 10.389
14.8255 10.125
14.8407 10.592
14.8558 10.693
14.8710 10.635
14.8862 10.296
14.9014 10.459
14.9165 10.763
14.9317 10.909
14.9469 10.093
14.9621 10.262
14.9772 10.291
14.9924 10.336
15.0076 10.506
15.0228 10.210
15.0379 10.184
15.0531 10.149
15.0683 10.369
15.0835 10.076
15.0986 10.063
15.1138 9.992
15.1290 10.458
15.1442 10.193
15.1593 9.665
15.1745 9.885
15.1897 9.904
15.2049 9.824
15.2200 9.922
15.2352 10.205
15.2504 10.011
15.2656 9.956
15.2807 9.960
15.2959 9.699
15.3111 9.916
15.3263 10.030
15.3414 10.333
15.3566 9.962
15.3718 10.031
15.3870 9.990
15.4021 10.073
15.4173 9.981
15.4325 10.100
15.4477 9.820
15.4628 10.252
15.4780 10.164
15.4932 10.040
15.5084 10.182
15.5235 9.885
15.5387 10.016
15.5539 9.811
15.5691 9.849
15.5842 9.855
15.5994 9.991
15.6146 9.853
15.6298 9.913
15.6449 10.029
15.6601 9.625
15.6753 10.285
15.6905 9.965
15.7056 9.739
15.7208 9.674
15.7360 9.755
15.7512 9.765
15.7663 9.558
15.7815 9.641
15.7967 9.860
15.8119 9.621
15.8270 9.782
15.8422 9.607
15.8574 9.472
15.8726 9.158
15.8877 9.154
15.9029 9.330
15.9181 9.573
15.9333 9.758
15.9484 9.627
15.9636 9.447
15.9788 9.681
15.9940 9.510
16.0091 9.397
16.0243 9.590
16.0395 9.570
16.0547 9.445
16.0698 9.396
16.0850 9.301
16.1002 9.452
16.1154 9.508
16.1305 9.393
16.1457 9.700
16.1609 9.613
16.1761 9.347
16.1912 9.320
16.2064 9.661
16.2216 9.551
16.2368 9.461
16.2519 9.599
16.2671 9.731
16.2823 9.770
16.2975 9.744
16.3126 9.615
16.3278 9.861
16.3430 9.636
16.3582 9.916
16.3733 10.039
16.3885 9.983
16.4037 9.826
16.4189 9.748
16.4340 9.642
16.4492 9.608
16.4644 9.882
16.4796 9.707
16.4947 9.523
16.5099 9.396
16.5251 9.564
16.5403 9.384
16.5554 9.427
16.5706 9.643
16.5858 9.695
16.6010 9.679
16.6161 9.552
16.6313 9.461
16.6465 9.490
16.6617 9.627
16.6768 9.819
16.6920 9.886
16.7072 9.993
16.7224 9.910
16.7375 9.886
16.7527 9.958
16.7679 9.891
16.7831 9.606
16.7982 9.794
16.8134 9.961
16.8286 9.529
16.8438 9.614
16.8589 9.751
16.8741 9.708
16.8893 9.771
16.9045 9.621
16.9196 9.804
16.9348 9.873
16.9500 9.788
16.9652 9.806
16.9803 9.710
16.9955 9.749
17.0107 9.792
17.0259 9.795
17.0410 9.784
17.0562 10.000
17.0714 10.097
17.0866 10.220
17.1017 10.474
17.1169 10.587
17.1321 10.821
17.1473 11.269
17.1624 11.716
17.1776 12.258
17.1928 13.214
17.2080 14.148
17.2231 15.080
17.2383 16.181
17.2535 17.537
17.2687 18.441
17.2838 18.505
17.2990 17.884
17.3142 17.055
17.3294 16.338
17.3445 15.900
17.3597 15.769
17.3749 15.796
17.3901 15.230
17.4052 14.018
17.4204 13.194
17.4356 12.409
17.4508 11.944
17.4659 11.747
17.4811 11.430
17.4963 11.173
17.5115 11.134
17.5266 11.144
17.5418 10.996
17.5570 11.086
17.5722 11.043
17.5873 10.859
17.6025 10.803
17.6177 10.895
17.6329 11.042
17.6480 11.163
17.6632 11.450
17.6784 11.591
17.6936 11.570
17.7087 11.398
17.7239 11.358
17.7391 11.301
17.7543 11.145
17.7694 11.232
17.7846 11.192
17.7998 11.012
17.8150 10.796
17.8301 10.615
17.8453 10.590
17.8605 10.597
17.8757 10.413
17.8908 10.354
17.9060 10.438
17.9212 10.335
17.9364 10.338
17.9515 10.285
17.9667 10.223
17.9819 10.135
17.9971 10.261
18.0122 10.450
18.0274 10.284
18.0426 10.202
18.0578 10.085
18.0729 10.022
18.0881 9.796
18.1033 9.809
18.1185 10.081
18.1336 9.871
18.1488 9.929
18.1640 10.232
18.1792 10.222
18.1943 9.955
18.2095 9.900
18.2247 9.846
18.2399 9.860
18.2550 9.881
18.2702 9.865
18.2854 9.807
18.3006 9.814
18.3157 9.717
18.3309 9.596
18.3461 9.761
18.3613 9.765
18.3764 9.682
18.3916 9.834
18.4068 9.660
18.4220 9.699
18.4371 9.850
18.4523 9.926
18.4675 9.832
18.4827 9.633
18.4978 9.667
18.5130 9.726
18.5282 9.676
18.5434 9.634
18.5585 9.617
18.5737 9.584
18.5889 9.739
18.6041 9.869
18.6192 9.811
18.6344 9.690
18.6496 9.705
18.6648 9.565
18.6799 9.680
18.6951 9.624
18.7103 9.846
18.7255 9.854
18.7406 9.784
18.7558 9.732
18.7710 9.841
18.7862 9.840
18.8013 9.547
18.8165 9.608
18.8317 9.778
18.8469 9.799
18.8620 9.947
18.8772 10.002
18.8924 9.848
18.9076 9.986
18.9227 9.902
18.9379 9.875
18.9531 9.952
18.9683 9.958
18.9834 10.002
18.9986 10.255
19.0138 10.268
19.0290 10.106
19.0441 10.095
19.0593 10.208
19.0745 10.283
19.0897 10.164
19.1048 10.190
19.1200 10.347
19.1352 10.569
19.1504 10.573
19.1655 10.345
19.1807 10.228
19.1959 10.529
19.2111 10.825
19.2262 10.818
19.2414 10.686
19.2566 10.717
19.2718 10.939
19.2869 10.935
19.3021 10.892
19.3173 11.080
19.3325 11.143
19.3476 11.127
19.3628 11.185
19.3780 11.226
19.3932 11.274
19.4083 11.237
19.4235 11.384
19.4387 11.488
19.4539 11.163
19.4690 11.072
19.4842 11.167
19.4994 11.302
19.5146 11.497
19.5297 11.418
19.5449 11.472
19.5601 11.530
19.5753 11.697
19.5904 11.746
19.6056 11.795
19.6208 11.811
19.6360 11.820
19.6511 11.749
19.6663 11.678
19.6815 11.673
19.6967 11.817
19.7118 12.013
19.7270 11.788
19.7422 11.561
19.7574 11.721
19.7725 12.014
19.7877 11.998
19.8029 12.120
19.8180 12.333
19.8332 12.313
19.8484 12.181
19.8636 12.449
19.8787 12.881
19.8939 13.059
19.9091 13.072
19.9243 13.169
19.9394 13.529
19.9546 13.851
19.9698 14.724
19.9850 14.920
20.0001 14.462
20.0153 14.212
20.0305 14.141
20.0457 14.237
20.0608 14.054
20.0760 14.008
20.0912 14.187
20.1064 13.828
20.1215 13.516
20.1367 13.484
20.1519 13.272
20.1671 13.163
20.1822 13.170
20.1974 12.932
20.2126 12.828
20.2278 12.764
20.2429 12.566
20.2581 12.685
20.2733 12.546
20.2885 12.314
20.3036 12.053
20.3188 11.957
20.3340 12.013
20.3492 11.996
20.3643 11.942
20.3795 11.916
20.3947 11.940
20.4099 11.779
20.4250 11.913
20.4402 12.048
20.4554 12.058
20.4706 11.985
20.4857 11.703
20.5009 11.631
20.5161 11.736
20.5313 11.935
20.5464 11.778
20.5616 11.668
20.5768 11.435
20.5920 11.299
20.6071 10.991
20.6223 10.958
20.6375 11.132
20.6527 10.958
20.6678 10.683
20.6830 10.607
20.6982 10.786
20.7134 10.650
20.7285 10.451
20.7437 10.671
20.7589 10.586
20.7741 10.608
20.7892 10.451
20.8044 10.595
20.8196 10.457
20.8348 10.277
20.8499 10.615
20.8651 10.657
20.8803 10.387
20.8955 10.176
20.9106 9.967
20.9258 10.244
20.9410 10.191
20.9562 10.145
20.9713 9.996
20.9865 10.151
21.0017 9.762
21.0169 9.975
21.0320 10.375
21.0472 9.910
21.0624 10.403
21.0776 10.007
21.0927 9.843
21.1079 10.321
21.1231 10.117
21.1383 9.880
21.1534 9.639
21.1686 10.056
21.1838 10.178
21.1990 9.854
21.2141 9.740
21.2293 9.680
21.2445 9.754
21.2597 9.621
21.2748 9.685
21.2900 9.682
21.3052 9.457
21.3204 9.604
21.3355 9.736
21.3507 9.635
21.3659 9.378
21.3811 9.625
21.3962 9.508
21.4114 9.590
21.4266 9.601
21.4418 9.356
21.4569 9.405
21.4721 9.420
21.4873 9.377
21.5025 9.281
21.5176 9.643
21.5328 9.698
21.5480 9.452
21.5632 9.307
21.5783 9.187
21.5935 9.455
21.6087 9.081
21.6239 9.449
21.6390 9.096
21.6542 9.278
21.6694 9.339
21.6846 9.367
21.6997 9.202
21.7149 9.118
21.7301 9.093
21.7453 9.127
21.7604 9.054
21.7756 9.080
21.7908 9.128
21.8060 9.059
21.8211 9.088
21.8363 9.173
21.8515 9.127
21.8667 9.037
21.8818 8.883
21.8970 9.072
21.9122 9.046
21.9274 8.995
21.9425 8.879
21.9577 8.841
21.9729 9.069
21.9881 9.196
22.0032 8.994
22.0184 8.861
22.0336 8.800
22.0488 8.808
22.0639 8.823
22.0791 8.750
22.0943 8.795
22.1095 8.874
22.1246 8.568
22.1398 8.453
22.1550 8.674
22.1702 8.614
22.1853 8.647
22.2005 8.806
22.2157 8.594
22.2309 8.317
22.2460 8.370
22.2612 8.489
22.2764 8.635
22.2916 8.617
22.3067 8.395
22.3219 8.568
22.3371 8.373
22.3523 8.396
22.3674 8.300
22.3826 8.414
22.3978 8.575
22.4130 8.708
22.4281 8.611
22.4433 8.708
22.4585 8.683
22.4737 8.545
22.4888 8.576
22.5040 8.367
22.5192 8.463
22.5344 8.675
22.5495 8.277
22.5647 8.427
22.5799 8.266
22.5951 8.376
22.6102 8.230
22.6254 8.880
22.6406 8.327
22.6558 8.385
22.6709 8.341
22.6861 7.959
22.7013 7.948
22.7165 7.870
22.7316 6.437
