'Id: "" Comment: "" Operator: "Lab Manager" Anode: "Mo" Scantype: "Still (Eiger2R_500K (1D mode))" TimePerStep: "300" X: "11.8" Y: "9.4" Z: "11.284" 
7.2532 18.695
7.2684 18.965
7.2836 19.118
7.2987 19.097
7.3139 19.301
7.3291 19.059
7.3443 19.206
7.3594 19.042
7.3746 19.180
7.3898 19.107
7.4050 19.490
7.4201 19.494
7.4353 19.179
7.4505 19.063
7.4657 19.363
7.4808 19.524
7.4960 19.824
7.5112 19.594
7.5264 19.496
7.5415 19.855
7.5567 19.861
7.5719 19.836
7.5871 19.751
7.6022 19.782
7.6174 19.656
7.6326 20.203
7.6478 20.502
7.6629 20.460
7.6781 20.279
7.6933 19.904
7.7085 19.978
7.7236 20.256
7.7388 20.131
7.7540 19.974
7.7692 20.223
7.7843 20.420
7.7995 20.386
7.8147 20.593
7.8299 20.619
7.8450 20.767
7.8602 20.837
7.8754 20.677
7.8905 20.380
7.9057 20.387
7.9209 20.890
7.9361 20.789
7.9512 20.814
7.9664 21.369
7.9816 21.231
7.9968 20.712
8.0119 20.958
8.0271 21.132
8.0423 21.167
8.0575 21.034
8.0726 20.924
8.0878 21.241
8.1030 21.387
8.1182 21.190
8.1333 20.977
8.1485 21.338
8.1637 21.250
8.1789 21.193
8.1940 21.264
8.2092 21.685
8.2244 21.472
8.2396 21.404
8.2547 21.390
8.2699 21.233
8.2851 21.831
8.3003 21.335
8.3154 21.620
8.3306 21.654
8.3458 21.619
8.3610 21.691
8.3761 21.689
8.3913 21.652
8.4065 21.685
8.4217 21.885
8.4368 22.043
8.4520 22.021
8.4672 21.813
8.4824 21.833
8.4975 22.175
8.5127 22.100
8.5279 21.716
8.5431 21.958
8.5582 21.598
8.5734 22.376
8.5886 21.963
8.6038 22.245
8.6189 21.818
8.6341 22.267
8.6493 21.995
8.6645 22.170
8.6796 21.929
8.6948 21.957
8.7100 22.241
8.7252 22.364
8.7403 22.558
8.7555 21.846
8.7707 22.429
8.7859 22.424
8.8010 22.107
8.8162 22.263
8.8314 22.419
8.8466 22.633
8.8617 22.124
8.8769 22.344
8.8921 22.194
8.9073 22.879
8.9224 22.565
8.9376 22.724
8.9528 22.652
8.9680 22.107
8.9831 22.639
8.9983 22.435
9.0135 22.834
9.0287 22.710
9.0438 23.053
9.0590 22.894
9.0742 22.711
9.0894 22.907
9.1045 23.067
9.1197 22.612
9.1349 22.179
9.1501 22.646
9.1652 22.986
9.1804 22.706
9.1956 22.392
9.2108 22.559
9.2259 22.697
9.2411 22.396
9.2563 22.506
9.2715 22.532
9.2866 23.083
9.3018 22.905
9.3170 22.928
9.3322 23.368
9.3473 23.010
9.3625 23.060
9.3777 23.141
9.3929 23.041
9.4080 23.264
9.4232 23.162
9.4384 23.138
9.4536 23.173
9.4687 22.974
9.4839 23.048
9.4991 23.019
9.5143 23.233
9.5294 22.747
9.5446 22.524
9.5598 23.033
9.5750 23.355
9.5901 22.991
9.6053 22.747
9.6205 22.862
9.6357 23.003
9.6508 23.293
9.6660 23.664
9.6812 23.670
9.6964 23.475
9.7115 24.125
9.7267 24.249
9.7419 24.089
9.7571 24.050
9.7722 23.503
9.7874 23.247
9.8026 23.464
9.8178 23.766
9.8329 23.688
9.8481 23.394
9.8633 23.420
9.8785 23.372
9.8936 23.445
9.9088 23.310
9.9240 23.366
9.9392 23.405
9.9543 23.047
9.9695 23.090
9.9847 23.288
9.9999 23.388
10.0150 23.219
10.0302 23.029
10.0454 23.342
10.0606 23.527
10.0757 23.269
10.0909 23.240
10.1061 23.069
10.1213 23.228
10.1364 23.304
10.1516 23.345
10.1668 23.416
10.1820 23.490
10.1971 23.350
10.2123 23.117
10.2275 22.993
10.2427 22.950
10.2578 22.629
10.2730 22.770
10.2882 22.908
10.3034 23.003
10.3185 23.227
10.3337 22.850
10.3489 22.750
10.3641 22.743
10.3792 22.583
10.3944 22.875
10.4096 22.817
10.4248 22.924
10.4399 23.138
10.4551 22.607
10.4703 22.535
10.4855 22.509
10.5006 22.740
10.5158 22.562
10.5310 22.445
10.5462 22.431
10.5613 22.286
10.5765 22.327
10.5917 22.662
10.6069 22.636
10.6220 22.568
10.6372 22.609
10.6524 22.752
10.6676 22.742
10.6827 22.394
10.6979 22.328
10.7131 22.494
10.7283 22.367
10.7434 22.190
10.7586 22.721
10.7738 22.673
10.7890 22.494
10.8041 22.041
10.8193 22.061
10.8345 22.001
10.8497 22.299
10.8648 22.142
10.8800 22.027
10.8952 21.933
10.9104 21.687
10.9255 22.003
10.9407 22.326
10.9559 22.370
10.9711 22.351
10.9862 22.421
11.0014 22.196
11.0166 22.234
11.0318 22.249
11.0469 21.818
11.0621 21.821
11.0773 22.062
11.0925 21.865
11.1076 21.499
11.1228 21.326
11.1380 21.855
11.1532 22.123
11.1683 21.964
11.1835 21.500
11.1987 21.666
11.2139 21.691
11.2290 21.709
11.2442 21.410
11.2594 21.667
11.2746 21.476
11.2897 21.529
11.3049 21.489
11.3201 21.391
11.3353 21.165
11.3504 21.378
11.3656 21.346
11.3808 21.033
11.3960 21.172
11.4111 21.167
11.4263 21.246
11.4415 21.164
11.4567 21.202
11.4718 21.108
11.4870 21.226
11.5022 20.926
11.5174 21.279
11.5325 21.082
11.5477 20.765
11.5629 20.796
11.5781 20.788
11.5932 20.983
11.6084 21.220
11.6236 21.143
11.6388 20.949
11.6539 20.685
11.6691 20.808
11.6843 20.473
11.6995 20.061
11.7146 20.322
11.7298 20.096
11.7450 20.187
11.7602 20.109
11.7753 20.506
11.7905 20.169
11.8057 19.958
11.8209 19.989
11.8360 19.975
11.8512 20.130
11.8664 19.983
11.8816 19.879
11.8967 19.941
11.9119 19.534
11.9271 19.364
11.9423 19.376
11.9574 19.498
11.9726 19.391
11.9878 19.524
12.0030 19.414
12.0181 19.290
12.0333 19.262
12.0485 19.343
12.0637 18.881
12.0788 18.864
12.0940 18.725
12.1092 18.677
12.1244 18.533
12.1395 18.544
12.1547 18.286
12.1699 18.318
12.1851 18.423
12.2002 18.334
12.2154 18.543
12.2306 17.924
12.2458 17.554
12.2609 17.594
12.2761 17.674
12.2913 17.654
12.3065 17.703
12.3216 17.568
12.3368 17.699
12.3520 17.465
12.3672 17.299
12.3823 17.014
12.3975 17.073
12.4127 17.260
12.4279 16.938
12.4430 16.759
12.4582 16.811
12.4734 16.757
12.4886 16.877
12.5037 16.896
12.5189 16.729
12.5341 16.517
12.5493 16.574
12.5644 16.734
12.5796 16.275
12.5948 16.197
12.6100 16.131
12.6251 15.940
12.6403 15.715
12.6555 15.438
12.6707 15.618
12.6858 15.650
12.7010 15.578
12.7162 15.407
12.7314 15.690
12.7465 15.587
12.7617 15.291
12.7769 15.491
12.7921 15.456
12.8072 15.122
12.8224 15.018
12.8376 14.970
12.8528 15.033
12.8679 14.958
12.8831 14.873
12.8983 14.794
12.9135 14.691
12.9286 14.367
12.9438 14.440
12.9590 14.653
12.9742 14.503
12.9893 14.406
13.0045 14.143
13.0197 13.923
13.0349 14.003
13.0500 14.088
13.0652 14.083
13.0804 13.895
13.0956 13.660
13.1107 13.815
13.1259 13.888
13.1411 13.787
13.1563 13.522
13.1714 13.437
13.1866 13.506
13.2018 13.440
13.2170 13.386
13.2321 13.442
13.2473 13.513
13.2625 13.219
13.2777 13.277
13.2928 13.224
13.3080 12.844
13.3232 12.998
13.3384 13.133
13.3535 12.928
13.3687 13.102
13.3839 13.109
13.3991 12.933
13.4142 12.883
13.4294 12.548
13.4446 12.856
13.4598 13.035
13.4749 12.440
13.4901 12.274
13.5053 12.400
13.5205 12.478
13.5356 12.250
13.5508 12.195
13.5660 12.163
13.5812 12.255
13.5963 12.198
13.6115 11.955
13.6267 12.068
13.6419 12.228
13.6570 12.297
13.6722 12.247
13.6874 12.316
13.7026 11.953
13.7177 12.005
13.7329 11.980
13.7481 12.110
13.7633 12.300
13.7784 12.173
13.7936 12.321
13.8088 12.130
13.8239 12.176
13.8391 12.226
13.8543 12.093
13.8695 12.147
13.8846 12.200
13.8998 12.240
13.9150 12.024
13.9302 11.977
13.9453 12.101
13.9605 12.276
13.9757 11.662
13.9909 11.267
14.0060 11.468
14.0212 11.628
14.0364 11.573
14.0516 11.613
14.0667 11.612
14.0819 11.890
14.0971 11.586
14.1123 11.850
14.1274 11.625
14.1426 11.748
14.1578 11.742
14.1730 11.459
14.1881 11.629
14.2033 11.848
14.2185 11.844
14.2337 11.707
14.2488 11.634
14.2640 11.916
14.2792 11.861
14.2944 11.858
14.3095 12.022
14.3247 12.139
14.3399 12.312
14.3551 12.246
14.3702 12.725
14.3854 13.040
14.4006 13.133
14.4158 13.316
14.4309 13.362
14.4461 12.698
14.4613 12.538
14.4765 12.265
14.4916 12.187
14.5068 12.097
14.5220 11.831
14.5372 11.455
14.5523 10.948
14.5675 11.152
14.5827 10.864
14.5979 10.936
14.6130 10.881
14.6282 10.935
14.6434 11.147
14.6586 10.881
14.6737 10.834
14.6889 10.579
14.7041 10.554
14.7193 10.718
14.7344 10.496
14.7496 10.391
14.7648 10.809
14.7800 10.602
14.7951 10.627
14.8103 10.584
14.8255 10.594
14.8407 10.416
14.8558 10.562
14.8710 10.327
14.8862 10.449
14.9014 10.243
14.9165 10.732
14.9317 10.799
14.9469 10.509
14.9621 10.433
14.9772 9.912
14.9924 10.342
15.0076 10.076
15.0228 10.381
15.0379 10.316
15.0531 10.407
15.0683 10.094
15.0835 10.193
15.0986 10.431
15.1138 10.125
15.1290 10.373
15.1442 10.246
15.1593 10.182
15.1745 10.289
15.1897 10.182
15.2049 10.012
15.2200 9.964
15.2352 10.089
15.2504 10.228
15.2656 9.946
15.2807 9.896
15.2959 10.187
15.3111 10.079
15.3263 10.095
15.3414 10.146
15.3566 10.037
15.3718 10.023
15.3870 9.957
15.4021 10.284
15.4173 9.955
15.4325 9.929
15.4477 9.900
15.4628 10.078
15.4780 10.074
15.4932 10.151
15.5084 10.086
15.5235 10.219
15.5387 10.145
15.5539 9.817
15.5691 9.993
15.5842 9.884
15.5994 9.699
15.6146 10.025
15.6298 9.523
15.6449 9.813
15.6601 9.664
15.6753 9.430
15.6905 9.730
15.7056 9.440
15.7208 9.708
15.7360 9.766
15.7512 9.664
15.7663 9.490
15.7815 9.686
15.7967 9.959
15.8119 9.783
15.8270 9.735
15.8422 9.328
15.8574 9.482
15.8726 9.783
15.8877 9.349
15.9029 9.695
15.9181 9.713
15.9333 9.521
15.9484 9.474
15.9636 9.419
15.9788 9.742
15.9940 9.628
16.0091 9.745
16.0243 9.564
16.0395 9.765
16.0547 9.623
16.0698 9.470
16.0850 9.604
16.1002 9.713
16.1154 9.724
16.1305 9.625
16.1457 9.507
16.1609 9.526
16.1761 9.628
16.1912 9.671
16.2064 9.732
16.2216 9.537
16.2368 9.588
16.2519 9.654
16.2671 9.733
16.2823 9.623
16.2975 9.421
16.3126 9.691
16.3278 9.765
16.3430 9.661
16.3582 9.817
16.3733 9.620
16.3885 9.506
16.4037 9.619
16.4189 9.820
16.4340 9.815
16.4492 9.824
16.4644 9.766
16.4796 9.763
16.4947 9.901
16.5099 9.854
16.5251 9.727
16.5403 9.701
16.5554 9.754
16.5706 9.754
16.5858 9.688
16.6010 9.651
16.6161 9.798
16.6313 9.709
16.6465 9.764
16.6617 9.919
16.6768 9.969
16.6920 9.907
16.7072 10.096
16.7224 10.236
16.7375 10.062
16.7527 9.867
16.7679 9.930
16.7831 9.811
16.7982 9.914
16.8134 9.958
16.8286 9.995
16.8438 9.750
16.8589 9.749
16.8741 9.645
16.8893 9.605
16.9045 9.623
16.9196 9.609
16.9348 9.667
16.9500 9.858
16.9652 9.941
16.9803 9.930
16.9955 10.010
17.0107 9.985
17.0259 9.981
17.0410 10.156
17.0562 10.148
17.0714 10.249
17.0866 10.390
17.1017 10.560
17.1169 10.666
17.1321 10.978
17.1473 11.248
17.1624 11.798
17.1776 12.459
17.1928 13.067
17.2080 14.227
17.2231 15.382
17.2383 16.537
17.2535 17.572
17.2687 18.587
17.2838 18.765
17.2990 18.019
17.3142 17.369
17.3294 16.656
17.3445 16.147
17.3597 16.068
17.3749 16.057
17.3901 15.379
17.4052 14.413
17.4204 13.654
17.4356 12.931
17.4508 12.250
17.4659 11.893
17.4811 11.881
17.4963 11.576
17.5115 11.129
17.5266 10.827
17.5418 10.769
17.5570 10.889
17.5722 10.862
17.5873 10.855
17.6025 10.983
17.6177 11.067
17.6329 11.276
17.6480 11.411
17.6632 11.361
17.6784 11.394
17.6936 11.449
17.7087 11.346
17.7239 11.157
17.7391 11.145
17.7543 11.176
17.7694 11.211
17.7846 11.067
17.7998 10.859
17.8150 10.590
17.8301 10.555
17.8453 10.609
17.8605 10.377
17.8757 10.363
17.8908 10.332
17.9060 10.135
17.9212 9.990
17.9364 9.832
17.9515 9.873
17.9667 9.970
17.9819 10.041
17.9971 10.132
18.0122 10.061
18.0274 10.085
18.0426 10.237
18.0578 10.320
18.0729 10.264
18.0881 10.080
18.1033 10.083
18.1185 10.093
18.1336 10.071
18.1488 9.848
18.1640 9.942
18.1792 10.102
18.1943 9.881
18.2095 9.839
18.2247 9.846
18.2399 9.791
18.2550 9.913
18.2702 9.979
18.2854 9.774
18.3006 9.829
18.3157 9.896
18.3309 9.941
18.3461 9.889
18.3613 9.818
18.3764 9.640
18.3916 9.510
18.4068 9.739
18.4220 9.886
18.4371 9.873
18.4523 9.691
18.4675 9.568
18.4827 9.842
18.4978 9.870
18.5130 9.711
18.5282 9.599
18.5434 9.801
18.5585 9.982
18.5737 9.986
18.5889 9.934
18.6041 10.005
18.6192 9.818
18.6344 9.628
18.6496 9.776
18.6648 9.773
18.6799 9.633
18.6951 9.842
18.7103 10.007
18.7255 9.821
18.7406 9.879
18.7558 9.815
18.7710 9.908
18.7862 9.900
18.8013 9.805
18.8165 9.681
18.8317 9.923
18.8469 10.009
18.8620 9.852
18.8772 9.883
18.8924 10.035
18.9076 10.025
18.9227 10.003
18.9379 10.054
18.9531 10.144
18.9683 10.008
18.9834 9.869
18.9986 10.087
19.0138 10.096
19.0290 9.963
19.0441 10.130
19.0593 10.260
19.0745 10.301
19.0897 10.189
19.1048 10.302
19.1200 10.155
19.1352 10.346
19.1504 10.630
19.1655 10.663
19.1807 10.663
19.1959 10.618
19.2111 10.632
19.2262 10.676
19.2414 10.712
19.2566 10.830
19.2718 10.873
19.2869 10.741
19.3021 10.915
19.3173 11.244
19.3325 10.901
19.3476 10.804
19.3628 11.139
19.3780 11.163
19.3932 11.210
19.4083 11.358
19.4235 11.317
19.4387 11.242
19.4539 11.310
19.4690 11.209
19.4842 11.125
19.4994 11.249
19.5146 11.363
19.5297 11.422
19.5449 11.489
19.5601 11.536
19.5753 11.759
19.5904 11.671
19.6056 11.520
19.6208 11.617
19.6360 11.708
19.6511 11.627
19.6663 11.488
19.6815 11.528
19.6967 11.683
19.7118 11.861
19.7270 11.909
19.7422 11.825
19.7574 11.498
19.7725 11.687
19.7877 12.177
19.8029 12.071
19.8180 11.810
19.8332 11.943
19.8484 12.289
19.8636 12.592
19.8787 12.730
19.8939 12.816
19.9091 13.262
19.9243 13.435
19.9394 13.686
19.9546 14.196
19.9698 14.561
19.9850 14.676
20.0001 14.406
20.0153 14.171
20.0305 14.076
20.0457 13.826
20.0608 13.608
20.0760 13.778
20.0912 13.718
20.1064 13.544
20.1215 13.809
20.1367 13.383
20.1519 12.976
20.1671 12.997
20.1822 12.980
20.1974 12.693
20.2126 12.656
20.2278 12.650
20.2429 12.472
20.2581 12.289
20.2733 12.065
20.2885 12.160
20.3036 12.026
20.3188 11.992
20.3340 12.111
20.3492 11.922
20.3643 11.898
20.3795 11.890
20.3947 11.886
20.4099 11.998
20.4250 12.020
20.4402 11.892
20.4554 11.544
20.4706 11.696
20.4857 11.957
20.5009 11.928
20.5161 11.866
20.5313 11.579
20.5464 11.713
20.5616 11.289
20.5768 11.194
20.5920 11.277
20.6071 11.247
20.6223 11.148
20.6375 11.176
20.6527 10.713
20.6678 10.533
20.6830 10.597
20.6982 10.358
20.7134 10.626
20.7285 10.574
20.7437 10.441
20.7589 10.317
20.7741 10.692
20.7892 10.184
20.8044 10.283
20.8196 10.375
20.8348 10.205
20.8499 10.095
20.8651 10.128
20.8803 10.249
20.8955 10.141
20.9106 10.318
20.9258 9.844
20.9410 10.235
20.9562 9.923
20.9713 10.026
20.9865 10.232
21.0017 9.927
21.0169 9.781
21.0320 9.977
21.0472 10.059
21.0624 9.907
21.0776 10.089
21.0927 10.020
21.1079 9.876
21.1231 9.969
21.1383 9.977
21.1534 9.830
21.1686 10.107
21.1838 9.579
21.1990 9.652
21.2141 9.756
21.2293 9.801
21.2445 9.531
21.2597 9.365
21.2748 9.907
21.2900 9.837
21.3052 9.689
21.3204 9.355
21.3355 9.779
21.3507 9.761
21.3659 9.400
21.3811 9.607
21.3962 9.485
21.4114 9.249
21.4266 9.796
21.4418 9.366
21.4569 9.270
21.4721 9.372
21.4873 9.415
21.5025 9.389
21.5176 9.658
21.5328 9.371
21.5480 9.020
21.5632 9.016
21.5783 8.921
21.5935 9.330
21.6087 9.398
21.6239 9.095
21.6390 9.181
21.6542 9.320
21.6694 9.502
21.6846 9.130
21.6997 8.978
21.7149 9.287
21.7301 9.182
21.7453 9.161
21.7604 8.998
21.7756 8.973
21.7908 9.075
21.8060 9.163
21.8211 9.017
21.8363 9.132
21.8515 9.063
21.8667 9.133
21.8818 9.308
21.8970 8.884
21.9122 8.990
21.9274 9.197
21.9425 9.049
21.9577 9.090
21.9729 9.070
21.9881 8.880
22.0032 8.809
22.0184 8.935
22.0336 8.769
22.0488 8.680
22.0639 8.686
22.0791 8.853
22.0943 8.900
22.1095 8.647
22.1246 8.735
22.1398 8.745
22.1550 8.635
22.1702 8.613
22.1853 8.587
22.2005 8.520
22.2157 8.583
22.2309 8.512
22.2460 8.588
22.2612 8.474
22.2764 8.615
22.2916 8.555
22.3067 8.501
22.3219 8.392
22.3371 8.529
22.3523 8.721
22.3674 8.582
22.3826 8.473
22.3978 8.605
22.4130 8.594
22.4281 8.562
22.4433 8.388
22.4585 8.378
22.4737 8.670
22.4888 8.510
22.5040 8.208
22.5192 8.356
22.5344 8.416
22.5495 8.645
22.5647 8.351
22.5799 8.486
22.5951 8.365
22.6102 8.548
22.6254 8.087
22.6406 8.426
22.6558 8.164
22.6709 8.337
22.6861 8.093
22.7013 8.155
22.7165 7.691
22.7316 6.429
