'Id: "" Comment: "" Operator: "Lab Manager" Anode: "Mo" Scantype: "Still (Eiger2R_500K (1D mode))" TimePerStep: "300" X: "11.8" Y: "9.4" Z: "11.284" 
7.2532 19.206
7.2684 19.156
7.2836 18.967
7.2987 18.859
7.3139 19.100
7.3291 19.218
7.3443 19.066
7.3594 19.146
7.3746 18.764
7.3898 19.175
7.4050 19.143
7.4201 19.124
7.4353 19.542
7.4505 19.396
7.4657 19.440
7.4808 19.706
7.4960 20.054
7.5112 19.662
7.5264 19.571
7.5415 19.949
7.5567 19.710
7.5719 19.934
7.5871 20.084
7.6022 20.273
7.6174 20.027
7.6326 19.830
7.6478 19.919
7.6629 20.137
7.6781 20.095
7.6933 20.429
7.7085 20.365
7.7236 20.143
7.7388 20.464
7.7540 20.580
7.7692 20.247
7.7843 20.354
7.7995 20.461
7.8147 20.201
7.8299 20.074
7.8450 20.357
7.8602 20.373
7.8754 20.343
7.8905 20.432
7.9057 20.585
7.9209 20.803
7.9361 20.599
7.9512 20.808
7.9664 21.027
7.9816 21.029
7.9968 21.255
8.0119 21.114
8.0271 20.882
8.0423 21.067
8.0575 21.460
8.0726 21.163
8.0878 21.407
8.1030 21.204
8.1182 20.745
8.1333 21.378
8.1485 21.532
8.1637 20.882
8.1789 21.281
8.1940 21.170
8.2092 21.443
8.2244 21.504
8.2396 21.518
8.2547 21.611
8.2699 21.809
8.2851 21.445
8.3003 21.592
8.3154 20.983
8.3306 21.238
8.3458 21.892
8.3610 21.785
8.3761 21.751
8.3913 21.896
8.4065 22.233
8.4217 21.673
8.4368 22.263
8.4520 22.445
8.4672 21.829
8.4824 21.832
8.4975 21.671
8.5127 21.896
8.5279 21.956
8.5431 22.005
8.5582 22.058
8.5734 21.790
8.5886 22.750
8.6038 22.310
8.6189 22.463
8.6341 22.489
8.6493 22.572
8.6645 21.911
8.6796 21.956
8.6948 22.515
8.7100 21.795
8.7252 22.311
8.7403 22.442
8.7555 22.461
8.7707 21.728
8.7859 22.061
8.8010 22.434
8.8162 22.700
8.8314 22.671
8.8466 22.628
8.8617 22.320
8.8769 22.540
8.8921 22.447
8.9073 22.851
8.9224 23.231
8.9376 22.980
8.9528 22.798
8.9680 22.613
8.9831 22.139
8.9983 22.220
9.0135 22.835
9.0287 22.672
9.0438 23.071
9.0590 22.985
9.0742 22.629
9.0894 23.091
9.1045 22.678
9.1197 22.778
9.1349 22.911
9.1501 22.993
9.1652 22.705
9.1804 23.009
9.1956 22.900
9.2108 23.111
9.2259 23.182
9.2411 22.921
9.2563 22.969
9.2715 22.884
9.2866 23.000
9.3018 22.958
9.3170 22.694
9.3322 22.502
9.3473 22.999
9.3625 23.520
9.3777 23.243
9.3929 22.725
9.4080 22.734
9.4232 22.981
9.4384 22.718
9.4536 22.996
9.4687 23.153
9.4839 23.029
9.4991 23.100
9.5143 22.922
9.5294 22.958
9.5446 23.209
9.5598 23.283
9.5750 23.221
9.5901 23.385
9.6053 23.612
9.6205 23.677
9.6357 23.465
9.6508 23.480
9.6660 23.332
9.6812 23.494
9.6964 23.705
9.7115 23.981
9.7267 23.951
9.7419 23.977
9.7571 23.886
9.7722 23.497
9.7874 23.356
9.8026 23.490
9.8178 23.494
9.8329 23.411
9.8481 23.417
9.8633 23.390
9.8785 23.286
9.8936 23.460
9.9088 23.385
9.9240 23.081
9.9392 22.908
9.9543 22.918
9.9695 22.987
9.9847 22.956
9.9999 23.186
10.0150 22.924
10.0302 23.071
10.0454 23.348
10.0606 23.327
10.0757 23.342
10.0909 23.576
10.1061 23.855
10.1213 23.566
10.1364 23.173
10.1516 23.191
10.1668 23.620
10.1820 23.734
10.1971 23.537
10.2123 23.512
10.2275 23.333
10.2427 23.248
10.2578 23.225
10.2730 23.380
10.2882 23.284
10.3034 22.837
10.3185 22.786
10.3337 22.403
10.3489 22.525
10.3641 22.955
10.3792 22.792
10.3944 22.749
10.4096 22.572
10.4248 22.653
10.4399 22.855
10.4551 23.044
10.4703 22.697
10.4855 22.536
10.5006 22.793
10.5158 22.527
10.5310 22.372
10.5462 22.727
10.5613 22.481
10.5765 22.443
10.5917 22.606
10.6069 22.478
10.6220 22.275
10.6372 22.465
10.6524 22.610
10.6676 22.753
10.6827 22.475
10.6979 22.196
10.7131 22.455
10.7283 22.423
10.7434 22.693
10.7586 22.787
10.7738 22.728
10.7890 22.415
10.8041 22.554
10.8193 22.309
10.8345 22.153
10.8497 21.923
10.8648 22.371
10.8800 22.492
10.8952 22.242
10.9104 21.912
10.9255 21.872
10.9407 21.779
10.9559 22.029
10.9711 21.992
10.9862 22.159
11.0014 22.033
11.0166 22.222
11.0318 21.905
11.0469 21.835
11.0621 21.787
11.0773 21.720
11.0925 21.869
11.1076 21.624
11.1228 21.879
11.1380 21.648
11.1532 21.618
11.1683 21.511
11.1835 21.559
11.1987 21.657
11.2139 21.679
11.2290 21.210
11.2442 21.362
11.2594 21.522
11.2746 21.432
11.2897 21.619
11.3049 21.222
11.3201 21.586
11.3353 21.555
11.3504 21.382
11.3656 21.091
11.3808 21.101
11.3960 21.167
11.4111 21.297
11.4263 21.614
11.4415 21.390
11.4567 21.479
11.4718 21.119
11.4870 20.831
11.5022 21.258
11.5174 21.158
11.5325 20.868
11.5477 21.232
11.5629 21.088
11.5781 20.629
11.5932 20.378
11.6084 20.547
11.6236 21.028
11.6388 20.564
11.6539 20.148
11.6691 20.142
11.6843 20.514
11.6995 20.599
11.7146 20.275
11.7298 20.246
11.7450 20.439
11.7602 20.429
11.7753 19.925
11.7905 20.081
11.8057 19.736
11.8209 19.653
11.8360 20.039
11.8512 19.983
11.8664 19.725
11.8816 19.580
11.8967 19.243
11.9119 19.410
11.9271 19.502
11.9423 19.267
11.9574 19.456
11.9726 19.309
11.9878 19.374
12.0030 19.376
12.0181 19.075
12.0333 19.227
12.0485 18.906
12.0637 18.856
12.0788 19.003
12.0940 18.653
12.1092 18.664
12.1244 18.819
12.1395 18.816
12.1547 18.489
12.1699 18.224
12.1851 18.085
12.2002 18.175
12.2154 18.271
12.2306 18.018
12.2458 17.787
12.2609 17.912
12.2761 17.839
12.2913 17.903
12.3065 17.586
12.3216 17.514
12.3368 17.701
12.3520 17.602
12.3672 17.423
12.3823 17.326
12.3975 17.359
12.4127 17.269
12.4279 17.180
12.4430 17.171
12.4582 16.874
12.4734 16.677
12.4886 16.736
12.5037 16.778
12.5189 16.413
12.5341 16.486
12.5493 16.643
12.5644 16.119
12.5796 16.024
12.5948 16.282
12.6100 16.062
12.6251 15.959
12.6403 15.996
12.6555 15.661
12.6707 15.561
12.6858 15.957
12.7010 15.997
12.7162 15.560
12.7314 15.309
12.7465 15.201
12.7617 15.418
12.7769 15.445
12.7921 15.474
12.8072 15.224
12.8224 15.098
12.8376 14.881
12.8528 14.706
12.8679 14.616
12.8831 14.615
12.8983 14.736
12.9135 14.906
12.9286 14.835
12.9438 14.588
12.9590 14.546
12.9742 14.325
12.9893 14.180
13.0045 14.189
13.0197 14.085
13.0349 14.020
13.0500 13.911
13.0652 13.916
13.0804 13.835
13.0956 13.753
13.1107 13.559
13.1259 13.560
13.1411 13.557
13.1563 13.697
13.1714 13.821
13.1866 13.510
13.2018 13.343
13.2170 13.083
13.2321 13.258
13.2473 13.401
13.2625 13.305
13.2777 13.286
13.2928 13.196
13.3080 13.094
13.3232 12.989
13.3384 13.119
13.3535 13.046
13.3687 12.931
13.3839 12.994
13.3991 13.025
13.4142 13.104
13.4294 13.070
13.4446 12.901
13.4598 12.695
13.4749 12.499
13.4901 12.421
13.5053 12.471
13.5205 12.576
13.5356 12.628
13.5508 12.539
13.5660 12.483
13.5812 12.340
13.5963 12.366
13.6115 12.264
13.6267 12.247
13.6419 12.192
13.6570 12.259
13.6722 12.291
13.6874 12.320
13.7026 12.364
13.7177 12.086
13.7329 12.013
13.7481 12.270
13.7633 12.356
13.7784 12.108
13.7936 12.197
13.8088 12.223
13.8239 12.127
13.8391 11.981
13.8543 11.965
13.8695 11.817
13.8846 12.159
13.8998 12.126
13.9150 12.101
13.9302 11.911
13.9453 11.742
13.9605 11.739
13.9757 11.717
13.9909 11.917
14.0060 11.758
14.0212 11.633
14.0364 11.444
14.0516 11.491
14.0667 11.610
14.0819 11.399
14.0971 11.482
14.1123 11.603
14.1274 11.294
14.1426 11.408
14.1578 11.372
14.1730 11.456
14.1881 11.269
14.2033 11.419
14.2185 11.730
14.2337 11.342
14.2488 11.360
14.2640 11.295
14.2792 11.591
14.2944 12.014
14.3095 12.221
14.3247 11.975
14.3399 11.983
14.3551 12.399
14.3702 12.680
14.3854 12.830
14.4006 13.169
14.4158 13.492
14.4309 13.382
14.4461 13.210
14.4613 12.984
14.4765 12.832
14.4916 12.629
14.5068 12.564
14.5220 11.926
14.5372 11.857
14.5523 11.680
14.5675 11.893
14.5827 11.371
14.5979 11.099
14.6130 11.101
14.6282 11.176
14.6434 11.212
14.6586 10.984
14.6737 10.705
14.6889 10.856
14.7041 10.714
14.7193 10.437
14.7344 10.395
14.7496 10.474
14.7648 10.752
14.7800 10.881
14.7951 10.591
14.8103 10.649
14.8255 10.607
14.8407 10.553
14.8558 10.361
14.8710 10.407
14.8862 10.291
14.9014 10.617
14.9165 10.709
14.9317 10.919
14.9469 10.358
14.9621 10.624
14.9772 10.344
14.9924 10.283
15.0076 10.559
15.0228 10.635
15.0379 10.349
15.0531 10.592
15.0683 10.238
15.0835 10.066
15.0986 10.466
15.1138 10.048
15.1290 10.281
15.1442 10.290
15.1593 10.292
15.1745 10.505
15.1897 10.431
15.2049 9.775
15.2200 10.739
15.2352 10.504
15.2504 10.248
15.2656 10.104
15.2807 10.267
15.2959 10.376
15.3111 10.098
15.3263 10.067
15.3414 9.894
15.3566 9.967
15.3718 10.374
15.3870 10.067
15.4021 10.472
15.4173 10.447
15.4325 10.220
15.4477 10.358
15.4628 10.101
15.4780 10.125
15.4932 10.230
15.5084 10.032
15.5235 9.959
15.5387 10.020
15.5539 9.928
15.5691 9.753
15.5842 9.488
15.5994 10.005
15.6146 10.117
15.6298 9.985
15.6449 9.705
15.6601 9.795
15.6753 9.714
15.6905 10.054
15.7056 9.660
15.7208 9.914
15.7360 9.670
15.7512 9.876
15.7663 9.711
15.7815 9.692
15.7967 9.807
15.8119 9.977
15.8270 9.978
15.8422 9.728
15.8574 9.747
15.8726 9.467
15.8877 9.601
15.9029 9.646
15.9181 9.825
15.9333 9.762
15.9484 9.595
15.9636 9.611
15.9788 9.664
15.9940 9.351
16.0091 9.780
16.0243 9.638
16.0395 9.643
16.0547 9.422
16.0698 9.391
16.0850 9.327
16.1002 9.519
16.1154 9.625
16.1305 9.288
16.1457 9.344
16.1609 9.619
16.1761 9.760
16.1912 9.849
16.2064 9.929
16.2216 9.594
16.2368 9.691
16.2519 9.691
16.2671 9.688
16.2823 9.708
16.2975 9.707
16.3126 9.589
16.3278 9.813
16.3430 9.698
16.3582 9.657
16.3733 9.734
16.3885 9.918
16.4037 9.775
16.4189 9.752
16.4340 9.620
16.4492 9.372
16.4644 9.590
16.4796 9.726
16.4947 9.746
16.5099 9.788
16.5251 9.915
16.5403 9.632
16.5554 9.803
16.5706 9.849
16.5858 9.660
16.6010 9.614
16.6161 9.439
16.6313 9.652
16.6465 9.953
16.6617 9.856
16.6768 9.787
16.6920 9.766
16.7072 9.805
16.7224 9.895
16.7375 9.898
16.7527 9.914
16.7679 9.727
16.7831 9.767
16.7982 9.783
16.8134 10.002
16.8286 9.871
16.8438 9.817
16.8589 9.986
16.8741 9.960
16.8893 9.820
16.9045 9.681
16.9196 9.786
16.9348 9.958
16.9500 9.851
16.9652 9.830
16.9803 9.936
16.9955 9.946
17.0107 9.954
17.0259 10.002
17.0410 9.817
17.0562 9.707
17.0714 9.903
17.0866 10.133
17.1017 10.285
17.1169 10.495
17.1321 10.721
17.1473 10.860
17.1624 11.278
17.1776 12.092
17.1928 12.953
17.2080 13.890
17.2231 14.878
17.2383 16.064
17.2535 17.372
17.2687 18.281
17.2838 18.447
17.2990 18.068
17.3142 17.225
17.3294 16.446
17.3445 16.182
17.3597 16.039
17.3749 15.809
17.3901 15.078
17.4052 13.836
17.4204 12.875
17.4356 12.330
17.4508 11.807
17.4659 11.489
17.4811 11.340
17.4963 11.061
17.5115 10.708
17.5266 10.598
17.5418 10.601
17.5570 10.716
17.5722 10.941
17.5873 10.944
17.6025 10.868
17.6177 10.943
17.6329 11.133
17.6480 11.243
17.6632 11.444
17.6784 11.566
17.6936 11.846
17.7087 12.059
17.7239 11.721
17.7391 11.582
17.7543 11.489
17.7694 11.114
17.7846 11.257
17.7998 11.470
17.8150 11.215
17.8301 10.855
17.8453 10.723
17.8605 10.580
17.8757 10.377
17.8908 10.503
17.9060 10.348
17.9212 10.193
17.9364 10.194
17.9515 10.089
17.9667 10.082
17.9819 10.162
17.9971 10.118
18.0122 10.050
18.0274 9.994
18.0426 10.215
18.0578 10.288
18.0729 10.320
18.0881 10.214
18.1033 10.099
18.1185 10.000
18.1336 10.023
18.1488 9.850
18.1640 10.020
18.1792 10.210
18.1943 10.212
18.2095 10.150
18.2247 9.966
18.2399 9.977
18.2550 10.021
18.2702 9.912
18.2854 9.753
18.3006 9.562
18.3157 9.672
18.3309 9.963
18.3461 10.093
18.3613 9.990
18.3764 9.822
18.3916 9.870
18.4068 9.856
18.4220 9.877
18.4371 9.865
18.4523 9.823
18.4675 9.851
18.4827 9.799
18.4978 9.818
18.5130 9.742
18.5282 9.671
18.5434 9.785
18.5585 9.701
18.5737 9.720
18.5889 9.743
18.6041 9.749
18.6192 9.808
18.6344 9.780
18.6496 9.775
18.6648 9.714
18.6799 9.646
18.6951 9.706
18.7103 9.891
18.7255 9.581
18.7406 9.552
18.7558 9.863
18.7710 9.884
18.7862 9.988
18.8013 9.763
18.8165 9.555
18.8317 9.717
18.8469 9.828
18.8620 9.902
18.8772 9.960
18.8924 10.079
18.9076 10.046
18.9227 9.996
18.9379 10.009
18.9531 9.968
18.9683 10.044
18.9834 10.183
18.9986 10.067
19.0138 10.143
19.0290 10.289
19.0441 10.358
19.0593 10.386
19.0745 10.323
19.0897 10.014
19.1048 10.114
19.1200 10.159
19.1352 10.301
19.1504 10.483
19.1655 10.361
19.1807 10.378
19.1959 10.577
19.2111 10.589
19.2262 10.589
19.2414 10.609
19.2566 10.475
19.2718 10.676
19.2869 10.843
19.3021 10.911
19.3173 10.796
19.3325 10.876
19.3476 10.960
19.3628 10.851
19.3780 10.742
19.3932 11.111
19.4083 11.304
19.4235 11.074
19.4387 11.209
19.4539 11.372
19.4690 11.425
19.4842 11.282
19.4994 10.990
19.5146 11.111
19.5297 11.351
19.5449 11.456
19.5601 11.558
19.5753 11.759
19.5904 11.888
19.6056 11.629
19.6208 11.551
19.6360 11.613
19.6511 11.602
19.6663 11.405
19.6815 11.423
19.6967 11.630
19.7118 11.516
19.7270 11.452
19.7422 11.678
19.7574 11.725
19.7725 11.875
19.7877 12.133
19.8029 12.030
19.8180 11.872
19.8332 11.918
19.8484 12.066
19.8636 12.323
19.8787 12.558
19.8939 12.524
19.9091 12.825
19.9243 13.053
19.9394 13.327
19.9546 13.696
19.9698 13.814
19.9850 14.208
20.0001 14.419
20.0153 14.487
20.0305 14.061
20.0457 13.641
20.0608 13.375
20.0760 13.450
20.0912 13.545
20.1064 13.317
20.1215 13.118
20.1367 12.966
20.1519 12.944
20.1671 12.889
20.1822 12.666
20.1974 12.643
20.2126 12.702
20.2278 12.555
20.2429 12.401
20.2581 12.195
20.2733 11.991
20.2885 11.669
20.3036 11.852
20.3188 11.891
20.3340 11.838
20.3492 11.940
20.3643 11.872
20.3795 11.687
20.3947 11.485
20.4099 11.724
20.4250 11.726
20.4402 11.674
20.4554 11.800
20.4706 12.088
20.4857 12.235
20.5009 12.175
20.5161 12.116
20.5313 11.745
20.5464 11.470
20.5616 11.571
20.5768 11.559
20.5920 11.346
20.6071 11.247
20.6223 11.502
20.6375 11.313
20.6527 10.937
20.6678 10.751
20.6830 10.592
20.6982 10.638
20.7134 10.512
20.7285 10.550
20.7437 10.628
20.7589 10.434
20.7741 10.514
20.7892 10.403
20.8044 10.475
20.8196 10.152
20.8348 10.401
20.8499 10.578
20.8651 10.381
20.8803 10.315
20.8955 10.164
20.9106 10.134
20.9258 10.280
20.9410 9.983
20.9562 10.313
20.9713 10.399
20.9865 9.969
21.0017 10.140
21.0169 10.196
21.0320 9.985
21.0472 9.896
21.0624 10.086
21.0776 9.951
21.0927 9.914
21.1079 9.774
21.1231 9.754
21.1383 9.786
21.1534 10.009
21.1686 9.917
21.1838 10.191
21.1990 9.741
21.2141 9.943
21.2293 9.935
21.2445 9.580
21.2597 9.828
21.2748 9.795
21.2900 9.523
21.3052 9.502
21.3204 9.454
21.3355 9.873
21.3507 9.458
21.3659 9.536
21.3811 9.640
21.3962 9.219
21.4114 9.946
21.4266 9.665
21.4418 9.198
21.4569 9.197
21.4721 9.303
21.4873 9.552
21.5025 9.349
21.5176 9.130
21.5328 9.293
21.5480 9.269
21.5632 9.331
21.5783 9.323
21.5935 9.334
21.6087 9.024
21.6239 9.040
21.6390 9.142
21.6542 9.156
21.6694 9.045
21.6846 9.181
21.6997 9.354
21.7149 9.303
21.7301 9.068
21.7453 8.922
21.7604 9.269
21.7756 9.191
21.7908 9.074
21.8060 9.081
21.8211 8.925
21.8363 8.877
21.8515 9.065
21.8667 9.244
21.8818 9.089
21.8970 8.935
21.9122 8.866
21.9274 8.813
21.9425 8.963
21.9577 8.908
21.9729 8.852
21.9881 8.773
22.0032 8.815
22.0184 8.772
22.0336 8.603
22.0488 8.697
22.0639 8.858
22.0791 8.726
22.0943 8.639
22.1095 8.687
22.1246 8.603
22.1398 8.385
22.1550 8.423
22.1702 8.522
22.1853 8.812
22.2005 8.634
22.2157 8.484
22.2309 8.664
22.2460 8.721
22.2612 8.685
22.2764 8.489
22.2916 8.373
22.3067 8.420
22.3219 8.306
22.3371 8.396
22.3523 8.427
22.3674 8.653
22.3826 8.613
22.3978 8.496
22.4130 8.475
22.4281 8.311
22.4433 8.279
22.4585 8.623
22.4737 8.359
22.4888 8.643
22.5040 8.291
22.5192 8.361
22.5344 8.371
22.5495 8.380
22.5647 8.330
22.5799 8.371
22.5951 8.239
22.6102 8.098
22.6254 8.313
22.6406 8.083
22.6558 8.167
22.6709 8.232
22.6861 8.170
22.7013 8.115
22.7165 7.926
22.7316 6.357
