'Id: "" Comment: "" Operator: "Lab Manager" Anode: "Mo" Scantype: "Still (Eiger2R_500K (1D mode))" TimePerStep: "300" X: "11.8" Y: "9.4" Z: "11.284" 
7.2532 18.318
7.2684 18.689
7.2836 18.469
7.2987 18.829
7.3139 18.882
7.3291 19.265
7.3443 18.802
7.3594 18.829
7.3746 19.128
7.3898 19.095
7.4050 19.132
7.4201 19.050
7.4353 19.374
7.4505 19.339
7.4657 19.230
7.4808 19.327
7.4960 19.308
7.5112 19.887
7.5264 19.742
7.5415 19.702
7.5567 19.697
7.5719 19.456
7.5871 19.705
7.6022 19.964
7.6174 20.071
7.6326 19.813
7.6478 19.992
7.6629 19.982
7.6781 19.761
7.6933 20.189
7.7085 20.342
7.7236 20.183
7.7388 19.925
7.7540 20.130
7.7692 20.364
7.7843 20.313
7.7995 20.094
7.8147 20.047
7.8299 20.414
7.8450 20.459
7.8602 20.425
7.8754 20.642
7.8905 20.845
7.9057 20.832
7.9209 20.753
7.9361 20.935
7.9512 21.029
7.9664 20.893
7.9816 20.850
7.9968 20.693
8.0119 20.898
8.0271 20.966
8.0423 21.147
8.0575 21.258
8.0726 21.141
8.0878 20.947
8.1030 21.435
8.1182 21.497
8.1333 20.998
8.1485 21.017
8.1637 21.547
8.1789 21.173
8.1940 21.148
8.2092 21.652
8.2244 21.299
8.2396 20.963
8.2547 21.570
8.2699 21.479
8.2851 21.084
8.3003 21.420
8.3154 21.858
8.3306 21.658
8.3458 21.591
8.3610 21.213
8.3761 21.445
8.3913 21.519
8.4065 21.827
8.4217 21.545
8.4368 21.204
8.4520 21.741
8.4672 21.551
8.4824 21.917
8.4975 21.890
8.5127 22.117
8.5279 21.985
8.5431 21.781
8.5582 22.042
8.5734 21.855
8.5886 22.400
8.6038 22.149
8.6189 22.044
8.6341 22.420
8.6493 21.885
8.6645 21.953
8.6796 22.456
8.6948 21.821
8.7100 21.819
8.7252 22.442
8.7403 22.256
8.7555 22.362
8.7707 22.722
8.7859 22.006
8.8010 22.746
8.8162 22.515
8.8314 22.497
8.8466 22.067
8.8617 22.301
8.8769 22.212
8.8921 22.214
8.9073 22.176
8.9224 22.496
8.9376 22.690
8.9528 22.544
8.9680 22.284
8.9831 22.651
8.9983 22.303
9.0135 22.142
9.0287 22.384
9.0438 22.558
9.0590 22.276
9.0742 22.189
9.0894 22.199
9.1045 22.223
9.1197 22.580
9.1349 22.741
9.1501 22.836
9.1652 22.507
9.1804 22.635
9.1956 22.286
9.2108 22.574
9.2259 22.665
9.2411 22.757
9.2563 22.711
9.2715 22.853
9.2866 22.582
9.3018 22.612
9.3170 22.686
9.3322 22.541
9.3473 22.748
9.3625 22.563
9.3777 22.548
9.3929 22.886
9.4080 23.002
9.4232 22.759
9.4384 23.207
9.4536 23.297
9.4687 22.825
9.4839 22.671
9.4991 22.918
9.5143 22.885
9.5294 22.642
9.5446 22.958
9.5598 23.036
9.5750 22.930
9.5901 22.887
9.6053 23.056
9.6205 23.265
9.6357 23.198
9.6508 23.389
9.6660 23.355
9.6812 23.368
9.6964 23.419
9.7115 23.473
9.7267 23.867
9.7419 23.960
9.7571 23.616
9.7722 23.427
9.7874 23.563
9.8026 23.635
9.8178 23.483
9.8329 23.363
9.8481 23.325
9.8633 23.190
9.8785 22.899
9.8936 23.334
9.9088 23.338
9.9240 23.137
9.9392 23.274
9.9543 23.045
9.9695 22.788
9.9847 23.168
9.9999 23.299
10.0150 23.156
10.0302 23.147
10.0454 23.161
10.0606 23.026
10.0757 22.947
10.0909 23.002
10.1061 23.080
10.1213 23.071
10.1364 23.129
10.1516 23.084
10.1668 23.070
10.1820 23.173
10.1971 22.767
10.2123 23.236
10.2275 23.299
10.2427 22.890
10.2578 22.824
10.2730 22.673
10.2882 22.609
10.3034 22.566
10.3185 22.864
10.3337 22.773
10.3489 22.522
10.3641 22.395
10.3792 22.582
10.3944 22.678
10.4096 22.564
10.4248 22.460
10.4399 22.341
10.4551 22.525
10.4703 22.490
10.4855 22.327
10.5006 22.216
10.5158 21.974
10.5310 22.252
10.5462 22.499
10.5613 22.574
10.5765 22.499
10.5917 22.427
10.6069 22.410
10.6220 22.205
10.6372 22.376
10.6524 22.242
10.6676 22.228
10.6827 22.235
10.6979 22.494
10.7131 22.493
10.7283 22.218
10.7434 22.063
10.7586 22.123
10.7738 22.061
10.7890 22.058
10.8041 22.601
10.8193 22.158
10.8345 21.976
10.8497 22.146
10.8648 22.151
10.8800 22.401
10.8952 22.373
10.9104 22.289
10.9255 22.013
10.9407 22.057
10.9559 21.881
10.9711 21.739
10.9862 21.760
11.0014 22.059
11.0166 22.201
11.0318 22.043
11.0469 21.635
11.0621 21.723
11.0773 21.763
11.0925 21.991
11.1076 21.966
11.1228 21.606
11.1380 21.227
11.1532 21.656
11.1683 22.099
11.1835 21.577
11.1987 21.518
11.2139 21.432
11.2290 21.616
11.2442 21.975
11.2594 21.661
11.2746 21.158
11.2897 21.505
11.3049 21.621
11.3201 21.789
11.3353 21.415
11.3504 21.320
11.3656 21.274
11.3808 21.314
11.3960 20.929
11.4111 21.563
11.4263 21.285
11.4415 21.099
11.4567 21.181
11.4718 21.110
11.4870 21.085
11.5022 20.926
11.5174 21.106
11.5325 21.047
11.5477 20.631
11.5629 20.753
11.5781 20.692
11.5932 20.683
11.6084 20.796
11.6236 20.434
11.6388 20.456
11.6539 20.572
11.6691 20.534
11.6843 20.429
11.6995 20.101
11.7146 20.218
11.7298 20.299
11.7450 20.297
11.7602 20.407
11.7753 19.899
11.7905 19.635
11.8057 19.804
11.8209 20.242
11.8360 20.025
11.8512 19.598
11.8664 19.569
11.8816 20.174
11.8967 19.638
11.9119 19.160
11.9271 19.335
11.9423 19.484
11.9574 19.175
11.9726 19.508
11.9878 19.063
12.0030 18.929
12.0181 19.079
12.0333 18.944
12.0485 18.804
12.0637 18.750
12.0788 18.567
12.0940 18.587
12.1092 18.765
12.1244 18.643
12.1395 18.644
12.1547 18.213
12.1699 18.212
12.1851 18.468
12.2002 18.196
12.2154 18.142
12.2306 17.891
12.2458 17.958
12.2609 17.916
12.2761 17.346
12.2913 17.387
12.3065 17.404
12.3216 17.363
12.3368 17.875
12.3520 17.775
12.3672 17.478
12.3823 17.399
12.3975 17.339
12.4127 17.454
12.4279 17.326
12.4430 16.984
12.4582 16.669
12.4734 16.502
12.4886 16.339
12.5037 16.392
12.5189 16.339
12.5341 16.312
12.5493 16.314
12.5644 16.097
12.5796 16.118
12.5948 16.107
12.6100 16.113
12.6251 16.193
12.6403 15.791
12.6555 15.893
12.6707 15.949
12.6858 15.631
12.7010 15.648
12.7162 15.752
12.7314 15.556
12.7465 15.544
12.7617 15.271
12.7769 15.109
12.7921 15.217
12.8072 15.014
12.8224 15.037
12.8376 15.043
12.8528 14.736
12.8679 14.704
12.8831 14.686
12.8983 14.684
12.9135 14.540
12.9286 14.363
12.9438 14.409
12.9590 14.421
12.9742 14.372
12.9893 14.315
13.0045 14.345
13.0197 14.247
13.0349 14.181
13.0500 14.247
13.0652 13.964
13.0804 13.809
13.0956 13.819
13.1107 13.556
13.1259 13.475
13.1411 13.526
13.1563 13.287
13.1714 13.214
13.1866 13.431
13.2018 13.492
13.2170 13.595
13.2321 13.590
13.2473 13.357
13.2625 13.212
13.2777 13.312
13.2928 13.371
13.3080 13.169
13.3232 13.137
13.3384 13.297
13.3535 13.156
13.3687 12.883
13.3839 12.942
13.3991 12.855
13.4142 12.689
13.4294 12.676
13.4446 12.679
13.4598 12.577
13.4749 12.592
13.4901 12.544
13.5053 12.355
13.5205 12.365
13.5356 12.248
13.5508 12.300
13.5660 12.355
13.5812 12.436
13.5963 12.274
13.6115 12.145
13.6267 12.098
13.6419 12.252
13.6570 12.304
13.6722 12.054
13.6874 12.238
13.7026 12.213
13.7177 12.227
13.7329 12.286
13.7481 12.041
13.7633 11.886
13.7784 12.021
13.7936 11.916
13.8088 11.865
13.8239 12.240
13.8391 12.576
13.8543 12.171
13.8695 12.133
13.8846 12.216
13.8998 11.953
13.9150 12.128
13.9302 11.969
13.9453 12.043
13.9605 12.042
13.9757 11.716
13.9909 11.584
14.0060 11.614
14.0212 11.700
14.0364 11.711
14.0516 11.643
14.0667 11.268
14.0819 11.439
14.0971 11.298
14.1123 11.438
14.1274 11.774
14.1426 11.726
14.1578 11.226
14.1730 11.654
14.1881 11.646
14.2033 11.626
14.2185 11.796
14.2337 11.594
14.2488 11.741
14.2640 11.967
14.2792 11.861
14.2944 11.624
14.3095 12.315
14.3247 12.432
14.3399 12.273
14.3551 12.412
14.3702 12.654
14.3854 12.793
14.4006 13.154
14.4158 12.974
14.4309 12.739
14.4461 12.544
14.4613 12.474
14.4765 12.279
14.4916 11.978
14.5068 11.796
14.5220 11.456
14.5372 11.438
14.5523 11.271
14.5675 10.974
14.5827 10.821
14.5979 10.826
14.6130 10.904
14.6282 10.835
14.6434 10.587
14.6586 10.841
14.6737 10.557
14.6889 10.653
14.7041 10.624
14.7193 10.702
14.7344 10.534
14.7496 10.824
14.7648 10.653
14.7800 10.558
14.7951 10.498
14.8103 10.476
14.8255 10.361
14.8407 10.473
14.8558 10.786
14.8710 10.416
14.8862 10.576
14.9014 10.235
14.9165 10.946
14.9317 10.716
14.9469 10.463
14.9621 10.268
14.9772 10.144
14.9924 10.162
15.0076 10.450
15.0228 10.156
15.0379 10.253
15.0531 10.348
15.0683 10.407
15.0835 10.129
15.0986 10.408
15.1138 10.088
15.1290 10.068
15.1442 10.209
15.1593 10.244
15.1745 10.286
15.1897 10.298
15.2049 10.313
15.2200 10.033
15.2352 9.914
15.2504 10.127
15.2656 10.331
15.2807 9.976
15.2959 9.904
15.3111 10.019
15.3263 9.845
15.3414 10.196
15.3566 10.230
15.3718 10.057
15.3870 10.061
15.4021 9.961
15.4173 10.118
15.4325 9.851
15.4477 10.014
15.4628 10.273
15.4780 10.303
15.4932 10.172
15.5084 10.122
15.5235 9.916
15.5387 9.993
15.5539 9.739
15.5691 9.919
15.5842 9.782
15.5994 9.522
15.6146 9.698
15.6298 9.662
15.6449 9.711
15.6601 9.732
15.6753 9.785
15.6905 9.379
15.7056 9.787
15.7208 9.708
15.7360 9.776
15.7512 9.596
15.7663 9.628
15.7815 9.804
15.7967 9.752
15.8119 9.914
15.8270 9.652
15.8422 9.826
15.8574 9.622
15.8726 9.506
15.8877 9.560
15.9029 9.535
15.9181 9.665
15.9333 9.813
15.9484 9.628
15.9636 9.644
15.9788 9.759
15.9940 9.383
16.0091 9.521
16.0243 9.652
16.0395 9.538
16.0547 9.600
16.0698 9.313
16.0850 9.379
16.1002 9.513
16.1154 9.444
16.1305 9.469
16.1457 9.548
16.1609 9.631
16.1761 9.594
16.1912 9.464
16.2064 9.799
16.2216 9.498
16.2368 9.635
16.2519 9.677
16.2671 9.682
16.2823 9.685
16.2975 9.695
16.3126 9.713
16.3278 9.701
16.3430 9.743
16.3582 9.835
16.3733 10.063
16.3885 9.717
16.4037 9.673
16.4189 9.830
16.4340 9.556
16.4492 9.752
16.4644 9.577
16.4796 9.764
16.4947 9.986
16.5099 9.847
16.5251 9.316
16.5403 9.384
16.5554 9.586
16.5706 9.558
16.5858 9.536
16.6010 9.534
16.6161 9.343
16.6313 9.413
16.6465 9.526
16.6617 9.695
16.6768 9.954
16.6920 9.958
16.7072 9.707
16.7224 9.628
16.7375 9.780
16.7527 10.140
16.7679 10.119
16.7831 9.900
16.7982 9.763
16.8134 9.701
16.8286 9.605
16.8438 9.656
16.8589 9.617
16.8741 9.573
16.8893 9.666
16.9045 9.834
16.9196 9.597
16.9348 9.629
16.9500 9.841
16.9652 9.782
16.9803 9.669
16.9955 9.880
17.0107 10.000
17.0259 9.942
17.0410 9.888
17.0562 10.079
17.0714 10.318
17.0866 10.321
17.1017 10.317
17.1169 10.674
17.1321 10.868
17.1473 11.029
17.1624 11.734
17.1776 12.237
17.1928 12.806
17.2080 13.838
17.2231 15.084
17.2383 16.479
17.2535 17.649
17.2687 18.594
17.2838 18.827
17.2990 18.058
17.3142 16.850
17.3294 16.333
17.3445 16.397
17.3597 16.305
17.3749 16.211
17.3901 15.509
17.4052 14.405
17.4204 13.470
17.4356 12.590
17.4508 12.012
17.4659 11.758
17.4811 11.521
17.4963 11.242
17.5115 11.160
17.5266 11.057
17.5418 10.960
17.5570 11.105
17.5722 10.965
17.5873 10.948
17.6025 11.208
17.6177 11.082
17.6329 11.125
17.6480 11.401
17.6632 11.328
17.6784 11.278
17.6936 11.373
17.7087 11.141
17.7239 11.038
17.7391 11.256
17.7543 11.346
17.7694 11.126
17.7846 10.818
17.7998 10.742
17.8150 10.470
17.8301 10.450
17.8453 10.458
17.8605 10.124
17.8757 10.199
17.8908 10.328
17.9060 10.309
17.9212 10.316
17.9364 10.129
17.9515 10.151
17.9667 10.043
17.9819 10.054
17.9971 10.173
18.0122 10.211
18.0274 10.182
18.0426 9.960
18.0578 9.799
18.0729 10.005
18.0881 10.068
18.1033 9.963
18.1185 9.813
18.1336 9.760
18.1488 9.821
18.1640 9.740
18.1792 9.877
18.1943 9.851
18.2095 9.772
18.2247 9.773
18.2399 9.860
18.2550 9.859
18.2702 9.815
18.2854 9.762
18.3006 9.654
18.3157 9.624
18.3309 9.772
18.3461 9.733
18.3613 9.572
18.3764 9.771
18.3916 9.811
18.4068 9.658
18.4220 9.675
18.4371 9.847
18.4523 9.722
18.4675 9.811
18.4827 9.684
18.4978 9.632
18.5130 9.806
18.5282 9.816
18.5434 9.674
18.5585 9.761
18.5737 9.868
18.5889 9.755
18.6041 9.638
18.6192 9.539
18.6344 9.521
18.6496 9.601
18.6648 9.537
18.6799 9.546
18.6951 9.590
18.7103 9.864
18.7255 9.906
18.7406 9.835
18.7558 9.830
18.7710 9.570
18.7862 9.626
18.8013 9.753
18.8165 9.758
18.8317 9.728
18.8469 9.781
18.8620 9.835
18.8772 9.600
18.8924 9.649
18.9076 9.735
18.9227 10.048
18.9379 10.051
18.9531 10.021
18.9683 9.941
18.9834 9.936
18.9986 10.172
19.0138 10.139
19.0290 10.201
19.0441 10.266
19.0593 10.159
19.0745 10.184
19.0897 10.030
19.1048 10.100
19.1200 10.247
19.1352 10.592
19.1504 10.617
19.1655 10.581
19.1807 10.558
19.1959 10.694
19.2111 10.636
19.2262 10.502
19.2414 10.771
19.2566 10.892
19.2718 10.809
19.2869 10.840
19.3021 10.981
19.3173 10.872
19.3325 10.771
19.3476 10.959
19.3628 11.061
19.3780 10.940
19.3932 10.917
19.4083 11.090
19.4235 11.063
19.4387 11.041
19.4539 11.361
19.4690 11.389
19.4842 11.457
19.4994 11.702
19.5146 11.683
19.5297 11.543
19.5449 11.555
19.5601 11.617
19.5753 11.600
19.5904 11.577
19.6056 11.780
19.6208 12.005
19.6360 11.635
19.6511 11.607
19.6663 11.896
19.6815 11.775
19.6967 11.372
19.7118 11.659
19.7270 11.944
19.7422 11.865
19.7574 11.955
19.7725 11.777
19.7877 11.824
19.8029 11.874
19.8180 11.927
19.8332 12.018
19.8484 12.143
19.8636 12.461
19.8787 12.873
19.8939 13.080
19.9091 13.258
19.9243 13.455
19.9394 13.675
19.9546 14.059
19.9698 14.532
19.9850 14.493
20.0001 14.272
20.0153 14.251
20.0305 14.066
20.0457 13.813
20.0608 13.891
20.0760 14.074
20.0912 13.950
20.1064 13.928
20.1215 13.675
20.1367 13.583
20.1519 13.335
20.1671 13.134
20.1822 12.771
20.1974 12.480
20.2126 12.664
20.2278 12.764
20.2429 12.976
20.2581 12.282
20.2733 12.002
20.2885 12.155
20.3036 12.077
20.3188 12.091
20.3340 12.059
20.3492 11.956
20.3643 11.659
20.3795 11.536
20.3947 11.443
20.4099 11.706
20.4250 11.768
20.4402 11.736
20.4554 11.660
20.4706 11.839
20.4857 11.570
20.5009 11.581
20.5161 11.580
20.5313 11.473
20.5464 11.298
20.5616 11.450
20.5768 11.409
20.5920 11.162
20.6071 10.838
20.6223 11.044
20.6375 11.041
20.6527 11.137
20.6678 10.936
20.6830 10.655
20.6982 10.562
20.7134 10.689
20.7285 10.539
20.7437 10.630
20.7589 10.493
20.7741 10.263
20.7892 10.358
20.8044 10.473
20.8196 10.278
20.8348 10.534
20.8499 10.364
20.8651 10.246
20.8803 10.152
20.8955 10.114
20.9106 10.040
20.9258 9.826
20.9410 10.046
20.9562 10.062
20.9713 10.130
20.9865 9.846
21.0017 10.250
21.0169 10.016
21.0320 9.881
21.0472 9.834
21.0624 9.787
21.0776 9.952
21.0927 9.786
21.1079 10.218
21.1231 9.714
21.1383 9.960
21.1534 10.144
21.1686 9.592
21.1838 9.971
21.1990 9.873
21.2141 9.896
21.2293 9.408
21.2445 9.728
21.2597 9.809
21.2748 9.495
21.2900 9.573
21.3052 9.698
21.3204 9.650
21.3355 9.337
21.3507 9.249
21.3659 9.435
21.3811 9.539
21.3962 9.406
21.4114 9.271
21.4266 9.315
21.4418 9.233
21.4569 9.323
21.4721 9.425
21.4873 9.330
21.5025 9.496
21.5176 9.514
21.5328 9.252
21.5480 9.423
21.5632 9.016
21.5783 9.150
21.5935 9.456
21.6087 9.348
21.6239 8.998
21.6390 9.460
21.6542 9.407
21.6694 8.975
21.6846 8.949
21.6997 9.107
21.7149 8.954
21.7301 8.889
21.7453 9.142
21.7604 9.170
21.7756 9.066
21.7908 8.987
21.8060 9.060
21.8211 9.037
21.8363 8.927
21.8515 8.936
21.8667 9.198
21.8818 9.213
21.8970 8.975
21.9122 8.790
21.9274 8.808
21.9425 8.941
21.9577 8.910
21.9729 8.950
21.9881 8.999
22.0032 8.979
22.0184 8.823
22.0336 8.818
22.0488 8.732
22.0639 8.795
22.0791 8.910
22.0943 8.852
22.1095 8.631
22.1246 8.431
22.1398 8.642
22.1550 8.915
22.1702 8.932
22.1853 8.985
22.2005 8.643
22.2157 8.552
22.2309 8.650
22.2460 8.578
22.2612 8.522
22.2764 8.415
22.2916 8.449
22.3067 8.340
22.3219 8.200
22.3371 8.290
22.3523 8.320
22.3674 8.836
22.3826 8.643
22.3978 8.506
22.4130 8.484
22.4281 8.623
22.4433 8.461
22.4585 8.293
22.4737 8.348
22.4888 8.321
22.5040 8.606
22.5192 8.398
22.5344 8.346
22.5495 8.233
22.5647 8.052
22.5799 7.886
22.5951 8.162
22.6102 8.210
22.6254 8.318
22.6406 8.269
22.6558 8.496
22.6709 8.210
22.6861 8.542
22.7013 8.379
22.7165 7.707
22.7316 6.410
