'Id: "" Comment: "" Operator: "Lab Manager" Anode: "Mo" Scantype: "Still (Eiger2R_500K (1D mode))" TimePerStep: "300" X: "11.8" Y: "9.4" Z: "11.284" 
7.2532 18.930
7.2684 18.740
7.2836 18.633
7.2987 19.309
7.3139 18.756
7.3291 19.029
7.3443 18.912
7.3594 19.004
7.3746 18.774
7.3898 19.343
7.4050 19.272
7.4201 19.547
7.4353 19.264
7.4505 19.588
7.4657 19.544
7.4808 19.342
7.4960 19.575
7.5112 19.526
7.5264 19.703
7.5415 19.851
7.5567 19.784
7.5719 19.694
7.5871 19.852
7.6022 19.768
7.6174 19.708
7.6326 19.868
7.6478 19.907
7.6629 19.960
7.6781 19.946
7.6933 19.800
7.7085 19.857
7.7236 20.061
7.7388 20.179
7.7540 20.439
7.7692 20.891
7.7843 20.429
7.7995 20.325
7.8147 20.640
7.8299 20.514
7.8450 20.482
7.8602 20.383
7.8754 20.385
7.8905 20.534
7.9057 20.593
7.9209 20.535
7.9361 20.731
7.9512 20.665
7.9664 20.560
7.9816 20.361
7.9968 20.510
8.0119 20.903
8.0271 21.072
8.0423 20.806
8.0575 21.080
8.0726 21.272
8.0878 21.296
8.1030 20.942
8.1182 21.045
8.1333 21.093
8.1485 21.336
8.1637 21.413
8.1789 21.099
8.1940 21.416
8.2092 21.430
8.2244 20.899
8.2396 21.249
8.2547 21.520
8.2699 21.594
8.2851 21.776
8.3003 21.635
8.3154 21.605
8.3306 21.697
8.3458 21.932
8.3610 21.655
8.3761 21.696
8.3913 21.988
8.4065 21.758
8.4217 21.708
8.4368 21.429
8.4520 22.017
8.4672 21.856
8.4824 21.953
8.4975 22.339
8.5127 21.816
8.5279 21.749
8.5431 21.989
8.5582 21.904
8.5734 22.069
8.5886 22.135
8.6038 22.419
8.6189 22.365
8.6341 22.014
8.6493 22.456
8.6645 21.913
8.6796 22.002
8.6948 21.646
8.7100 22.128
8.7252 21.770
8.7403 21.888
8.7555 22.126
8.7707 21.965
8.7859 22.351
8.8010 22.365
8.8162 22.785
8.8314 22.918
8.8466 22.266
8.8617 22.559
8.8769 22.397
8.8921 22.251
8.9073 22.090
8.9224 22.579
8.9376 22.282
8.9528 22.608
8.9680 22.715
8.9831 22.768
8.9983 22.283
9.0135 22.301
9.0287 22.396
9.0438 22.758
9.0590 22.468
9.0742 22.548
9.0894 22.683
9.1045 22.526
9.1197 22.719
9.1349 22.400
9.1501 22.256
9.1652 22.567
9.1804 22.836
9.1956 22.603
9.2108 22.639
9.2259 22.930
9.2411 22.916
9.2563 22.763
9.2715 22.790
9.2866 22.841
9.3018 22.768
9.3170 22.709
9.3322 22.692
9.3473 22.949
9.3625 22.714
9.3777 22.701
9.3929 22.824
9.4080 22.859
9.4232 22.678
9.4384 22.835
9.4536 22.551
9.4687 22.678
9.4839 22.840
9.4991 22.803
9.5143 22.902
9.5294 22.863
9.5446 22.929
9.5598 23.059
9.5750 23.200
9.5901 23.101
9.6053 23.179
9.6205 23.423
9.6357 23.363
9.6508 23.260
9.6660 23.310
9.6812 23.379
9.6964 23.738
9.7115 23.883
9.7267 23.879
9.7419 23.981
9.7571 23.916
9.7722 24.007
9.7874 23.897
9.8026 23.660
9.8178 23.684
9.8329 23.287
9.8481 22.877
9.8633 22.944
9.8785 23.228
9.8936 23.272
9.9088 23.085
9.9240 23.167
9.9392 23.210
9.9543 23.355
9.9695 23.218
9.9847 23.194
9.9999 23.166
10.0150 23.117
10.0302 23.141
10.0454 23.097
10.0606 22.900
10.0757 22.916
10.0909 23.064
10.1061 23.147
10.1213 23.261
10.1364 22.983
10.1516 22.998
10.1668 23.445
10.1820 23.354
10.1971 22.775
10.2123 22.600
10.2275 23.127
10.2427 23.047
10.2578 22.735
10.2730 22.666
10.2882 22.608
10.3034 22.332
10.3185 22.917
10.3337 23.087
10.3489 22.867
10.3641 22.590
10.3792 22.343
10.3944 22.320
10.4096 22.181
10.4248 22.288
10.4399 22.634
10.4551 22.703
10.4703 22.435
10.4855 22.404
10.5006 22.508
10.5158 22.575
10.5310 22.569
10.5462 22.335
10.5613 22.222
10.5765 22.629
10.5917 22.768
10.6069 22.628
10.6220 22.450
10.6372 22.206
10.6524 22.518
10.6676 22.727
10.6827 22.524
10.6979 22.408
10.7131 22.354
10.7283 22.355
10.7434 22.465
10.7586 22.320
10.7738 22.222
10.7890 22.269
10.8041 22.159
10.8193 22.055
10.8345 22.032
10.8497 22.083
10.8648 22.061
10.8800 22.033
10.8952 22.090
10.9104 22.052
10.9255 22.178
10.9407 22.048
10.9559 21.852
10.9711 21.871
10.9862 21.887
11.0014 22.007
11.0166 22.205
11.0318 22.087
11.0469 21.804
11.0621 21.866
11.0773 21.730
11.0925 21.839
11.1076 22.211
11.1228 21.676
11.1380 21.752
11.1532 21.832
11.1683 22.033
11.1835 21.702
11.1987 21.667
11.2139 21.671
11.2290 21.568
11.2442 21.426
11.2594 21.425
11.2746 21.380
11.2897 21.421
11.3049 21.217
11.3201 21.060
11.3353 21.219
11.3504 21.353
11.3656 21.132
11.3808 20.902
11.3960 20.953
11.4111 21.324
11.4263 21.279
11.4415 21.097
11.4567 20.627
11.4718 20.915
11.4870 21.015
11.5022 20.933
11.5174 21.304
11.5325 21.078
11.5477 20.839
11.5629 20.437
11.5781 20.645
11.5932 20.938
11.6084 20.743
11.6236 20.760
11.6388 20.783
11.6539 20.508
11.6691 20.573
11.6843 20.476
11.6995 20.140
11.7146 20.277
11.7298 20.473
11.7450 20.298
11.7602 20.416
11.7753 20.490
11.7905 20.083
11.8057 19.655
11.8209 19.451
11.8360 19.489
11.8512 19.676
11.8664 19.852
11.8816 19.663
11.8967 19.708
11.9119 19.622
11.9271 19.539
11.9423 19.439
11.9574 19.377
11.9726 19.555
11.9878 19.477
12.0030 19.213
12.0181 19.034
12.0333 19.033
12.0485 18.926
12.0637 18.888
12.0788 18.918
12.0940 18.807
12.1092 18.615
12.1244 18.246
12.1395 18.536
12.1547 18.704
12.1699 18.393
12.1851 18.076
12.2002 18.022
12.2154 18.007
12.2306 18.153
12.2458 18.182
12.2609 17.895
12.2761 17.950
12.2913 17.919
12.3065 17.690
12.3216 17.396
12.3368 17.312
12.3520 17.151
12.3672 17.354
12.3823 17.023
12.3975 17.105
12.4127 17.454
12.4279 17.182
12.4430 16.946
12.4582 16.882
12.4734 16.856
12.4886 16.894
12.5037 16.489
12.5189 16.344
12.5341 16.396
12.5493 16.414
12.5644 16.353
12.5796 16.164
12.5948 16.168
12.6100 16.136
12.6251 16.040
12.6403 15.881
12.6555 15.846
12.6707 15.617
12.6858 15.702
12.7010 15.504
12.7162 15.224
12.7314 15.559
12.7465 15.634
12.7617 15.529
12.7769 15.359
12.7921 15.150
12.8072 15.072
12.8224 15.119
12.8376 15.165
12.8528 14.744
12.8679 14.465
12.8831 14.536
12.8983 14.589
12.9135 14.692
12.9286 14.505
12.9438 14.429
12.9590 14.427
12.9742 14.453
12.9893 14.409
13.0045 14.193
13.0197 14.099
13.0349 14.069
13.0500 13.981
13.0652 13.756
13.0804 13.844
13.0956 13.923
13.1107 13.850
13.1259 13.828
13.1411 13.796
13.1563 13.665
13.1714 13.488
13.1866 13.577
13.2018 13.528
13.2170 13.274
13.2321 13.310
13.2473 13.287
13.2625 13.313
13.2777 13.486
13.2928 13.254
13.3080 13.149
13.3232 13.100
13.3384 13.054
13.3535 13.154
13.3687 13.114
13.3839 13.059
13.3991 13.045
13.4142 12.921
13.4294 12.857
13.4446 12.825
13.4598 12.585
13.4749 12.669
13.4901 12.715
13.5053 12.585
13.5205 12.616
13.5356 12.401
13.5508 12.340
13.5660 12.458
13.5812 12.303
13.5963 12.337
13.6115 12.280
13.6267 12.254
13.6419 12.151
13.6570 12.294
13.6722 12.404
13.6874 12.336
13.7026 12.089
13.7177 11.834
13.7329 11.812
13.7481 11.798
13.7633 12.015
13.7784 12.048
13.7936 12.197
13.8088 12.339
13.8239 12.180
13.8391 12.035
13.8543 11.966
13.8695 12.263
13.8846 12.395
13.8998 12.043
13.9150 11.847
13.9302 11.984
13.9453 12.221
13.9605 11.918
13.9757 11.525
13.9909 11.625
14.0060 11.809
14.0212 11.762
14.0364 11.752
14.0516 11.698
14.0667 11.610
14.0819 11.677
14.0971 11.533
14.1123 11.480
14.1274 11.654
14.1426 11.492
14.1578 11.342
14.1730 11.902
14.1881 11.672
14.2033 11.428
14.2185 11.667
14.2337 11.791
14.2488 11.850
14.2640 11.989
14.2792 11.781
14.2944 12.077
14.3095 12.068
14.3247 11.915
14.3399 12.088
14.3551 12.238
14.3702 12.747
14.3854 12.971
14.4006 13.210
14.4158 12.836
14.4309 12.910
14.4461 12.602
14.4613 12.363
14.4765 12.097
14.4916 12.303
14.5068 12.414
14.5220 11.413
14.5372 11.481
14.5523 10.773
14.5675 10.914
14.5827 10.947
14.5979 10.954
14.6130 10.991
14.6282 10.916
14.6434 10.876
14.6586 10.887
14.6737 10.981
14.6889 10.555
14.7041 10.681
14.7193 10.492
14.7344 10.554
14.7496 10.804
14.7648 10.924
14.7800 10.462
14.7951 10.345
14.8103 10.313
14.8255 10.516
14.8407 10.680
14.8558 10.427
14.8710 10.070
14.8862 10.250
14.9014 10.606
14.9165 10.587
14.9317 10.336
14.9469 10.516
14.9621 10.288
14.9772 10.258
14.9924 10.347
15.0076 10.451
15.0228 10.286
15.0379 10.020
15.0531 9.985
15.0683 10.306
15.0835 10.389
15.0986 10.199
15.1138 10.464
15.1290 10.282
15.1442 10.865
15.1593 10.097
15.1745 9.882
15.1897 10.103
15.2049 10.326
15.2200 10.436
15.2352 10.507
15.2504 9.937
15.2656 10.184
15.2807 10.552
15.2959 10.195
15.3111 9.969
15.3263 10.180
15.3414 9.981
15.3566 9.784
15.3718 10.269
15.3870 10.172
15.4021 10.279
15.4173 10.252
15.4325 10.081
15.4477 9.958
15.4628 10.366
15.4780 10.377
15.4932 10.210
15.5084 10.183
15.5235 10.388
15.5387 10.140
15.5539 9.795
15.5691 9.990
15.5842 9.912
15.5994 9.884
15.6146 10.112
15.6298 10.236
15.6449 9.933
15.6601 9.774
15.6753 9.860
15.6905 9.811
15.7056 9.407
15.7208 9.827
15.7360 9.671
15.7512 9.496
15.7663 9.641
15.7815 9.723
15.7967 9.721
15.8119 9.566
15.8270 10.016
15.8422 9.676
15.8574 9.788
15.8726 9.516
15.8877 9.460
15.9029 9.543
15.9181 9.537
15.9333 9.654
15.9484 9.660
15.9636 9.348
15.9788 9.714
15.9940 9.488
16.0091 9.547
16.0243 9.893
16.0395 9.600
16.0547 9.309
16.0698 9.607
16.0850 9.531
16.1002 9.669
16.1154 9.440
16.1305 9.646
16.1457 9.904
16.1609 9.487
16.1761 9.385
16.1912 9.527
16.2064 9.577
16.2216 9.822
16.2368 9.713
16.2519 9.678
16.2671 9.664
16.2823 9.775
16.2975 9.710
16.3126 9.559
16.3278 9.606
16.3430 9.560
16.3582 9.672
16.3733 9.746
16.3885 9.892
16.4037 9.930
16.4189 9.884
16.4340 9.927
16.4492 9.927
16.4644 9.729
16.4796 9.733
16.4947 9.815
16.5099 9.883
16.5251 9.831
16.5403 9.790
16.5554 9.631
16.5706 9.675
16.5858 9.780
16.6010 9.777
16.6161 9.491
16.6313 9.571
16.6465 9.557
16.6617 9.609
16.6768 9.911
16.6920 9.971
16.7072 9.902
16.7224 9.873
16.7375 9.895
16.7527 9.977
16.7679 9.802
16.7831 9.699
16.7982 9.759
16.8134 9.702
16.8286 9.733
16.8438 9.755
16.8589 9.756
16.8741 9.623
16.8893 9.727
16.9045 9.839
16.9196 9.869
16.9348 9.779
16.9500 9.780
16.9652 9.717
16.9803 9.670
16.9955 9.818
17.0107 9.778
17.0259 9.884
17.0410 9.932
17.0562 9.930
17.0714 9.840
17.0866 10.080
17.1017 10.538
17.1169 10.658
17.1321 10.694
17.1473 11.125
17.1624 11.598
17.1776 12.125
17.1928 12.875
17.2080 13.940
17.2231 15.259
17.2383 16.489
17.2535 17.612
17.2687 18.475
17.2838 18.713
17.2990 18.138
17.3142 17.274
17.3294 16.420
17.3445 16.185
17.3597 16.505
17.3749 16.203
17.3901 15.255
17.4052 14.223
17.4204 13.310
17.4356 12.392
17.4508 11.781
17.4659 11.741
17.4811 11.884
17.4963 11.714
17.5115 11.450
17.5266 11.223
17.5418 11.034
17.5570 10.964
17.5722 10.857
17.5873 11.018
17.6025 11.049
17.6177 10.890
17.6329 10.991
17.6480 11.309
17.6632 11.471
17.6784 11.437
17.6936 11.450
17.7087 11.517
17.7239 11.414
17.7391 11.029
17.7543 10.952
17.7694 10.983
17.7846 10.842
17.7998 10.988
17.8150 10.989
17.8301 10.565
17.8453 10.249
17.8605 10.113
17.8757 10.151
17.8908 10.142
17.9060 10.189
17.9212 10.290
17.9364 10.075
17.9515 9.934
17.9667 10.108
17.9819 10.079
17.9971 10.012
18.0122 10.144
18.0274 10.245
18.0426 10.193
18.0578 10.358
18.0729 10.343
18.0881 10.027
18.1033 10.215
18.1185 10.252
18.1336 9.957
18.1488 10.039
18.1640 10.006
18.1792 9.761
18.1943 9.833
18.2095 10.010
18.2247 9.908
18.2399 9.743
18.2550 9.918
18.2702 10.117
18.2854 9.969
18.3006 9.868
18.3157 9.955
18.3309 9.702
18.3461 9.777
18.3613 9.730
18.3764 9.635
18.3916 9.767
18.4068 9.761
18.4220 9.954
18.4371 10.089
18.4523 10.009
18.4675 9.945
18.4827 10.051
18.4978 9.902
18.5130 9.900
18.5282 9.914
18.5434 9.686
18.5585 9.937
18.5737 9.991
18.5889 9.702
18.6041 9.813
18.6192 9.924
18.6344 9.581
18.6496 9.439
18.6648 9.609
18.6799 9.772
18.6951 9.743
18.7103 9.845
18.7255 9.835
18.7406 9.840
18.7558 10.033
18.7710 9.996
18.7862 9.767
18.8013 9.835
18.8165 10.019
18.8317 10.003
18.8469 9.984
18.8620 9.920
18.8772 9.996
18.8924 9.853
18.9076 9.681
18.9227 9.747
18.9379 9.921
18.9531 9.925
18.9683 9.882
18.9834 10.001
18.9986 10.001
19.0138 10.258
19.0290 10.328
19.0441 10.254
19.0593 10.289
19.0745 10.125
19.0897 10.107
19.1048 10.295
19.1200 10.356
19.1352 10.233
19.1504 10.483
19.1655 10.516
19.1807 10.427
19.1959 10.422
19.2111 10.550
19.2262 10.778
19.2414 10.786
19.2566 10.757
19.2718 10.770
19.2869 10.853
19.3021 11.110
19.3173 11.188
19.3325 11.102
19.3476 10.943
19.3628 10.947
19.3780 11.034
19.3932 11.010
19.4083 11.110
19.4235 11.113
19.4387 11.088
19.4539 11.230
19.4690 11.303
19.4842 11.326
19.4994 11.382
19.5146 11.190
19.5297 11.450
19.5449 11.705
19.5601 11.638
19.5753 11.579
19.5904 11.531
19.6056 11.456
19.6208 11.524
19.6360 11.637
19.6511 11.634
19.6663 11.462
19.6815 11.412
19.6967 11.378
19.7118 11.603
19.7270 11.534
19.7422 11.463
19.7574 11.820
19.7725 12.040
19.7877 12.047
19.8029 11.868
19.8180 12.035
19.8332 12.045
19.8484 12.109
19.8636 12.331
19.8787 12.348
19.8939 12.316
19.9091 12.826
19.9243 13.604
19.9394 13.690
19.9546 13.826
19.9698 14.350
19.9850 14.226
20.0001 14.024
20.0153 14.120
20.0305 13.860
20.0457 13.835
20.0608 13.940
20.0760 13.901
20.0912 13.800
20.1064 13.632
20.1215 13.169
20.1367 13.115
20.1519 13.039
20.1671 12.708
20.1822 12.742
20.1974 12.999
20.2126 12.947
20.2278 12.743
20.2429 12.513
20.2581 12.443
20.2733 12.044
20.2885 12.039
20.3036 11.936
20.3188 12.041
20.3340 12.032
20.3492 11.996
20.3643 11.800
20.3795 11.865
20.3947 11.809
20.4099 11.954
20.4250 11.768
20.4402 11.854
20.4554 12.079
20.4706 11.913
20.4857 11.669
20.5009 11.599
20.5161 11.814
20.5313 11.444
20.5464 11.348
20.5616 11.441
20.5768 11.295
20.5920 11.102
20.6071 10.977
20.6223 10.909
20.6375 10.881
20.6527 10.711
20.6678 10.428
20.6830 10.406
20.6982 10.601
20.7134 10.427
20.7285 10.470
20.7437 10.376
20.7589 10.495
20.7741 10.348
20.7892 10.669
20.8044 10.665
20.8196 10.349
20.8348 10.218
20.8499 10.306
20.8651 9.900
20.8803 10.169
20.8955 10.339
20.9106 10.181
20.9258 10.040
20.9410 10.035
20.9562 9.981
20.9713 10.045
20.9865 10.101
21.0017 9.969
21.0169 10.113
21.0320 10.098
21.0472 9.893
21.0624 9.982
21.0776 9.957
21.0927 9.847
21.1079 9.675
21.1231 9.926
21.1383 9.569
21.1534 9.550
21.1686 9.801
21.1838 9.450
21.1990 9.788
21.2141 9.881
21.2293 9.958
21.2445 9.518
21.2597 9.608
21.2748 9.516
21.2900 10.083
21.3052 9.471
21.3204 9.924
21.3355 9.412
21.3507 9.236
21.3659 9.794
21.3811 9.814
21.3962 9.290
21.4114 9.412
21.4266 9.274
21.4418 9.228
21.4569 9.484
21.4721 9.207
21.4873 9.139
21.5025 9.320
21.5176 9.285
21.5328 9.316
21.5480 8.872
21.5632 9.250
21.5783 9.216
21.5935 9.274
21.6087 9.172
21.6239 9.118
21.6390 9.290
21.6542 9.239
21.6694 9.208
21.6846 9.172
21.6997 9.072
21.7149 9.073
21.7301 8.960
21.7453 9.119
21.7604 9.176
21.7756 9.106
21.7908 9.124
21.8060 9.125
21.8211 9.085
21.8363 8.856
21.8515 8.710
21.8667 9.011
21.8818 9.123
21.8970 9.131
21.9122 8.944
21.9274 9.056
21.9425 9.043
21.9577 8.833
21.9729 8.821
21.9881 8.822
22.0032 8.861
22.0184 8.986
22.0336 9.012
22.0488 8.968
22.0639 8.942
22.0791 8.943
22.0943 8.757
22.1095 8.754
22.1246 8.608
22.1398 8.545
22.1550 8.594
22.1702 8.525
22.1853 8.471
22.2005 8.660
22.2157 8.786
22.2309 8.643
22.2460 8.641
22.2612 8.534
22.2764 8.510
22.2916 8.676
22.3067 8.670
22.3219 8.249
22.3371 8.319
22.3523 8.480
22.3674 8.326
22.3826 8.338
22.3978 8.678
22.4130 8.419
22.4281 8.453
22.4433 8.196
22.4585 8.465
22.4737 8.699
22.4888 8.500
22.5040 8.512
22.5192 8.408
22.5344 8.529
22.5495 8.350
22.5647 8.439
22.5799 8.696
22.5951 8.084
22.6102 8.564
22.6254 8.297
22.6406 8.350
22.6558 8.542
22.6709 8.297
22.6861 8.346
22.7013 8.305
22.7165 7.916
22.7316 6.522
