'Id: "" Comment: "" Operator: "Lab Manager" Anode: "Mo" Scantype: "Still (Eiger2R_500K (1D mode))" TimePerStep: "300" X: "11.8" Y: "9.4" Z: "11.284" 
7.2532 18.755
7.2684 19.153
7.2836 18.321
7.2987 18.723
7.3139 18.847
7.3291 18.680
7.3443 18.684
7.3594 19.099
7.3746 18.830
7.3898 18.819
7.4050 18.955
7.4201 19.424
7.4353 19.321
7.4505 19.438
7.4657 19.191
7.4808 19.233
7.4960 19.514
7.5112 19.731
7.5264 19.762
7.5415 19.435
7.5567 19.618
7.5719 19.740
7.5871 19.714
7.6022 19.810
7.6174 19.783
7.6326 20.069
7.6478 20.220
7.6629 19.759
7.6781 19.973
7.6933 20.275
7.7085 19.992
7.7236 20.226
7.7388 20.280
7.7540 20.546
7.7692 20.528
7.7843 20.286
7.7995 20.185
7.8147 20.093
7.8299 20.328
7.8450 20.768
7.8602 20.821
7.8754 20.595
7.8905 20.651
7.9057 20.965
7.9209 21.069
7.9361 21.064
7.9512 20.962
7.9664 20.797
7.9816 20.702
7.9968 20.721
8.0119 20.668
8.0271 20.666
8.0423 20.863
8.0575 20.836
8.0726 20.907
8.0878 20.984
8.1030 21.369
8.1182 21.202
8.1333 21.023
8.1485 21.348
8.1637 21.304
8.1789 21.320
8.1940 21.389
8.2092 21.170
8.2244 21.619
8.2396 21.517
8.2547 21.406
8.2699 21.264
8.2851 21.624
8.3003 21.579
8.3154 21.199
8.3306 21.728
8.3458 21.895
8.3610 22.169
8.3761 22.006
8.3913 21.678
8.4065 21.409
8.4217 21.727
8.4368 21.675
8.4520 22.165
8.4672 21.611
8.4824 21.965
8.4975 21.728
8.5127 22.150
8.5279 21.514
8.5431 21.877
8.5582 22.245
8.5734 21.963
8.5886 21.919
8.6038 21.928
8.6189 21.934
8.6341 22.139
8.6493 21.993
8.6645 22.021
8.6796 21.497
8.6948 22.002
8.7100 22.321
8.7252 22.286
8.7403 22.273
8.7555 22.022
8.7707 22.345
8.7859 22.389
8.8010 22.735
8.8162 22.634
8.8314 22.351
8.8466 21.932
8.8617 23.012
8.8769 22.848
8.8921 22.672
8.9073 22.455
8.9224 22.366
8.9376 22.575
8.9528 22.195
8.9680 22.660
8.9831 22.499
8.9983 22.304
9.0135 22.377
9.0287 22.420
9.0438 22.585
9.0590 22.706
9.0742 23.089
9.0894 22.678
9.1045 22.341
9.1197 22.614
9.1349 22.748
9.1501 22.645
9.1652 22.747
9.1804 22.838
9.1956 22.878
9.2108 22.743
9.2259 22.453
9.2411 22.485
9.2563 22.795
9.2715 22.517
9.2866 22.710
9.3018 23.006
9.3170 23.256
9.3322 22.884
9.3473 22.940
9.3625 22.779
9.3777 23.006
9.3929 22.880
9.4080 22.912
9.4232 22.868
9.4384 22.948
9.4536 22.838
9.4687 23.180
9.4839 23.226
9.4991 22.937
9.5143 23.120
9.5294 22.870
9.5446 22.858
9.5598 23.018
9.5750 23.200
9.5901 23.115
9.6053 22.969
9.6205 22.956
9.6357 23.129
9.6508 23.507
9.6660 23.680
9.6812 23.549
9.6964 23.447
9.7115 23.982
9.7267 24.260
9.7419 23.877
9.7571 23.995
9.7722 24.185
9.7874 23.615
9.8026 23.556
9.8178 23.730
9.8329 23.513
9.8481 23.385
9.8633 23.413
9.8785 23.130
9.8936 23.011
9.9088 23.339
9.9240 23.287
9.9392 23.197
9.9543 23.197
9.9695 23.479
9.9847 23.358
9.9999 23.155
10.0150 23.019
10.0302 23.017
10.0454 23.371
10.0606 23.227
10.0757 23.322
10.0909 23.477
10.1061 23.250
10.1213 23.015
10.1364 23.201
10.1516 23.275
10.1668 23.229
10.1820 23.048
10.1971 22.914
10.2123 22.907
10.2275 22.951
10.2427 22.868
10.2578 23.066
10.2730 23.147
10.2882 22.839
10.3034 22.760
10.3185 22.875
10.3337 22.788
10.3489 22.507
10.3641 22.489
10.3792 22.556
10.3944 22.714
10.4096 22.562
10.4248 22.532
10.4399 22.302
10.4551 22.395
10.4703 22.700
10.4855 22.533
10.5006 22.467
10.5158 22.394
10.5310 22.329
10.5462 22.394
10.5613 22.436
10.5765 22.381
10.5917 22.185
10.6069 22.580
10.6220 22.698
10.6372 22.100
10.6524 22.069
10.6676 22.552
10.6827 22.560
10.6979 22.579
10.7131 22.288
10.7283 22.324
10.7434 22.435
10.7586 22.465
10.7738 22.193
10.7890 22.381
10.8041 22.383
10.8193 22.158
10.8345 22.176
10.8497 22.592
10.8648 22.412
10.8800 22.163
10.8952 21.978
10.9104 21.885
10.9255 21.608
10.9407 21.983
10.9559 21.915
10.9711 21.972
10.9862 22.318
11.0014 22.521
11.0166 22.039
11.0318 21.853
11.0469 22.084
11.0621 21.869
11.0773 22.040
11.0925 21.986
11.1076 21.781
11.1228 21.767
11.1380 21.244
11.1532 21.482
11.1683 21.757
11.1835 21.699
11.1987 21.457
11.2139 21.907
11.2290 21.951
11.2442 21.744
11.2594 21.747
11.2746 21.794
11.2897 21.556
11.3049 21.667
11.3201 21.489
11.3353 21.478
11.3504 21.781
11.3656 21.533
11.3808 21.380
11.3960 21.552
11.4111 21.461
11.4263 21.324
11.4415 20.781
11.4567 21.018
11.4718 21.511
11.4870 21.449
11.5022 21.276
11.5174 21.429
11.5325 20.984
11.5477 20.802
11.5629 20.914
11.5781 20.864
11.5932 20.648
11.6084 20.378
11.6236 20.783
11.6388 20.633
11.6539 20.970
11.6691 20.925
11.6843 20.500
11.6995 20.478
11.7146 20.634
11.7298 20.608
11.7450 20.430
11.7602 20.287
11.7753 20.093
11.7905 20.110
11.8057 20.094
11.8209 19.740
11.8360 19.675
11.8512 20.001
11.8664 20.210
11.8816 19.797
11.8967 19.554
11.9119 19.441
11.9271 19.740
11.9423 19.461
11.9574 19.505
11.9726 19.378
11.9878 19.422
12.0030 19.116
12.0181 19.188
12.0333 19.225
12.0485 19.094
12.0637 19.127
12.0788 18.747
12.0940 18.497
12.1092 18.750
12.1244 18.380
12.1395 18.466
12.1547 18.515
12.1699 18.190
12.1851 17.905
12.2002 17.842
12.2154 18.358
12.2306 18.452
12.2458 17.960
12.2609 17.788
12.2761 17.822
12.2913 17.713
12.3065 17.815
12.3216 17.567
12.3368 17.642
12.3520 17.566
12.3672 17.263
12.3823 17.087
12.3975 17.033
12.4127 17.106
12.4279 17.110
12.4430 16.787
12.4582 16.799
12.4734 16.716
12.4886 16.785
12.5037 16.506
12.5189 16.473
12.5341 16.511
12.5493 16.275
12.5644 16.351
12.5796 16.301
12.5948 16.088
12.6100 16.047
12.6251 15.987
12.6403 15.950
12.6555 15.979
12.6707 15.909
12.6858 15.708
12.7010 15.507
12.7162 15.482
12.7314 15.710
12.7465 15.762
12.7617 15.581
12.7769 15.512
12.7921 15.313
12.8072 15.014
12.8224 15.049
12.8376 15.055
12.8528 14.986
12.8679 14.965
12.8831 14.760
12.8983 14.409
12.9135 14.370
12.9286 14.378
12.9438 14.161
12.9590 14.131
12.9742 14.361
12.9893 14.313
13.0045 14.167
13.0197 14.223
13.0349 14.092
13.0500 13.972
13.0652 14.033
13.0804 14.242
13.0956 14.139
13.1107 13.824
13.1259 13.811
13.1411 13.690
13.1563 13.634
13.1714 13.561
13.1866 13.526
13.2018 13.594
13.2170 13.382
13.2321 13.406
13.2473 13.400
13.2625 13.336
13.2777 13.325
13.2928 13.214
13.3080 13.243
13.3232 13.196
13.3384 13.103
13.3535 12.967
13.3687 12.956
13.3839 12.992
13.3991 12.940
13.4142 12.999
13.4294 13.035
13.4446 12.864
13.4598 12.731
13.4749 12.735
13.4901 12.558
13.5053 12.275
13.5205 12.385
13.5356 12.377
13.5508 12.404
13.5660 12.170
13.5812 12.263
13.5963 12.195
13.6115 12.163
13.6267 12.127
13.6419 11.954
13.6570 12.175
13.6722 12.089
13.6874 12.107
13.7026 12.435
13.7177 12.438
13.7329 12.120
13.7481 11.833
13.7633 11.885
13.7784 12.110
13.7936 12.282
13.8088 12.070
13.8239 12.152
13.8391 12.289
13.8543 12.342
13.8695 12.446
13.8846 12.187
13.8998 12.104
13.9150 12.155
13.9302 11.988
13.9453 11.999
13.9605 12.015
13.9757 11.796
13.9909 11.692
14.0060 11.587
14.0212 11.555
14.0364 11.805
14.0516 11.788
14.0667 11.803
14.0819 11.814
14.0971 11.685
14.1123 11.830
14.1274 11.720
14.1426 11.707
14.1578 11.670
14.1730 11.880
14.1881 11.680
14.2033 11.556
14.2185 11.975
14.2337 11.831
14.2488 11.948
14.2640 11.761
14.2792 11.954
14.2944 11.943
14.3095 11.721
14.3247 12.144
14.3399 12.341
14.3551 12.769
14.3702 12.720
14.3854 12.680
14.4006 12.866
14.4158 13.372
14.4309 13.228
14.4461 12.850
14.4613 12.581
14.4765 12.480
14.4916 12.208
14.5068 11.931
14.5220 12.011
14.5372 11.570
14.5523 11.153
14.5675 11.170
14.5827 10.920
14.5979 10.848
14.6130 10.825
14.6282 10.857
14.6434 10.767
14.6586 10.798
14.6737 10.647
14.6889 10.517
14.7041 10.810
14.7193 10.823
14.7344 10.661
14.7496 10.690
14.7648 10.510
14.7800 10.740
14.7951 10.685
14.8103 10.428
14.8255 10.249
14.8407 10.405
14.8558 10.517
14.8710 10.495
14.8862 10.738
14.9014 10.310
14.9165 10.487
14.9317 10.610
14.9469 10.467
14.9621 10.612
14.9772 10.554
14.9924 10.518
15.0076 10.211
15.0228 10.377
15.0379 10.462
15.0531 10.122
15.0683 10.589
15.0835 10.190
15.0986 10.232
15.1138 10.211
15.1290 10.191
15.1442 10.498
15.1593 9.804
15.1745 9.867
15.1897 10.197
15.2049 10.101
15.2200 10.244
15.2352 9.986
15.2504 10.055
15.2656 10.425
15.2807 10.150
15.2959 10.214
15.3111 9.879
15.3263 10.038
15.3414 10.041
15.3566 9.863
15.3718 10.318
15.3870 10.220
15.4021 10.110
15.4173 9.989
15.4325 10.353
15.4477 10.178
15.4628 10.213
15.4780 10.041
15.4932 9.859
15.5084 9.675
15.5235 10.285
15.5387 10.163
15.5539 10.051
15.5691 9.989
15.5842 9.792
15.5994 9.770
15.6146 9.870
15.6298 9.791
15.6449 9.540
15.6601 9.561
15.6753 9.813
15.6905 9.784
15.7056 9.782
15.7208 9.582
15.7360 9.631
15.7512 9.701
15.7663 9.884
15.7815 9.956
15.7967 9.718
15.8119 9.734
15.8270 9.596
15.8422 9.561
15.8574 9.707
15.8726 9.421
15.8877 9.630
15.9029 9.380
15.9181 9.569
15.9333 9.808
15.9484 9.557
15.9636 9.357
15.9788 9.524
15.9940 9.617
16.0091 9.614
16.0243 9.604
16.0395 9.564
16.0547 9.453
16.0698 9.599
16.0850 9.566
16.1002 9.435
16.1154 9.628
16.1305 9.689
16.1457 9.551
16.1609 9.476
16.1761 9.717
16.1912 9.268
16.2064 9.749
16.2216 9.750
16.2368 9.692
16.2519 9.526
16.2671 9.472
16.2823 9.464
16.2975 9.762
16.3126 9.899
16.3278 10.005
16.3430 9.955
16.3582 9.576
16.3733 9.774
16.3885 9.664
16.4037 9.894
16.4189 10.003
16.4340 9.677
16.4492 9.787
16.4644 9.838
16.4796 9.671
16.4947 9.593
16.5099 9.772
16.5251 9.893
16.5403 9.784
16.5554 9.737
16.5706 9.635
16.5858 9.490
16.6010 9.595
16.6161 9.665
16.6313 9.626
16.6465 9.610
16.6617 9.640
16.6768 9.729
16.6920 9.735
16.7072 9.815
16.7224 9.841
16.7375 9.755
16.7527 9.993
16.7679 9.843
16.7831 9.804
16.7982 10.004
16.8134 10.005
16.8286 9.979
16.8438 9.659
16.8589 9.617
16.8741 9.717
16.8893 9.651
16.9045 9.525
16.9196 9.556
16.9348 9.727
16.9500 9.669
16.9652 9.806
16.9803 9.900
16.9955 9.923
17.0107 10.038
17.0259 10.100
17.0410 10.126
17.0562 10.100
17.0714 10.080
17.0866 10.297
17.1017 10.467
17.1169 10.695
17.1321 10.932
17.1473 11.388
17.1624 11.728
17.1776 12.217
17.1928 13.268
17.2080 14.015
17.2231 15.117
17.2383 16.616
17.2535 17.568
17.2687 18.375
17.2838 18.722
17.2990 18.265
17.3142 17.207
17.3294 16.414
17.3445 16.198
17.3597 16.040
17.3749 16.009
17.3901 15.604
17.4052 14.439
17.4204 13.233
17.4356 12.447
17.4508 11.992
17.4659 11.727
17.4811 11.758
17.4963 11.697
17.5115 11.300
17.5266 11.173
17.5418 10.964
17.5570 10.743
17.5722 10.727
17.5873 10.843
17.6025 11.140
17.6177 11.242
17.6329 11.161
17.6480 11.438
17.6632 11.435
17.6784 11.235
17.6936 11.392
17.7087 11.321
17.7239 11.233
17.7391 11.002
17.7543 10.885
17.7694 10.705
17.7846 10.686
17.7998 10.836
17.8150 10.867
17.8301 10.729
17.8453 10.463
17.8605 10.189
17.8757 10.303
17.8908 10.295
17.9060 10.176
17.9212 10.247
17.9364 9.997
17.9515 9.868
17.9667 9.915
17.9819 9.943
17.9971 10.010
18.0122 10.130
18.0274 10.172
18.0426 10.056
18.0578 10.030
18.0729 10.109
18.0881 10.018
18.1033 10.066
18.1185 10.041
18.1336 10.006
18.1488 10.046
18.1640 10.010
18.1792 9.935
18.1943 9.829
18.2095 9.853
18.2247 10.031
18.2399 10.122
18.2550 10.150
18.2702 9.935
18.2854 9.818
18.3006 9.991
18.3157 9.915
18.3309 9.983
18.3461 10.151
18.3613 10.031
18.3764 9.802
18.3916 9.578
18.4068 9.705
18.4220 9.930
18.4371 9.730
18.4523 9.655
18.4675 9.683
18.4827 9.598
18.4978 9.690
18.5130 10.049
18.5282 9.796
18.5434 9.524
18.5585 9.711
18.5737 9.793
18.5889 9.824
18.6041 9.679
18.6192 9.820
18.6344 9.697
18.6496 9.672
18.6648 9.706
18.6799 9.803
18.6951 9.854
18.7103 9.841
18.7255 9.888
18.7406 9.948
18.7558 10.018
18.7710 9.935
18.7862 9.945
18.8013 9.867
18.8165 9.639
18.8317 9.940
18.8469 10.112
18.8620 10.036
18.8772 9.995
18.8924 9.905
18.9076 9.896
18.9227 9.847
18.9379 9.852
18.9531 9.922
18.9683 9.945
18.9834 9.872
18.9986 9.893
19.0138 10.071
19.0290 10.196
19.0441 10.198
19.0593 10.454
19.0745 10.482
19.0897 10.304
19.1048 10.375
19.1200 10.384
19.1352 10.303
19.1504 10.281
19.1655 10.255
19.1807 10.292
19.1959 10.465
19.2111 10.614
19.2262 10.790
19.2414 10.834
19.2566 10.867
19.2718 10.926
19.2869 10.846
19.3021 10.681
19.3173 10.787
19.3325 11.153
19.3476 11.172
19.3628 10.957
19.3780 11.055
19.3932 11.236
19.4083 11.201
19.4235 11.006
19.4387 11.182
19.4539 11.491
19.4690 11.655
19.4842 11.541
19.4994 11.455
19.5146 11.473
19.5297 11.361
19.5449 11.344
19.5601 11.597
19.5753 11.592
19.5904 11.597
19.6056 11.735
19.6208 11.669
19.6360 11.655
19.6511 11.695
19.6663 11.621
19.6815 11.663
19.6967 11.537
19.7118 11.792
19.7270 12.098
19.7422 11.839
19.7574 11.698
19.7725 11.895
19.7877 11.999
19.8029 11.863
19.8180 12.122
19.8332 12.351
19.8484 12.229
19.8636 12.387
19.8787 12.685
19.8939 12.909
19.9091 13.004
19.9243 13.424
19.9394 13.878
19.9546 14.116
19.9698 14.269
19.9850 14.283
20.0001 14.409
20.0153 14.251
20.0305 13.985
20.0457 13.787
20.0608 13.720
20.0760 13.610
20.0912 13.712
20.1064 13.729
20.1215 13.741
20.1367 13.424
20.1519 13.166
20.1671 12.707
20.1822 12.601
20.1974 12.517
20.2126 12.503
20.2278 12.836
20.2429 12.652
20.2581 12.484
20.2733 12.289
20.2885 12.232
20.3036 11.950
20.3188 12.065
20.3340 12.180
20.3492 11.922
20.3643 12.064
20.3795 12.018
20.3947 11.820
20.4099 11.671
20.4250 11.558
20.4402 11.663
20.4554 11.887
20.4706 11.960
20.4857 11.940
20.5009 11.666
20.5161 11.417
20.5313 11.222
20.5464 11.234
20.5616 11.511
20.5768 11.245
20.5920 11.162
20.6071 11.181
20.6223 11.173
20.6375 10.881
20.6527 10.723
20.6678 10.672
20.6830 10.525
20.6982 10.507
20.7134 10.116
20.7285 10.609
20.7437 10.836
20.7589 10.630
20.7741 10.534
20.7892 10.323
20.8044 10.563
20.8196 10.464
20.8348 10.459
20.8499 10.538
20.8651 10.216
20.8803 9.998
20.8955 9.919
20.9106 10.290
20.9258 9.977
20.9410 9.662
20.9562 10.200
20.9713 9.921
20.9865 10.061
21.0017 10.315
21.0169 10.120
21.0320 9.986
21.0472 10.019
21.0624 10.213
21.0776 10.138
21.0927 9.673
21.1079 9.649
21.1231 10.044
21.1383 9.453
21.1534 9.854
21.1686 10.101
21.1838 9.770
21.1990 9.502
21.2141 9.809
21.2293 9.689
21.2445 9.534
21.2597 9.359
21.2748 9.966
21.2900 9.877
21.3052 9.895
21.3204 9.439
21.3355 9.699
21.3507 9.315
21.3659 9.447
21.3811 9.329
21.3962 9.454
21.4114 9.652
21.4266 9.356
21.4418 9.564
21.4569 9.489
21.4721 9.450
21.4873 9.425
21.5025 9.228
21.5176 9.124
21.5328 9.185
21.5480 9.475
21.5632 9.310
21.5783 9.525
21.5935 9.334
21.6087 9.162
21.6239 9.206
21.6390 9.056
21.6542 9.191
21.6694 8.942
21.6846 9.058
21.6997 9.267
21.7149 9.143
21.7301 9.208
21.7453 9.104
21.7604 9.040
21.7756 8.999
21.7908 9.020
21.8060 9.131
21.8211 9.110
21.8363 8.992
21.8515 9.213
21.8667 9.101
21.8818 9.111
21.8970 9.061
21.9122 8.957
21.9274 8.986
21.9425 9.142
21.9577 9.149
21.9729 9.063
21.9881 9.030
22.0032 9.010
22.0184 9.105
22.0336 9.061
22.0488 8.843
22.0639 8.749
22.0791 8.925
22.0943 8.926
22.1095 8.713
22.1246 8.635
22.1398 8.918
22.1550 8.800
22.1702 8.584
22.1853 8.571
22.2005 8.429
22.2157 8.358
22.2309 8.541
22.2460 8.474
22.2612 8.401
22.2764 8.558
22.2916 8.595
22.3067 8.479
22.3219 8.635
22.3371 8.598
22.3523 8.586
22.3674 8.547
22.3826 8.495
22.3978 8.470
22.4130 8.475
22.4281 8.392
22.4433 8.342
22.4585 8.212
22.4737 8.280
22.4888 8.334
22.5040 8.325
22.5192 8.513
22.5344 7.956
22.5495 8.430
22.5647 8.086
22.5799 8.716
22.5951 9.047
22.6102 8.412
22.6254 8.507
22.6406 8.454
22.6558 8.615
22.6709 8.434
22.6861 8.276
22.7013 8.151
22.7165 7.917
22.7316 6.429
