'Id: "" Comment: "" Operator: "Lab Manager" Anode: "Mo" Scantype: "Still (Eiger2R_500K (1D mode))" TimePerStep: "300" X: "11.8" Y: "9.4" Z: "11.284" 
7.2532 19.206
7.2684 18.997
7.2836 18.828
7.2987 19.045
7.3139 18.813
7.3291 19.076
7.3443 19.158
7.3594 19.315
7.3746 19.148
7.3898 19.093
7.4050 19.428
7.4201 19.315
7.4353 19.244
7.4505 19.427
7.4657 19.233
7.4808 19.283
7.4960 19.256
7.5112 19.094
7.5264 19.579
7.5415 19.738
7.5567 19.494
7.5719 19.737
7.5871 19.785
7.6022 19.687
7.6174 19.821
7.6326 20.006
7.6478 20.185
7.6629 20.299
7.6781 20.297
7.6933 20.312
7.7085 20.246
7.7236 20.371
7.7388 20.128
7.7540 20.155
7.7692 20.226
7.7843 20.477
7.7995 20.313
7.8147 20.347
7.8299 20.466
7.8450 20.599
7.8602 20.857
7.8754 20.832
7.8905 20.626
7.9057 20.680
7.9209 20.310
7.9361 20.403
7.9512 20.776
7.9664 20.627
7.9816 20.723
7.9968 21.169
8.0119 21.195
8.0271 21.116
8.0423 21.179
8.0575 21.163
8.0726 20.956
8.0878 21.060
8.1030 20.685
8.1182 21.068
8.1333 21.298
8.1485 21.195
8.1637 21.079
8.1789 21.083
8.1940 21.243
8.2092 21.377
8.2244 21.347
8.2396 21.004
8.2547 20.715
8.2699 21.623
8.2851 21.631
8.3003 21.335
8.3154 21.444
8.3306 21.248
8.3458 21.954
8.3610 21.621
8.3761 21.265
8.3913 22.002
8.4065 21.270
8.4217 21.707
8.4368 21.502
8.4520 22.103
8.4672 22.083
8.4824 22.302
8.4975 22.035
8.5127 21.568
8.5279 22.282
8.5431 22.410
8.5582 21.772
8.5734 21.736
8.5886 22.032
8.6038 22.277
8.6189 22.099
8.6341 21.868
8.6493 21.956
8.6645 22.101
8.6796 22.125
8.6948 22.393
8.7100 22.285
8.7252 22.230
8.7403 22.419
8.7555 22.426
8.7707 22.779
8.7859 22.586
8.8010 22.559
8.8162 22.618
8.8314 22.640
8.8466 22.224
8.8617 22.534
8.8769 22.628
8.8921 22.694
8.9073 22.501
8.9224 22.139
8.9376 22.406
8.9528 22.894
8.9680 22.917
8.9831 22.283
8.9983 22.175
9.0135 22.488
9.0287 22.665
9.0438 22.725
9.0590 22.645
9.0742 22.685
9.0894 22.762
9.1045 22.415
9.1197 22.616
9.1349 22.503
9.1501 22.473
9.1652 22.656
9.1804 23.056
9.1956 22.751
9.2108 22.807
9.2259 22.951
9.2411 22.985
9.2563 23.136
9.2715 22.923
9.2866 22.705
9.3018 22.757
9.3170 23.189
9.3322 23.032
9.3473 22.616
9.3625 22.779
9.3777 23.131
9.3929 23.256
9.4080 23.218
9.4232 23.067
9.4384 22.943
9.4536 22.644
9.4687 22.725
9.4839 23.091
9.4991 23.332
9.5143 23.374
9.5294 23.348
9.5446 23.203
9.5598 23.375
9.5750 23.419
9.5901 23.137
9.6053 23.278
9.6205 23.290
9.6357 23.245
9.6508 23.446
9.6660 23.616
9.6812 23.651
9.6964 23.324
9.7115 23.355
9.7267 23.824
9.7419 24.138
9.7571 24.312
9.7722 24.101
9.7874 23.674
9.8026 23.517
9.8178 23.491
9.8329 23.153
9.8481 22.957
9.8633 23.000
9.8785 22.944
9.8936 23.055
9.9088 23.202
9.9240 23.079
9.9392 22.851
9.9543 22.884
9.9695 23.311
9.9847 23.620
9.9999 23.327
10.0150 22.871
10.0302 22.996
10.0454 23.470
10.0606 23.312
10.0757 23.262
10.0909 23.168
10.1061 23.046
10.1213 23.050
10.1364 23.320
10.1516 22.944
10.1668 22.728
10.1820 22.966
10.1971 23.178
10.2123 23.114
10.2275 23.171
10.2427 22.905
10.2578 22.938
10.2730 22.687
10.2882 22.756
10.3034 22.738
10.3185 22.625
10.3337 22.854
10.3489 22.770
10.3641 22.554
10.3792 22.780
10.3944 22.767
10.4096 22.723
10.4248 22.470
10.4399 22.372
10.4551 22.427
10.4703 22.727
10.4855 22.348
10.5006 22.111
10.5158 22.001
10.5310 22.437
10.5462 22.661
10.5613 22.412
10.5765 22.991
10.5917 22.742
10.6069 22.334
10.6220 22.402
10.6372 22.285
10.6524 22.173
10.6676 22.179
10.6827 22.390
10.6979 22.609
10.7131 22.690
10.7283 22.490
10.7434 22.322
10.7586 22.058
10.7738 22.143
10.7890 22.091
10.8041 22.056
10.8193 22.146
10.8345 22.110
10.8497 21.990
10.8648 22.299
10.8800 22.203
10.8952 21.852
10.9104 21.983
10.9255 21.796
10.9407 21.951
10.9559 22.242
10.9711 22.085
10.9862 21.976
11.0014 22.207
11.0166 22.017
11.0318 22.134
11.0469 22.093
11.0621 21.854
11.0773 21.763
11.0925 21.718
11.1076 21.958
11.1228 21.863
11.1380 21.504
11.1532 21.481
11.1683 21.780
11.1835 21.822
11.1987 22.186
11.2139 21.704
11.2290 21.631
11.2442 21.819
11.2594 21.583
11.2746 21.590
11.2897 21.724
11.3049 21.935
11.3201 21.664
11.3353 21.087
11.3504 21.378
11.3656 21.222
11.3808 21.217
11.3960 21.446
11.4111 21.601
11.4263 21.516
11.4415 21.371
11.4567 21.476
11.4718 21.024
11.4870 21.150
11.5022 21.012
11.5174 21.216
11.5325 21.198
11.5477 21.050
11.5629 21.102
11.5781 21.086
11.5932 20.836
11.6084 20.539
11.6236 20.840
11.6388 21.019
11.6539 20.924
11.6691 20.789
11.6843 20.537
11.6995 20.554
11.7146 20.295
11.7298 20.091
11.7450 20.263
11.7602 20.401
11.7753 20.082
11.7905 19.983
11.8057 19.892
11.8209 19.947
11.8360 19.927
11.8512 19.840
11.8664 19.705
11.8816 19.797
11.8967 19.623
11.9119 19.620
11.9271 19.029
11.9423 19.303
11.9574 19.362
11.9726 19.136
11.9878 19.077
12.0030 19.019
12.0181 18.925
12.0333 19.231
12.0485 19.152
12.0637 19.073
12.0788 18.993
12.0940 18.892
12.1092 18.710
12.1244 18.593
12.1395 18.524
12.1547 18.465
12.1699 18.495
12.1851 18.440
12.2002 18.283
12.2154 18.178
12.2306 18.259
12.2458 17.954
12.2609 17.707
12.2761 17.852
12.2913 18.165
12.3065 17.854
12.3216 17.675
12.3368 17.540
12.3520 17.570
12.3672 17.194
12.3823 16.923
12.3975 16.849
12.4127 17.069
12.4279 17.036
12.4430 16.746
12.4582 16.794
12.4734 16.774
12.4886 16.543
12.5037 16.478
12.5189 16.173
12.5341 16.228
12.5493 16.752
12.5644 16.373
12.5796 16.453
12.5948 16.340
12.6100 16.114
12.6251 16.004
12.6403 15.834
12.6555 15.985
12.6707 15.865
12.6858 15.565
12.7010 15.604
12.7162 15.607
12.7314 15.404
12.7465 15.212
12.7617 15.215
12.7769 15.114
12.7921 15.053
12.8072 15.083
12.8224 15.004
12.8376 14.837
12.8528 14.722
12.8679 14.728
12.8831 14.932
12.8983 15.001
12.9135 14.765
12.9286 14.385
12.9438 14.262
12.9590 14.461
12.9742 14.518
12.9893 14.216
13.0045 14.052
13.0197 14.207
13.0349 14.066
13.0500 13.998
13.0652 14.138
13.0804 13.981
13.0956 13.747
13.1107 13.655
13.1259 13.579
13.1411 13.604
13.1563 13.788
13.1714 13.793
13.1866 13.608
13.2018 13.570
13.2170 13.533
13.2321 13.380
13.2473 13.516
13.2625 13.538
13.2777 13.203
13.2928 13.262
13.3080 13.338
13.3232 13.055
13.3384 12.931
13.3535 13.055
13.3687 13.062
13.3839 13.013
13.3991 12.991
13.4142 12.903
13.4294 12.919
13.4446 12.763
13.4598 12.646
13.4749 12.610
13.4901 12.789
13.5053 12.761
13.5205 12.478
13.5356 12.225
13.5508 12.316
13.5660 12.169
13.5812 12.162
13.5963 12.296
13.6115 12.338
13.6267 12.304
13.6419 12.326
13.6570 12.308
13.6722 12.333
13.6874 12.135
13.7026 11.754
13.7177 11.920
13.7329 12.048
13.7481 12.188
13.7633 12.191
13.7784 12.247
13.7936 12.317
13.8088 12.476
13.8239 12.417
13.8391 12.422
13.8543 12.438
13.8695 12.445
13.8846 12.238
13.8998 12.298
13.9150 12.304
13.9302 12.148
13.9453 12.160
13.9605 12.266
13.9757 11.888
13.9909 11.782
14.0060 11.850
14.0212 12.075
14.0364 11.710
14.0516 11.774
14.0667 11.845
14.0819 11.932
14.0971 11.757
14.1123 11.808
14.1274 11.478
14.1426 11.716
14.1578 11.835
14.1730 11.783
14.1881 11.881
14.2033 11.607
14.2185 11.970
14.2337 11.729
14.2488 11.659
14.2640 11.540
14.2792 11.808
14.2944 11.799
14.3095 11.997
14.3247 12.197
14.3399 12.202
14.3551 12.615
14.3702 12.619
14.3854 13.078
14.4006 12.775
14.4158 12.684
14.4309 13.061
14.4461 12.962
14.4613 12.841
14.4765 12.401
14.4916 12.318
14.5068 12.089
14.5220 11.869
14.5372 11.572
14.5523 11.321
14.5675 11.071
14.5827 10.974
14.5979 10.733
14.6130 10.680
14.6282 11.125
14.6434 10.766
14.6586 10.871
14.6737 10.739
14.6889 10.699
14.7041 10.838
14.7193 10.769
14.7344 10.469
14.7496 10.506
14.7648 10.457
14.7800 10.701
14.7951 10.557
14.8103 10.653
14.8255 10.262
14.8407 10.896
14.8558 10.428
14.8710 10.460
14.8862 10.292
14.9014 10.096
14.9165 10.835
14.9317 10.322
14.9469 10.647
14.9621 10.597
14.9772 10.096
14.9924 10.141
15.0076 10.014
15.0228 10.239
15.0379 10.157
15.0531 10.432
15.0683 10.056
15.0835 10.068
15.0986 10.042
15.1138 10.000
15.1290 10.069
15.1442 10.454
15.1593 10.243
15.1745 10.290
15.1897 10.189
15.2049 9.992
15.2200 10.329
15.2352 10.151
15.2504 9.992
15.2656 10.179
15.2807 10.000
15.2959 10.244
15.3111 9.987
15.3263 10.094
15.3414 9.981
15.3566 10.032
15.3718 9.908
15.3870 10.277
15.4021 10.234
15.4173 10.251
15.4325 10.469
15.4477 9.992
15.4628 9.953
15.4780 10.327
15.4932 10.087
15.5084 10.025
15.5235 10.113
15.5387 10.278
15.5539 10.161
15.5691 10.091
15.5842 9.879
15.5994 9.688
15.6146 9.820
15.6298 10.120
15.6449 10.020
15.6601 9.490
15.6753 9.579
15.6905 9.828
15.7056 9.865
15.7208 9.752
15.7360 9.383
15.7512 9.428
15.7663 9.684
15.7815 9.794
15.7967 9.727
15.8119 9.761
15.8270 9.718
15.8422 9.616
15.8574 9.429
15.8726 9.599
15.8877 9.391
15.9029 9.617
15.9181 9.714
15.9333 9.933
15.9484 9.578
15.9636 9.752
15.9788 9.776
15.9940 9.571
16.0091 9.430
16.0243 9.433
16.0395 9.638
16.0547 9.498
16.0698 9.668
16.0850 9.367
16.1002 9.473
16.1154 9.602
16.1305 9.417
16.1457 9.271
16.1609 9.673
16.1761 9.664
16.1912 9.508
16.2064 9.445
16.2216 10.001
16.2368 9.840
16.2519 9.563
16.2671 9.842
16.2823 9.663
16.2975 9.647
16.3126 9.715
16.3278 9.782
16.3430 9.599
16.3582 9.619
16.3733 9.824
16.3885 9.569
16.4037 9.747
16.4189 9.693
16.4340 9.520
16.4492 9.521
16.4644 9.657
16.4796 9.756
16.4947 9.419
16.5099 9.552
16.5251 9.657
16.5403 9.507
16.5554 9.572
16.5706 9.589
16.5858 9.505
16.6010 9.663
16.6161 9.895
16.6313 9.700
16.6465 9.606
16.6617 9.560
16.6768 9.723
16.6920 9.830
16.7072 9.689
16.7224 9.813
16.7375 9.961
16.7527 9.832
16.7679 9.668
16.7831 9.599
16.7982 9.566
16.8134 9.751
16.8286 9.802
16.8438 9.837
16.8589 9.690
16.8741 9.946
16.8893 9.906
16.9045 9.611
16.9196 9.771
16.9348 9.982
16.9500 9.865
16.9652 9.574
16.9803 9.783
16.9955 10.068
17.0107 10.194
17.0259 10.366
17.0410 9.940
17.0562 9.828
17.0714 10.127
17.0866 10.396
17.1017 10.544
17.1169 10.784
17.1321 11.200
17.1473 11.360
17.1624 11.527
17.1776 12.151
17.1928 12.992
17.2080 13.648
17.2231 14.755
17.2383 16.375
17.2535 17.478
17.2687 18.281
17.2838 18.627
17.2990 17.628
17.3142 16.770
17.3294 16.482
17.3445 16.359
17.3597 16.371
17.3749 16.033
17.3901 15.349
17.4052 14.264
17.4204 13.278
17.4356 12.621
17.4508 12.051
17.4659 11.730
17.4811 11.455
17.4963 11.240
17.5115 11.307
17.5266 11.233
17.5418 11.120
17.5570 10.974
17.5722 11.012
17.5873 11.089
17.6025 11.022
17.6177 11.153
17.6329 11.334
17.6480 11.377
17.6632 11.393
17.6784 11.396
17.6936 11.243
17.7087 11.224
17.7239 11.204
17.7391 11.327
17.7543 11.118
17.7694 10.953
17.7846 10.915
17.7998 10.848
17.8150 10.953
17.8301 10.626
17.8453 10.552
17.8605 10.460
17.8757 10.247
17.8908 10.357
17.9060 10.391
17.9212 10.199
17.9364 10.057
17.9515 10.078
17.9667 10.186
17.9819 10.302
17.9971 10.257
18.0122 10.006
18.0274 10.015
18.0426 10.064
18.0578 10.092
18.0729 10.249
18.0881 9.936
18.1033 9.801
18.1185 10.013
18.1336 10.246
18.1488 10.046
18.1640 10.047
18.1792 9.940
18.1943 9.955
18.2095 10.011
18.2247 9.864
18.2399 9.785
18.2550 9.859
18.2702 9.847
18.2854 9.886
18.3006 10.021
18.3157 9.927
18.3309 9.674
18.3461 9.733
18.3613 9.737
18.3764 9.802
18.3916 9.881
18.4068 9.836
18.4220 9.899
18.4371 9.935
18.4523 9.860
18.4675 9.754
18.4827 9.685
18.4978 9.520
18.5130 9.752
18.5282 9.782
18.5434 9.605
18.5585 9.740
18.5737 9.766
18.5889 9.762
18.6041 9.649
18.6192 9.801
18.6344 9.598
18.6496 9.707
18.6648 9.913
18.6799 9.784
18.6951 9.857
18.7103 10.061
18.7255 9.932
18.7406 9.779
18.7558 9.811
18.7710 9.870
18.7862 9.896
18.8013 9.830
18.8165 9.685
18.8317 9.871
18.8469 9.977
18.8620 10.088
18.8772 10.121
18.8924 9.885
18.9076 9.990
18.9227 10.066
18.9379 9.959
18.9531 10.022
18.9683 10.152
18.9834 10.223
18.9986 10.211
19.0138 10.418
19.0290 10.483
19.0441 10.341
19.0593 10.047
19.0745 10.306
19.0897 10.221
19.1048 10.182
19.1200 10.462
19.1352 10.532
19.1504 10.636
19.1655 10.614
19.1807 10.504
19.1959 10.750
19.2111 10.784
19.2262 10.761
19.2414 10.828
19.2566 10.767
19.2718 11.052
19.2869 11.267
19.3021 11.146
19.3173 11.313
19.3325 11.058
19.3476 10.952
19.3628 10.986
19.3780 10.927
19.3932 11.018
19.4083 11.321
19.4235 11.387
19.4387 11.265
19.4539 11.391
19.4690 11.337
19.4842 11.184
19.4994 11.378
19.5146 11.461
19.5297 11.394
19.5449 11.518
19.5601 11.627
19.5753 11.547
19.5904 11.648
19.6056 11.799
19.6208 11.839
19.6360 11.840
19.6511 11.658
19.6663 11.556
19.6815 11.759
19.6967 11.985
19.7118 11.982
19.7270 11.759
19.7422 11.780
19.7574 11.898
19.7725 11.725
19.7877 11.592
19.8029 12.021
19.8180 12.214
19.8332 11.908
19.8484 12.094
19.8636 12.484
19.8787 12.899
19.8939 13.157
19.9091 13.275
19.9243 13.415
19.9394 13.723
19.9546 14.204
19.9698 14.478
19.9850 14.649
20.0001 14.607
20.0153 14.538
20.0305 14.166
20.0457 14.148
20.0608 14.146
20.0760 13.833
20.0912 13.761
20.1064 13.848
20.1215 13.662
20.1367 13.422
20.1519 13.321
20.1671 13.473
20.1822 13.280
20.1974 12.836
20.2126 13.009
20.2278 12.863
20.2429 12.488
20.2581 12.614
20.2733 12.387
20.2885 12.279
20.3036 12.233
20.3188 12.182
20.3340 12.306
20.3492 12.287
20.3643 12.154
20.3795 11.955
20.3947 11.759
20.4099 11.798
20.4250 11.833
20.4402 11.879
20.4554 11.853
20.4706 11.694
20.4857 11.559
20.5009 11.961
20.5161 11.785
20.5313 11.413
20.5464 11.421
20.5616 11.260
20.5768 10.944
20.5920 11.226
20.6071 11.113
20.6223 11.066
20.6375 10.864
20.6527 11.143
20.6678 10.773
20.6830 10.752
20.6982 10.777
20.7134 10.481
20.7285 10.322
20.7437 10.663
20.7589 10.450
20.7741 10.432
20.7892 10.375
20.8044 10.263
20.8196 10.685
20.8348 10.503
20.8499 10.432
20.8651 10.239
20.8803 10.171
20.8955 10.100
20.9106 10.189
20.9258 10.084
20.9410 10.328
20.9562 10.279
20.9713 10.347
20.9865 10.279
21.0017 10.287
21.0169 10.154
21.0320 10.273
21.0472 10.032
21.0624 10.198
21.0776 9.965
21.0927 10.070
21.1079 9.764
21.1231 10.119
21.1383 9.812
21.1534 9.809
21.1686 10.266
21.1838 10.079
21.1990 9.857
21.2141 9.695
21.2293 9.698
21.2445 9.961
21.2597 10.012
21.2748 9.872
21.2900 9.637
21.3052 9.570
21.3204 9.852
21.3355 9.702
21.3507 9.296
21.3659 9.459
21.3811 9.504
21.3962 9.542
21.4114 9.400
21.4266 9.623
21.4418 9.281
21.4569 9.339
21.4721 9.436
21.4873 9.311
21.5025 9.476
21.5176 9.586
21.5328 9.713
21.5480 9.337
21.5632 9.565
21.5783 9.383
21.5935 9.314
21.6087 9.246
21.6239 9.184
21.6390 9.435
21.6542 9.459
21.6694 9.386
21.6846 9.130
21.6997 9.046
21.7149 9.174
21.7301 9.109
21.7453 8.799
21.7604 8.781
21.7756 8.976
21.7908 9.126
21.8060 9.008
21.8211 8.984
21.8363 8.988
21.8515 9.066
21.8667 9.244
21.8818 9.229
21.8970 8.937
21.9122 8.893
21.9274 9.039
21.9425 9.044
21.9577 9.090
21.9729 8.953
21.9881 8.830
22.0032 9.101
22.0184 9.045
22.0336 8.875
22.0488 8.862
22.0639 8.741
22.0791 8.646
22.0943 8.678
22.1095 8.838
22.1246 8.847
22.1398 8.755
22.1550 8.888
22.1702 8.824
22.1853 8.635
22.2005 8.396
22.2157 8.560
22.2309 8.498
22.2460 8.605
22.2612 8.528
22.2764 8.582
22.2916 8.519
22.3067 8.517
22.3219 8.414
22.3371 8.563
22.3523 8.654
22.3674 8.452
22.3826 8.495
22.3978 8.765
22.4130 8.748
22.4281 8.541
22.4433 8.196
22.4585 8.407
22.4737 8.601
22.4888 8.370
22.5040 8.329
22.5192 8.356
22.5344 8.595
22.5495 8.178
22.5647 8.451
22.5799 8.615
22.5951 8.707
22.6102 8.424
22.6254 8.412
22.6406 8.634
22.6558 8.563
22.6709 8.478
22.6861 8.151
22.7013 7.984
22.7165 7.944
22.7316 6.372
