'Id: "" Comment: "" Operator: "Lab Manager" Anode: "Mo" Scantype: "Still (Eiger2R_500K (1D mode))" TimePerStep: "300" X: "11.8" Y: "9.4" Z: "11.284" 
7.2532 18.626
7.2684 18.567
7.2836 19.175
7.2987 18.854
7.3139 19.078
7.3291 18.922
7.3443 19.157
7.3594 19.596
7.3746 18.902
7.3898 19.418
7.4050 19.325
7.4201 19.396
7.4353 19.529
7.4505 19.726
7.4657 19.315
7.4808 19.675
7.4960 19.764
7.5112 19.545
7.5264 19.734
7.5415 19.866
7.5567 19.883
7.5719 20.018
7.5871 19.998
7.6022 19.721
7.6174 19.696
7.6326 20.094
7.6478 19.888
7.6629 20.159
7.6781 20.506
7.6933 20.373
7.7085 20.394
7.7236 20.531
7.7388 20.534
7.7540 20.399
7.7692 20.410
7.7843 20.469
7.7995 20.824
7.8147 21.325
7.8299 20.873
7.8450 20.692
7.8602 20.744
7.8754 20.731
7.8905 20.970
7.9057 21.013
7.9209 21.087
7.9361 20.975
7.9512 21.100
7.9664 21.361
7.9816 21.180
7.9968 21.267
8.0119 21.400
8.0271 21.021
8.0423 21.102
8.0575 21.297
8.0726 21.000
8.0878 20.911
8.1030 21.131
8.1182 21.438
8.1333 21.624
8.1485 21.446
8.1637 21.269
8.1789 21.837
8.1940 21.976
8.2092 21.816
8.2244 21.475
8.2396 21.247
8.2547 21.588
8.2699 21.397
8.2851 21.575
8.3003 21.928
8.3154 21.862
8.3306 22.245
8.3458 21.811
8.3610 21.904
8.3761 22.048
8.3913 21.641
8.4065 22.170
8.4217 21.797
8.4368 21.873
8.4520 21.786
8.4672 21.604
8.4824 22.164
8.4975 22.005
8.5127 22.396
8.5279 22.402
8.5431 22.158
8.5582 22.142
8.5734 21.499
8.5886 22.955
8.6038 21.920
8.6189 21.912
8.6341 22.557
8.6493 22.392
8.6645 22.554
8.6796 22.400
8.6948 23.328
8.7100 22.877
8.7252 22.723
8.7403 22.342
8.7555 22.594
8.7707 22.903
8.7859 23.237
8.8010 22.619
8.8162 23.050
8.8314 22.706
8.8466 22.558
8.8617 22.694
8.8769 22.897
8.8921 22.703
8.9073 23.055
8.9224 22.859
8.9376 22.732
8.9528 22.988
8.9680 22.809
8.9831 23.038
8.9983 22.649
9.0135 22.760
9.0287 23.059
9.0438 23.262
9.0590 22.999
9.0742 22.588
9.0894 23.081
9.1045 23.464
9.1197 23.129
9.1349 23.012
9.1501 22.707
9.1652 22.879
9.1804 22.518
9.1956 22.436
9.2108 22.813
9.2259 22.978
9.2411 23.023
9.2563 23.426
9.2715 23.149
9.2866 22.925
9.3018 23.298
9.3170 23.310
9.3322 23.242
9.3473 23.499
9.3625 23.206
9.3777 22.853
9.3929 22.875
9.4080 23.492
9.4232 23.504
9.4384 23.335
9.4536 23.091
9.4687 23.298
9.4839 23.285
9.4991 23.061
9.5143 23.257
9.5294 23.448
9.5446 23.462
9.5598 23.292
9.5750 23.505
9.5901 23.313
9.6053 23.290
9.6205 23.200
9.6357 23.487
9.6508 23.848
9.6660 23.766
9.6812 23.956
9.6964 23.789
9.7115 23.747
9.7267 24.334
9.7419 24.139
9.7571 23.626
9.7722 23.703
9.7874 24.167
9.8026 24.147
9.8178 23.309
9.8329 23.234
9.8481 23.584
9.8633 23.499
9.8785 23.409
9.8936 23.398
9.9088 23.515
9.9240 23.656
9.9392 23.359
9.9543 23.102
9.9695 23.364
9.9847 23.203
9.9999 23.436
10.0150 23.543
10.0302 23.540
10.0454 23.748
10.0606 23.831
10.0757 23.225
10.0909 23.242
10.1061 23.433
10.1213 23.207
10.1364 23.374
10.1516 23.470
10.1668 23.278
10.1820 23.206
10.1971 23.714
10.2123 23.687
10.2275 23.777
10.2427 23.983
10.2578 24.142
10.2730 23.982
10.2882 23.586
10.3034 23.371
10.3185 23.262
10.3337 22.928
10.3489 22.934
10.3641 22.940
10.3792 22.945
10.3944 22.870
10.4096 22.716
10.4248 22.833
10.4399 22.681
10.4551 23.021
10.4703 22.864
10.4855 22.744
10.5006 22.697
10.5158 22.921
10.5310 22.478
10.5462 22.423
10.5613 22.133
10.5765 22.597
10.5917 22.820
10.6069 22.634
10.6220 22.835
10.6372 22.561
10.6524 22.383
10.6676 22.972
10.6827 23.015
10.6979 23.160
10.7131 22.885
10.7283 22.483
10.7434 22.324
10.7586 22.475
10.7738 22.651
10.7890 22.624
10.8041 22.490
10.8193 22.227
10.8345 22.265
10.8497 22.776
10.8648 22.405
10.8800 22.157
10.8952 22.315
10.9104 22.304
10.9255 22.110
10.9407 21.881
10.9559 22.160
10.9711 22.202
10.9862 22.508
11.0014 22.379
11.0166 22.122
11.0318 22.324
11.0469 21.912
11.0621 22.000
11.0773 22.046
11.0925 22.039
11.1076 22.180
11.1228 22.112
11.1380 22.063
11.1532 22.051
11.1683 21.796
11.1835 22.082
11.1987 22.087
11.2139 22.027
11.2290 21.732
11.2442 22.066
11.2594 22.052
11.2746 21.872
11.2897 22.086
11.3049 22.182
11.3201 22.059
11.3353 21.798
11.3504 21.400
11.3656 21.334
11.3808 21.488
11.3960 21.532
11.4111 21.346
11.4263 21.670
11.4415 21.478
11.4567 21.407
11.4718 21.063
11.4870 20.999
11.5022 21.014
11.5174 21.164
11.5325 20.981
11.5477 21.069
11.5629 20.931
11.5781 21.139
11.5932 20.985
11.6084 20.803
11.6236 20.734
11.6388 20.692
11.6539 20.802
11.6691 20.914
11.6843 20.804
11.6995 20.645
11.7146 20.546
11.7298 20.738
11.7450 20.392
11.7602 20.341
11.7753 20.042
11.7905 20.026
11.8057 20.252
11.8209 20.009
11.8360 20.053
11.8512 19.936
11.8664 19.964
11.8816 19.930
11.8967 19.954
11.9119 19.860
11.9271 19.615
11.9423 19.546
11.9574 19.444
11.9726 19.422
11.9878 19.346
12.0030 19.300
12.0181 19.236
12.0333 19.188
12.0485 19.240
12.0637 18.632
12.0788 18.683
12.0940 19.098
12.1092 18.663
12.1244 18.356
12.1395 18.547
12.1547 18.502
12.1699 18.378
12.1851 18.128
12.2002 18.004
12.2154 18.061
12.2306 18.123
12.2458 18.357
12.2609 17.983
12.2761 17.755
12.2913 17.783
12.3065 17.701
12.3216 17.675
12.3368 17.603
12.3520 17.445
12.3672 17.437
12.3823 17.580
12.3975 17.095
12.4127 17.233
12.4279 17.174
12.4430 16.957
12.4582 17.338
12.4734 16.945
12.4886 16.864
12.5037 17.061
12.5189 16.780
12.5341 16.736
12.5493 16.634
12.5644 16.466
12.5796 16.508
12.5948 16.455
12.6100 16.157
12.6251 15.899
12.6403 15.847
12.6555 16.145
12.6707 15.943
12.6858 16.068
12.7010 16.032
12.7162 16.031
12.7314 15.845
12.7465 15.631
12.7617 15.445
12.7769 15.559
12.7921 15.336
12.8072 14.838
12.8224 15.031
12.8376 15.190
12.8528 15.123
12.8679 14.951
12.8831 14.852
12.8983 14.732
12.9135 14.634
12.9286 14.787
12.9438 14.818
12.9590 14.688
12.9742 14.533
12.9893 14.447
13.0045 14.398
13.0197 14.190
13.0349 13.982
13.0500 13.916
13.0652 14.071
13.0804 14.133
13.0956 14.120
13.1107 14.169
13.1259 13.928
13.1411 13.650
13.1563 13.543
13.1714 13.630
13.1866 13.664
13.2018 13.596
13.2170 13.505
13.2321 13.461
13.2473 13.431
13.2625 13.353
13.2777 13.272
13.2928 13.234
13.3080 13.420
13.3232 13.335
13.3384 13.270
13.3535 13.108
13.3687 12.791
13.3839 12.962
13.3991 13.120
13.4142 12.954
13.4294 12.827
13.4446 12.715
13.4598 12.708
13.4749 12.819
13.4901 12.713
13.5053 12.647
13.5205 12.568
13.5356 12.486
13.5508 12.418
13.5660 12.456
13.5812 12.471
13.5963 12.197
13.6115 12.112
13.6267 12.260
13.6419 12.237
13.6570 12.236
13.6722 12.127
13.6874 11.846
13.7026 11.716
13.7177 11.925
13.7329 11.957
13.7481 12.278
13.7633 12.049
13.7784 11.938
13.7936 12.188
13.8088 12.559
13.8239 12.409
13.8391 12.068
13.8543 12.036
13.8695 12.533
13.8846 12.414
13.8998 12.307
13.9150 12.138
13.9302 11.896
13.9453 11.951
13.9605 12.076
13.9757 11.875
13.9909 11.700
14.0060 11.665
14.0212 11.566
14.0364 11.609
14.0516 11.855
14.0667 11.609
14.0819 11.584
14.0971 11.450
14.1123 11.491
14.1274 11.463
14.1426 11.479
14.1578 11.695
14.1730 11.659
14.1881 11.789
14.2033 11.930
14.2185 11.821
14.2337 11.996
14.2488 12.093
14.2640 11.857
14.2792 12.012
14.2944 12.074
14.3095 12.236
14.3247 12.272
14.3399 12.439
14.3551 12.785
14.3702 13.140
14.3854 12.862
14.4006 12.728
14.4158 12.881
14.4309 12.645
14.4461 12.814
14.4613 12.420
14.4765 12.360
14.4916 12.132
14.5068 11.880
14.5220 11.610
14.5372 11.492
14.5523 11.133
14.5675 11.323
14.5827 11.274
14.5979 11.213
14.6130 11.167
14.6282 11.046
14.6434 11.350
14.6586 11.001
14.6737 11.313
14.6889 10.972
14.7041 10.772
14.7193 11.003
14.7344 10.787
14.7496 10.822
14.7648 11.014
14.7800 10.723
14.7951 10.972
14.8103 10.929
14.8255 10.666
14.8407 10.751
14.8558 10.566
14.8710 10.642
14.8862 10.466
14.9014 10.635
14.9165 10.777
14.9317 10.819
14.9469 10.759
14.9621 10.480
14.9772 10.342
14.9924 10.783
15.0076 10.736
15.0228 10.087
15.0379 10.386
15.0531 10.633
15.0683 10.410
15.0835 10.180
15.0986 10.495
15.1138 10.701
15.1290 10.624
15.1442 10.290
15.1593 10.757
15.1745 10.152
15.1897 10.580
15.2049 10.205
15.2200 10.079
15.2352 10.641
15.2504 10.219
15.2656 10.088
15.2807 10.306
15.2959 10.169
15.3111 10.543
15.3263 10.325
15.3414 10.702
15.3566 10.530
15.3718 10.722
15.3870 10.078
15.4021 10.315
15.4173 10.537
15.4325 10.922
15.4477 10.460
15.4628 10.533
15.4780 10.209
15.4932 10.483
15.5084 10.533
15.5235 10.567
15.5387 10.407
15.5539 10.328
15.5691 10.477
15.5842 10.220
15.5994 10.285
15.6146 9.987
15.6298 10.241
15.6449 10.062
15.6601 9.771
15.6753 9.934
15.6905 10.284
15.7056 9.971
15.7208 9.876
15.7360 9.970
15.7512 9.972
15.7663 9.992
15.7815 9.776
15.7967 10.170
15.8119 9.970
15.8270 9.988
15.8422 10.012
15.8574 9.803
15.8726 9.853
15.8877 9.777
15.9029 9.865
15.9181 9.632
15.9333 9.696
15.9484 9.968
15.9636 9.889
15.9788 9.838
15.9940 9.736
16.0091 9.664
16.0243 9.883
16.0395 9.916
16.0547 9.645
16.0698 9.521
16.0850 9.543
16.1002 9.852
16.1154 9.838
16.1305 9.812
16.1457 9.794
16.1609 9.852
16.1761 9.850
16.1912 9.909
16.2064 10.082
16.2216 9.795
16.2368 9.880
16.2519 10.058
16.2671 10.004
16.2823 9.920
16.2975 9.878
16.3126 9.805
16.3278 9.867
16.3430 10.010
16.3582 10.189
16.3733 10.095
16.3885 10.256
16.4037 10.108
16.4189 9.942
16.4340 10.093
16.4492 10.097
16.4644 9.959
16.4796 9.970
16.4947 9.892
16.5099 9.812
16.5251 9.823
16.5403 9.742
16.5554 9.938
16.5706 9.911
16.5858 9.627
16.6010 9.656
16.6161 9.673
16.6313 9.748
16.6465 9.796
16.6617 10.080
16.6768 10.119
16.6920 9.956
16.7072 9.702
16.7224 9.774
16.7375 10.083
16.7527 9.924
16.7679 9.959
16.7831 9.950
16.7982 9.888
16.8134 9.960
16.8286 9.915
16.8438 10.102
16.8589 9.737
16.8741 9.718
16.8893 9.871
16.9045 9.872
16.9196 9.838
16.9348 9.758
16.9500 9.674
16.9652 9.687
16.9803 9.836
16.9955 10.096
17.0107 10.083
17.0259 9.820
17.0410 9.802
17.0562 10.173
17.0714 10.220
17.0866 10.329
17.1017 10.447
17.1169 10.552
17.1321 10.735
17.1473 11.017
17.1624 11.644
17.1776 12.448
17.1928 13.133
17.2080 13.974
17.2231 15.193
17.2383 16.627
17.2535 17.707
17.2687 18.530
17.2838 18.791
17.2990 18.226
17.3142 17.244
17.3294 16.422
17.3445 16.238
17.3597 16.220
17.3749 16.075
17.3901 15.442
17.4052 14.321
17.4204 13.147
17.4356 12.390
17.4508 12.079
17.4659 11.685
17.4811 11.321
17.4963 11.336
17.5115 11.434
17.5266 11.436
17.5418 11.478
17.5570 11.392
17.5722 11.355
17.5873 11.386
17.6025 11.331
17.6177 11.324
17.6329 11.007
17.6480 10.878
17.6632 11.021
17.6784 10.944
17.6936 10.926
17.7087 10.811
17.7239 10.768
17.7391 10.657
17.7543 10.436
17.7694 10.259
17.7846 10.482
17.7998 10.374
17.8150 10.230
17.8301 10.402
17.8453 10.325
17.8605 10.303
17.8757 10.272
17.8908 10.256
17.9060 10.420
17.9212 10.468
17.9364 10.377
17.9515 10.220
17.9667 10.190
17.9819 10.464
17.9971 10.449
18.0122 10.262
18.0274 10.029
18.0426 10.167
18.0578 10.426
18.0729 10.315
18.0881 10.293
18.1033 10.187
18.1185 10.147
18.1336 9.962
18.1488 9.979
18.1640 10.117
18.1792 10.212
18.1943 10.015
18.2095 9.849
18.2247 10.039
18.2399 9.934
18.2550 9.896
18.2702 9.827
18.2854 9.768
18.3006 9.923
18.3157 9.812
18.3309 9.794
18.3461 9.830
18.3613 9.670
18.3764 9.669
18.3916 9.762
18.4068 9.891
18.4220 9.846
18.4371 9.793
18.4523 9.863
18.4675 9.904
18.4827 9.803
18.4978 9.690
18.5130 9.821
18.5282 9.754
18.5434 9.541
18.5585 9.516
18.5737 9.841
18.5889 10.053
18.6041 9.645
18.6192 9.576
18.6344 9.793
18.6496 9.820
18.6648 9.705
18.6799 9.632
18.6951 9.627
18.7103 9.620
18.7255 9.646
18.7406 9.736
18.7558 9.675
18.7710 9.751
18.7862 9.843
18.8013 9.641
18.8165 9.618
18.8317 9.803
18.8469 9.771
18.8620 9.825
18.8772 9.863
18.8924 10.093
18.9076 10.110
18.9227 9.862
18.9379 9.808
18.9531 9.838
18.9683 9.956
18.9834 10.044
18.9986 9.997
19.0138 10.063
19.0290 10.077
19.0441 9.970
19.0593 9.998
19.0745 10.211
19.0897 10.294
19.1048 10.288
19.1200 10.422
19.1352 10.541
19.1504 10.533
19.1655 10.497
19.1807 10.682
19.1959 10.768
19.2111 10.804
19.2262 10.741
19.2414 10.625
19.2566 10.507
19.2718 10.938
19.2869 11.199
19.3021 11.105
19.3173 10.847
19.3325 11.039
19.3476 11.302
19.3628 11.127
19.3780 11.115
19.3932 11.237
19.4083 11.297
19.4235 11.153
19.4387 11.171
19.4539 11.469
19.4690 11.337
19.4842 11.224
19.4994 11.275
19.5146 11.282
19.5297 11.358
19.5449 11.385
19.5601 11.483
19.5753 11.483
19.5904 11.512
19.6056 11.599
19.6208 11.648
19.6360 11.577
19.6511 11.650
19.6663 11.713
19.6815 11.680
19.6967 11.683
19.7118 11.791
19.7270 11.975
19.7422 11.863
19.7574 11.853
19.7725 11.935
19.7877 11.737
19.8029 11.931
19.8180 11.933
19.8332 11.923
19.8484 12.162
19.8636 12.383
19.8787 12.441
19.8939 12.927
19.9091 13.354
19.9243 13.207
19.9394 13.485
19.9546 13.939
19.9698 14.279
19.9850 14.464
20.0001 14.278
20.0153 14.386
20.0305 14.175
20.0457 13.534
20.0608 13.449
20.0760 13.700
20.0912 13.701
20.1064 13.546
20.1215 13.449
20.1367 13.297
20.1519 13.209
20.1671 12.925
20.1822 13.016
20.1974 12.722
20.2126 12.835
20.2278 12.786
20.2429 12.704
20.2581 12.307
20.2733 12.084
20.2885 12.010
20.3036 11.968
20.3188 11.921
20.3340 11.842
20.3492 11.684
20.3643 11.457
20.3795 11.403
20.3947 11.193
20.4099 11.068
20.4250 10.864
20.4402 10.835
20.4554 10.797
20.4706 10.691
20.4857 10.711
20.5009 10.721
20.5161 10.664
20.5313 10.491
20.5464 10.549
20.5616 10.738
20.5768 10.785
20.5920 10.716
20.6071 10.898
20.6223 10.922
20.6375 10.863
20.6527 10.963
20.6678 10.591
20.6830 10.755
20.6982 10.496
20.7134 10.502
20.7285 10.518
20.7437 10.177
20.7589 10.355
20.7741 10.362
20.7892 10.204
20.8044 10.083
20.8196 10.429
20.8348 10.187
20.8499 10.055
20.8651 10.019
20.8803 10.073
20.8955 10.189
20.9106 10.222
20.9258 9.945
20.9410 10.047
20.9562 10.268
20.9713 9.808
20.9865 9.903
21.0017 9.750
21.0169 9.919
21.0320 9.861
21.0472 10.105
21.0624 9.853
21.0776 10.161
21.0927 9.836
21.1079 10.086
21.1231 9.833
21.1383 10.022
21.1534 9.685
21.1686 9.662
21.1838 9.731
21.1990 9.420
21.2141 9.667
21.2293 9.829
21.2445 9.624
21.2597 9.551
21.2748 9.541
21.2900 9.659
21.3052 9.553
21.3204 9.584
21.3355 9.661
21.3507 9.385
21.3659 9.488
21.3811 9.717
21.3962 9.533
21.4114 9.639
21.4266 9.425
21.4418 9.404
21.4569 9.128
21.4721 9.437
21.4873 9.544
21.5025 9.509
21.5176 9.110
21.5328 9.141
21.5480 9.177
21.5632 9.521
21.5783 9.434
21.5935 9.013
21.6087 9.255
21.6239 9.211
21.6390 9.210
21.6542 9.205
21.6694 9.278
21.6846 9.286
21.6997 9.353
21.7149 8.985
21.7301 9.127
21.7453 9.124
21.7604 9.150
21.7756 9.215
21.7908 9.148
21.8060 9.159
21.8211 9.108
21.8363 9.100
21.8515 9.015
21.8667 9.023
21.8818 8.996
21.8970 8.864
21.9122 8.828
21.9274 9.080
21.9425 9.315
21.9577 9.144
21.9729 8.816
21.9881 8.782
22.0032 8.812
22.0184 8.734
22.0336 8.838
22.0488 8.791
22.0639 8.901
22.0791 8.865
22.0943 8.693
22.1095 8.729
22.1246 8.656
22.1398 8.779
22.1550 8.677
22.1702 8.631
22.1853 8.844
22.2005 8.984
22.2157 8.807
22.2309 8.682
22.2460 8.753
22.2612 8.790
22.2764 8.680
22.2916 8.673
22.3067 8.801
22.3219 8.846
22.3371 8.873
22.3523 8.476
22.3674 8.592
22.3826 8.583
22.3978 8.658
22.4130 8.446
22.4281 8.513
22.4433 8.587
22.4585 8.373
22.4737 8.587
22.4888 8.518
22.5040 8.405
22.5192 8.578
22.5344 8.498
22.5495 8.640
22.5647 8.813
22.5799 8.683
22.5951 8.489
22.6102 8.586
22.6254 8.349
22.6406 8.407
22.6558 8.709
22.6709 8.519
22.6861 8.408
22.7013 8.408
22.7165 8.175
22.7316 6.544
