'Id: "" Comment: "" Operator: "Lab Manager" Anode: "Mo" Scantype: "Still (Eiger2R_500K (1D mode))" TimePerStep: "300" X: "11.8" Y: "9.4" Z: "11.284" 
7.2532 18.990
7.2684 18.709
7.2836 18.798
7.2987 19.213
7.3139 19.006
7.3291 19.063
7.3443 18.693
7.3594 19.246
7.3746 19.021
7.3898 19.326
7.4050 19.474
7.4201 19.057
7.4353 19.232
7.4505 19.230
7.4657 19.633
7.4808 19.473
7.4960 19.567
7.5112 19.332
7.5264 19.891
7.5415 19.670
7.5567 19.327
7.5719 19.444
7.5871 19.602
7.6022 19.886
7.6174 20.057
7.6326 20.312
7.6478 20.034
7.6629 19.902
7.6781 19.820
7.6933 19.774
7.7085 20.257
7.7236 20.548
7.7388 20.519
7.7540 20.333
7.7692 20.134
7.7843 20.336
7.7995 20.546
7.8147 20.399
7.8299 20.164
7.8450 20.245
7.8602 20.588
7.8754 20.597
7.8905 20.450
7.9057 20.456
7.9209 20.770
7.9361 20.851
7.9512 20.890
7.9664 20.767
7.9816 20.752
7.9968 20.865
8.0119 20.999
8.0271 20.933
8.0423 20.856
8.0575 21.227
8.0726 21.193
8.0878 21.088
8.1030 20.788
8.1182 21.278
8.1333 21.486
8.1485 21.312
8.1637 21.356
8.1789 21.111
8.1940 21.312
8.2092 21.227
8.2244 21.269
8.2396 21.412
8.2547 21.799
8.2699 21.641
8.2851 21.340
8.3003 21.429
8.3154 21.119
8.3306 21.689
8.3458 21.654
8.3610 21.185
8.3761 21.710
8.3913 22.058
8.4065 21.994
8.4217 21.493
8.4368 21.881
8.4520 21.909
8.4672 21.624
8.4824 21.576
8.4975 21.955
8.5127 21.800
8.5279 21.739
8.5431 21.937
8.5582 22.106
8.5734 22.405
8.5886 22.346
8.6038 22.295
8.6189 22.489
8.6341 21.743
8.6493 21.848
8.6645 21.654
8.6796 22.154
8.6948 22.259
8.7100 22.302
8.7252 22.278
8.7403 22.250
8.7555 22.031
8.7707 22.254
8.7859 22.403
8.8010 21.832
8.8162 22.510
8.8314 22.201
8.8466 22.286
8.8617 22.222
8.8769 21.970
8.8921 22.245
8.9073 22.444
8.9224 22.631
8.9376 22.246
8.9528 22.552
8.9680 22.272
8.9831 22.186
8.9983 22.375
9.0135 22.254
9.0287 23.079
9.0438 22.610
9.0590 22.546
9.0742 22.342
9.0894 22.621
9.1045 22.844
9.1197 23.065
9.1349 22.958
9.1501 22.615
9.1652 22.851
9.1804 22.765
9.1956 22.649
9.2108 22.401
9.2259 22.698
9.2411 22.843
9.2563 22.793
9.2715 22.861
9.2866 22.856
9.3018 22.934
9.3170 22.747
9.3322 22.835
9.3473 23.140
9.3625 23.210
9.3777 23.212
9.3929 22.815
9.4080 22.574
9.4232 22.608
9.4384 23.035
9.4536 22.986
9.4687 22.882
9.4839 22.912
9.4991 23.222
9.5143 23.095
9.5294 22.937
9.5446 23.136
9.5598 23.039
9.5750 22.867
9.5901 23.267
9.6053 23.628
9.6205 23.751
9.6357 23.392
9.6508 23.466
9.6660 23.782
9.6812 23.639
9.6964 23.716
9.7115 23.840
9.7267 23.749
9.7419 23.746
9.7571 24.013
9.7722 24.065
9.7874 23.817
9.8026 23.534
9.8178 23.201
9.8329 23.043
9.8481 23.016
9.8633 22.670
9.8785 22.874
9.8936 23.156
9.9088 22.911
9.9240 23.120
9.9392 23.350
9.9543 23.260
9.9695 23.310
9.9847 23.358
9.9999 23.271
10.0150 23.186
10.0302 23.037
10.0454 23.128
10.0606 22.902
10.0757 22.813
10.0909 23.155
10.1061 23.211
10.1213 23.060
10.1364 23.429
10.1516 23.509
10.1668 23.373
10.1820 23.250
10.1971 23.032
10.2123 23.197
10.2275 23.110
10.2427 23.061
10.2578 22.909
10.2730 22.605
10.2882 22.527
10.3034 22.535
10.3185 22.501
10.3337 22.840
10.3489 22.437
10.3641 22.330
10.3792 22.454
10.3944 22.726
10.4096 22.416
10.4248 22.343
10.4399 22.227
10.4551 22.742
10.4703 22.795
10.4855 22.456
10.5006 22.402
10.5158 22.320
10.5310 22.574
10.5462 22.857
10.5613 22.427
10.5765 22.381
10.5917 22.479
10.6069 22.819
10.6220 22.516
10.6372 22.167
10.6524 22.184
10.6676 22.252
10.6827 22.366
10.6979 22.165
10.7131 22.173
10.7283 22.478
10.7434 22.286
10.7586 22.399
10.7738 22.296
10.7890 22.314
10.8041 21.829
10.8193 21.722
10.8345 21.906
10.8497 22.067
10.8648 22.069
10.8800 21.934
10.8952 21.979
10.9104 22.159
10.9255 22.507
10.9407 22.050
10.9559 22.028
10.9711 22.266
10.9862 22.314
11.0014 22.356
11.0166 22.070
11.0318 22.017
11.0469 21.780
11.0621 21.646
11.0773 21.931
11.0925 21.864
11.1076 21.399
11.1228 21.537
11.1380 21.329
11.1532 21.577
11.1683 21.666
11.1835 21.774
11.1987 21.694
11.2139 21.539
11.2290 21.384
11.2442 21.801
11.2594 21.819
11.2746 21.682
11.2897 21.512
11.3049 21.670
11.3201 21.614
11.3353 21.351
11.3504 21.246
11.3656 21.271
11.3808 21.101
11.3960 21.012
11.4111 21.132
11.4263 21.063
11.4415 21.153
11.4567 20.752
11.4718 21.041
11.4870 20.786
11.5022 20.722
11.5174 20.755
11.5325 20.997
11.5477 21.063
11.5629 20.906
11.5781 20.748
11.5932 20.733
11.6084 20.875
11.6236 20.749
11.6388 20.616
11.6539 20.773
11.6691 20.599
11.6843 20.073
11.6995 20.544
11.7146 20.766
11.7298 20.641
11.7450 20.356
11.7602 20.638
11.7753 20.247
11.7905 20.114
11.8057 19.919
11.8209 19.827
11.8360 19.886
11.8512 19.841
11.8664 19.854
11.8816 19.872
11.8967 19.597
11.9119 19.630
11.9271 19.566
11.9423 19.394
11.9574 19.379
11.9726 19.419
11.9878 19.049
12.0030 19.024
12.0181 18.987
12.0333 19.226
12.0485 19.140
12.0637 18.877
12.0788 18.671
12.0940 18.627
12.1092 18.735
12.1244 18.505
12.1395 18.192
12.1547 18.538
12.1699 18.428
12.1851 18.175
12.2002 18.149
12.2154 18.160
12.2306 18.381
12.2458 18.063
12.2609 17.822
12.2761 17.608
12.2913 17.639
12.3065 17.686
12.3216 17.837
12.3368 17.380
12.3520 17.500
12.3672 17.397
12.3823 17.352
12.3975 17.399
12.4127 17.213
12.4279 17.136
12.4430 16.774
12.4582 16.708
12.4734 16.773
12.4886 16.677
12.5037 16.624
12.5189 16.510
12.5341 16.405
12.5493 16.521
12.5644 16.369
12.5796 16.354
12.5948 16.176
12.6100 15.957
12.6251 15.840
12.6403 15.766
12.6555 15.746
12.6707 15.943
12.6858 15.782
12.7010 15.559
12.7162 15.669
12.7314 15.599
12.7465 15.500
12.7617 15.354
12.7769 15.225
12.7921 15.043
12.8072 15.214
12.8224 14.976
12.8376 14.781
12.8528 14.715
12.8679 14.541
12.8831 14.446
12.8983 14.617
12.9135 14.548
12.9286 14.322
12.9438 14.386
12.9590 14.469
12.9742 14.390
12.9893 14.521
13.0045 14.514
13.0197 14.413
13.0349 14.305
13.0500 14.046
13.0652 14.016
13.0804 13.922
13.0956 13.663
13.1107 13.607
13.1259 13.715
13.1411 13.684
13.1563 13.494
13.1714 13.452
13.1866 13.598
13.2018 13.703
13.2170 13.541
13.2321 13.263
13.2473 13.285
13.2625 13.290
13.2777 13.114
13.2928 13.163
13.3080 13.103
13.3232 12.957
13.3384 13.151
13.3535 13.249
13.3687 13.155
13.3839 13.155
13.3991 13.119
13.4142 12.920
13.4294 12.865
13.4446 12.848
13.4598 12.675
13.4749 12.642
13.4901 12.557
13.5053 12.321
13.5205 12.362
13.5356 12.305
13.5508 12.172
13.5660 12.138
13.5812 12.282
13.5963 12.424
13.6115 12.305
13.6267 12.127
13.6419 12.126
13.6570 12.136
13.6722 11.997
13.6874 12.008
13.7026 12.265
13.7177 12.239
13.7329 12.136
13.7481 12.100
13.7633 12.023
13.7784 12.096
13.7936 12.028
13.8088 12.153
13.8239 12.213
13.8391 12.279
13.8543 12.232
13.8695 12.315
13.8846 12.121
13.8998 12.326
13.9150 12.046
13.9302 11.813
13.9453 11.812
13.9605 11.806
13.9757 11.843
13.9909 11.733
14.0060 11.624
14.0212 11.591
14.0364 11.645
14.0516 11.699
14.0667 11.371
14.0819 11.379
14.0971 11.510
14.1123 11.458
14.1274 11.420
14.1426 11.635
14.1578 11.857
14.1730 11.898
14.1881 11.811
14.2033 11.656
14.2185 11.707
14.2337 11.631
14.2488 11.652
14.2640 11.902
14.2792 11.827
14.2944 11.678
14.3095 11.936
14.3247 12.180
14.3399 12.287
14.3551 12.211
14.3702 12.552
14.3854 13.162
14.4006 13.126
14.4158 13.281
14.4309 13.068
14.4461 12.920
14.4613 12.433
14.4765 12.176
14.4916 12.125
14.5068 11.802
14.5220 11.692
14.5372 11.386
14.5523 11.642
14.5675 11.231
14.5827 10.836
14.5979 10.609
14.6130 10.722
14.6282 10.974
14.6434 10.679
14.6586 10.278
14.6737 10.613
14.6889 10.667
14.7041 10.608
14.7193 10.659
14.7344 10.767
14.7496 10.264
14.7648 10.870
14.7800 10.809
14.7951 10.835
14.8103 10.385
14.8255 10.501
14.8407 10.386
14.8558 10.365
14.8710 10.541
14.8862 10.425
14.9014 10.532
14.9165 10.823
14.9317 10.731
14.9469 10.189
14.9621 10.480
14.9772 10.395
14.9924 10.281
15.0076 10.304
15.0228 10.579
15.0379 10.310
15.0531 10.240
15.0683 10.086
15.0835 9.972
15.0986 10.382
15.1138 10.378
15.1290 10.122
15.1442 10.465
15.1593 10.299
15.1745 10.217
15.1897 10.425
15.2049 10.030
15.2200 10.330
15.2352 10.317
15.2504 10.174
15.2656 10.060
15.2807 10.031
15.2959 10.259
15.3111 9.986
15.3263 10.173
15.3414 10.037
15.3566 10.214
15.3718 9.908
15.3870 10.326
15.4021 10.174
15.4173 10.157
15.4325 10.557
15.4477 9.993
15.4628 10.051
15.4780 9.803
15.4932 10.144
15.5084 10.255
15.5235 10.071
15.5387 9.859
15.5539 10.145
15.5691 9.974
15.5842 10.067
15.5994 9.833
15.6146 9.711
15.6298 9.647
15.6449 9.887
15.6601 9.716
15.6753 9.523
15.6905 9.622
15.7056 9.900
15.7208 9.709
15.7360 9.888
15.7512 9.986
15.7663 9.863
15.7815 9.736
15.7967 9.753
15.8119 9.549
15.8270 10.039
15.8422 9.784
15.8574 9.737
15.8726 9.442
15.8877 9.806
15.9029 9.419
15.9181 9.541
15.9333 9.578
15.9484 9.724
15.9636 9.484
15.9788 9.396
15.9940 9.790
16.0091 9.831
16.0243 9.822
16.0395 9.652
16.0547 9.571
16.0698 9.754
16.0850 9.289
16.1002 9.530
16.1154 9.681
16.1305 9.626
16.1457 9.778
16.1609 9.931
16.1761 9.544
16.1912 9.692
16.2064 9.898
16.2216 9.673
16.2368 9.636
16.2519 9.700
16.2671 9.700
16.2823 9.879
16.2975 9.807
16.3126 9.792
16.3278 10.069
16.3430 9.820
16.3582 9.848
16.3733 10.043
16.3885 9.969
16.4037 9.840
16.4189 9.795
16.4340 9.729
16.4492 9.592
16.4644 9.615
16.4796 9.916
16.4947 9.930
16.5099 9.664
16.5251 9.695
16.5403 9.711
16.5554 9.653
16.5706 9.672
16.5858 9.685
16.6010 9.760
16.6161 9.793
16.6313 9.679
16.6465 9.974
16.6617 9.880
16.6768 9.774
16.6920 9.643
16.7072 9.764
16.7224 9.856
16.7375 9.714
16.7527 9.888
16.7679 9.735
16.7831 9.707
16.7982 9.815
16.8134 9.767
16.8286 9.784
16.8438 9.791
16.8589 10.077
16.8741 9.970
16.8893 9.721
16.9045 9.638
16.9196 9.843
16.9348 9.777
16.9500 9.880
16.9652 10.074
16.9803 9.850
16.9955 9.884
17.0107 9.985
17.0259 9.939
17.0410 10.107
17.0562 10.105
17.0714 10.098
17.0866 10.357
17.1017 10.494
17.1169 10.771
17.1321 10.983
17.1473 11.302
17.1624 11.633
17.1776 12.136
17.1928 13.117
17.2080 13.845
17.2231 14.843
17.2383 16.071
17.2535 17.344
17.2687 18.384
17.2838 18.714
17.2990 18.007
17.3142 16.674
17.3294 16.234
17.3445 16.226
17.3597 16.070
17.3749 15.774
17.3901 15.025
17.4052 14.011
17.4204 13.247
17.4356 12.513
17.4508 12.217
17.4659 12.039
17.4811 11.741
17.4963 11.697
17.5115 11.402
17.5266 11.138
17.5418 10.957
17.5570 11.000
17.5722 11.091
17.5873 11.109
17.6025 11.182
17.6177 11.169
17.6329 11.002
17.6480 11.035
17.6632 11.259
17.6784 11.384
17.6936 11.318
17.7087 11.373
17.7239 11.238
17.7391 11.210
17.7543 11.190
17.7694 11.090
17.7846 11.002
17.7998 10.812
17.8150 10.590
17.8301 10.431
17.8453 10.315
17.8605 10.146
17.8757 10.179
17.8908 10.321
17.9060 10.432
17.9212 10.238
17.9364 10.072
17.9515 9.953
17.9667 9.999
17.9819 10.197
17.9971 10.136
18.0122 9.967
18.0274 9.929
18.0426 9.985
18.0578 10.038
18.0729 9.963
18.0881 10.026
18.1033 9.911
18.1185 9.993
18.1336 9.801
18.1488 9.775
18.1640 9.889
18.1792 9.894
18.1943 9.973
18.2095 10.105
18.2247 10.077
18.2399 9.862
18.2550 9.923
18.2702 9.782
18.2854 9.660
18.3006 9.875
18.3157 9.718
18.3309 9.734
18.3461 9.852
18.3613 9.836
18.3764 9.818
18.3916 9.720
18.4068 9.723
18.4220 9.908
18.4371 9.772
18.4523 9.709
18.4675 9.789
18.4827 9.737
18.4978 9.760
18.5130 9.872
18.5282 10.132
18.5434 9.860
18.5585 9.625
18.5737 9.730
18.5889 9.703
18.6041 9.628
18.6192 9.679
18.6344 9.717
18.6496 9.707
18.6648 9.816
18.6799 9.728
18.6951 9.676
18.7103 9.732
18.7255 9.660
18.7406 9.640
18.7558 9.780
18.7710 9.766
18.7862 9.617
18.8013 9.572
18.8165 9.480
18.8317 9.866
18.8469 9.947
18.8620 10.088
18.8772 10.056
18.8924 9.770
18.9076 9.763
18.9227 10.019
18.9379 10.053
18.9531 10.170
18.9683 10.087
18.9834 10.058
18.9986 9.987
19.0138 9.804
19.0290 10.006
19.0441 10.077
19.0593 10.115
19.0745 10.303
19.0897 10.393
19.1048 10.399
19.1200 10.344
19.1352 10.190
19.1504 10.287
19.1655 10.405
19.1807 10.546
19.1959 10.674
19.2111 10.754
19.2262 10.797
19.2414 10.785
19.2566 10.704
19.2718 10.929
19.2869 11.110
19.3021 10.848
19.3173 10.916
19.3325 11.046
19.3476 11.012
19.3628 10.987
19.3780 10.935
19.3932 11.103
19.4083 11.193
19.4235 11.137
19.4387 11.098
19.4539 11.280
19.4690 11.561
19.4842 11.441
19.4994 11.349
19.5146 11.353
19.5297 11.414
19.5449 11.463
19.5601 11.552
19.5753 11.500
19.5904 11.654
19.6056 11.906
19.6208 11.785
19.6360 11.458
19.6511 11.627
19.6663 11.975
19.6815 11.924
19.6967 11.659
19.7118 11.623
19.7270 11.774
19.7422 11.922
19.7574 11.840
19.7725 11.878
19.7877 11.929
19.8029 11.792
19.8180 11.844
19.8332 12.103
19.8484 12.223
19.8636 12.435
19.8787 12.572
19.8939 12.804
19.9091 13.271
19.9243 13.340
19.9394 13.661
19.9546 14.085
19.9698 14.168
19.9850 14.248
20.0001 14.398
20.0153 14.185
20.0305 14.042
20.0457 13.824
20.0608 13.695
20.0760 13.786
20.0912 13.538
20.1064 13.481
20.1215 13.546
20.1367 13.153
20.1519 13.050
20.1671 12.819
20.1822 12.802
20.1974 13.086
20.2126 12.960
20.2278 12.601
20.2429 12.352
20.2581 12.226
20.2733 12.053
20.2885 11.982
20.3036 12.042
20.3188 11.989
20.3340 11.949
20.3492 12.073
20.3643 11.859
20.3795 11.821
20.3947 11.718
20.4099 11.857
20.4250 12.010
20.4402 11.817
20.4554 11.627
20.4706 11.919
20.4857 11.598
20.5009 11.599
20.5161 11.403
20.5313 11.416
20.5464 11.582
20.5616 11.473
20.5768 11.421
20.5920 11.441
20.6071 11.108
20.6223 11.001
20.6375 10.945
20.6527 10.919
20.6678 10.726
20.6830 10.927
20.6982 10.760
20.7134 10.620
20.7285 10.401
20.7437 10.390
20.7589 10.549
20.7741 10.529
20.7892 10.405
20.8044 10.533
20.8196 10.326
20.8348 10.334
20.8499 9.898
20.8651 10.111
20.8803 10.566
20.8955 10.389
20.9106 10.427
20.9258 10.341
20.9410 10.200
20.9562 10.110
20.9713 9.751
20.9865 9.988
21.0017 9.910
21.0169 10.071
21.0320 10.177
21.0472 9.901
21.0624 9.841
21.0776 9.862
21.0927 9.998
21.1079 9.640
21.1231 10.036
21.1383 9.540
21.1534 9.664
21.1686 9.605
21.1838 9.443
21.1990 9.743
21.2141 9.675
21.2293 9.776
21.2445 9.687
21.2597 9.357
21.2748 9.947
21.2900 9.599
21.3052 9.741
21.3204 9.785
21.3355 9.522
21.3507 9.762
21.3659 9.659
21.3811 9.601
21.3962 9.351
21.4114 9.387
21.4266 9.333
21.4418 9.236
21.4569 9.422
21.4721 9.568
21.4873 9.407
21.5025 9.389
21.5176 9.302
21.5328 9.035
21.5480 9.015
21.5632 9.154
21.5783 9.455
21.5935 9.260
21.6087 8.973
21.6239 9.104
21.6390 8.895
21.6542 9.185
21.6694 9.176
21.6846 9.033
21.6997 9.245
21.7149 9.214
21.7301 9.112
21.7453 8.956
21.7604 9.011
21.7756 9.060
21.7908 8.965
21.8060 8.899
21.8211 9.025
21.8363 9.303
21.8515 9.167
21.8667 9.047
21.8818 8.964
21.8970 8.991
21.9122 9.062
21.9274 8.829
21.9425 8.859
21.9577 9.059
21.9729 9.034
21.9881 8.923
22.0032 8.825
22.0184 8.835
22.0336 8.856
22.0488 8.693
22.0639 8.522
22.0791 8.696
22.0943 8.802
22.1095 8.812
22.1246 8.485
22.1398 8.312
22.1550 8.503
22.1702 8.487
22.1853 8.499
22.2005 8.773
22.2157 8.632
22.2309 8.731
22.2460 8.616
22.2612 8.562
22.2764 8.540
22.2916 8.543
22.3067 8.447
22.3219 8.307
22.3371 8.470
22.3523 8.733
22.3674 8.554
22.3826 8.449
22.3978 8.540
22.4130 8.379
22.4281 8.380
22.4433 8.499
22.4585 8.521
22.4737 8.605
22.4888 8.578
22.5040 8.503
22.5192 8.549
22.5344 8.195
22.5495 8.478
22.5647 8.319
22.5799 8.501
22.5951 8.455
22.6102 8.420
22.6254 8.564
22.6406 8.223
22.6558 8.544
22.6709 8.320
22.6861 8.273
22.7013 8.352
22.7165 7.949
22.7316 6.367
