'Id: "" Comment: "" Operator: "Lab Manager" Anode: "Mo" Scantype: "Still (Eiger2R_500K (1D mode))" TimePerStep: "300" X: "11.8" Y: "9.4" Z: "11.284" 
7.2532 19.061
7.2684 19.191
7.2836 18.677
7.2987 19.189
7.3139 19.281
7.3291 19.450
7.3443 19.399
7.3594 19.786
7.3746 19.535
7.3898 19.897
7.4050 19.696
7.4201 19.668
7.4353 19.671
7.4505 19.985
7.4657 19.492
7.4808 19.558
7.4960 19.639
7.5112 19.889
7.5264 19.977
7.5415 19.691
7.5567 19.480
7.5719 19.758
7.5871 19.793
7.6022 20.260
7.6174 20.410
7.6326 20.045
7.6478 20.123
7.6629 20.285
7.6781 20.201
7.6933 20.367
7.7085 20.241
7.7236 20.209
7.7388 20.424
7.7540 20.223
7.7692 20.258
7.7843 20.320
7.7995 20.455
7.8147 20.700
7.8299 20.441
7.8450 20.690
7.8602 20.996
7.8754 20.904
7.8905 20.664
7.9057 20.773
7.9209 21.254
7.9361 21.121
7.9512 20.956
7.9664 21.066
7.9816 21.250
7.9968 21.273
8.0119 21.144
8.0271 21.301
8.0423 21.182
8.0575 21.335
8.0726 21.022
8.0878 21.177
8.1030 21.642
8.1182 21.875
8.1333 22.120
8.1485 21.601
8.1637 21.751
8.1789 21.669
8.1940 21.855
8.2092 21.762
8.2244 21.818
8.2396 21.890
8.2547 21.641
8.2699 21.556
8.2851 21.638
8.3003 21.912
8.3154 21.636
8.3306 21.539
8.3458 21.441
8.3610 21.778
8.3761 21.759
8.3913 22.091
8.4065 21.681
8.4217 22.048
8.4368 21.371
8.4520 22.134
8.4672 21.902
8.4824 21.611
8.4975 21.746
8.5127 22.024
8.5279 21.969
8.5431 22.114
8.5582 22.353
8.5734 22.370
8.5886 22.139
8.6038 22.086
8.6189 22.405
8.6341 21.932
8.6493 21.900
8.6645 21.879
8.6796 22.348
8.6948 22.464
8.7100 22.522
8.7252 22.601
8.7403 22.590
8.7555 22.222
8.7707 22.230
8.7859 22.778
8.8010 22.780
8.8162 22.524
8.8314 22.382
8.8466 22.718
8.8617 22.848
8.8769 22.715
8.8921 23.252
8.9073 23.005
8.9224 22.734
8.9376 22.531
8.9528 22.313
8.9680 22.469
8.9831 23.013
8.9983 22.184
9.0135 22.320
9.0287 22.557
9.0438 22.767
9.0590 22.540
9.0742 22.539
9.0894 22.746
9.1045 23.017
9.1197 22.669
9.1349 23.022
9.1501 23.078
9.1652 22.886
9.1804 22.767
9.1956 22.470
9.2108 22.405
9.2259 22.702
9.2411 22.891
9.2563 22.754
9.2715 22.922
9.2866 22.722
9.3018 23.095
9.3170 23.176
9.3322 23.052
9.3473 23.227
9.3625 22.832
9.3777 22.827
9.3929 23.290
9.4080 23.475
9.4232 23.042
9.4384 22.848
9.4536 22.728
9.4687 22.950
9.4839 23.114
9.4991 22.908
9.5143 23.262
9.5294 23.361
9.5446 23.134
9.5598 23.134
9.5750 23.138
9.5901 23.532
9.6053 23.843
9.6205 23.539
9.6357 23.618
9.6508 23.557
9.6660 23.499
9.6812 24.041
9.6964 24.177
9.7115 23.915
9.7267 24.328
9.7419 24.444
9.7571 24.011
9.7722 24.156
9.7874 24.097
9.8026 24.086
9.8178 23.867
9.8329 23.619
9.8481 23.898
9.8633 23.996
9.8785 24.196
9.8936 24.182
9.9088 24.085
9.9240 24.278
9.9392 24.267
9.9543 24.225
9.9695 24.208
9.9847 23.951
9.9999 23.891
10.0150 23.772
10.0302 23.366
10.0454 23.336
10.0606 23.298
10.0757 23.640
10.0909 23.857
10.1061 23.859
10.1213 23.901
10.1364 23.720
10.1516 23.811
10.1668 23.678
10.1820 23.304
10.1971 23.616
10.2123 23.525
10.2275 23.625
10.2427 23.668
10.2578 23.852
10.2730 23.929
10.2882 23.838
10.3034 23.552
10.3185 23.416
10.3337 23.246
10.3489 23.070
10.3641 23.238
10.3792 23.153
10.3944 23.296
10.4096 23.375
10.4248 23.154
10.4399 23.117
10.4551 23.160
10.4703 22.994
10.4855 22.962
10.5006 23.074
10.5158 22.872
10.5310 22.683
10.5462 22.663
10.5613 22.504
10.5765 22.756
10.5917 23.005
10.6069 22.730
10.6220 22.749
10.6372 23.087
10.6524 22.934
10.6676 22.784
10.6827 22.821
10.6979 22.508
10.7131 22.162
10.7283 22.277
10.7434 22.142
10.7586 22.408
10.7738 22.364
10.7890 22.367
10.8041 22.685
10.8193 22.373
10.8345 21.992
10.8497 22.031
10.8648 22.220
10.8800 22.351
10.8952 22.080
10.9104 22.086
10.9255 21.764
10.9407 21.968
10.9559 21.236
10.9711 21.574
10.9862 22.219
11.0014 22.449
11.0166 22.188
11.0318 21.969
11.0469 21.610
11.0621 21.636
11.0773 21.716
11.0925 21.700
11.1076 21.974
11.1228 21.369
11.1380 21.255
11.1532 21.587
11.1683 21.523
11.1835 21.742
11.1987 21.968
11.2139 21.510
11.2290 21.553
11.2442 21.939
11.2594 22.034
11.2746 22.096
11.2897 21.671
11.3049 21.434
11.3201 21.013
11.3353 21.199
11.3504 21.365
11.3656 21.739
11.3808 21.463
11.3960 21.512
11.4111 21.361
11.4263 21.026
11.4415 20.985
11.4567 21.152
11.4718 21.481
11.4870 21.018
11.5022 20.912
11.5174 21.209
11.5325 21.251
11.5477 21.547
11.5629 21.195
11.5781 21.175
11.5932 20.916
11.6084 20.731
11.6236 20.800
11.6388 20.754
11.6539 20.531
11.6691 20.851
11.6843 20.623
11.6995 20.346
11.7146 20.354
11.7298 20.636
11.7450 20.632
11.7602 20.403
11.7753 20.164
11.7905 19.967
11.8057 20.074
11.8209 19.792
11.8360 20.382
11.8512 20.402
11.8664 20.504
11.8816 20.048
11.8967 19.749
11.9119 19.629
11.9271 19.626
11.9423 19.533
11.9574 19.181
11.9726 19.264
11.9878 19.625
12.0030 19.453
12.0181 19.091
12.0333 19.108
12.0485 19.001
12.0637 18.984
12.0788 19.017
12.0940 18.852
12.1092 18.635
12.1244 18.510
12.1395 18.680
12.1547 18.626
12.1699 18.216
12.1851 18.298
12.2002 18.434
12.2154 18.258
12.2306 17.942
12.2458 17.701
12.2609 17.964
12.2761 17.837
12.2913 17.676
12.3065 17.780
12.3216 17.883
12.3368 17.828
12.3520 17.813
12.3672 17.436
12.3823 16.981
12.3975 17.190
12.4127 17.112
12.4279 16.949
12.4430 17.165
12.4582 16.985
12.4734 16.852
12.4886 16.800
12.5037 16.599
12.5189 16.523
12.5341 16.651
12.5493 16.310
12.5644 16.301
12.5796 16.216
12.5948 16.041
12.6100 15.789
12.6251 16.102
12.6403 16.124
12.6555 15.975
12.6707 15.731
12.6858 15.474
12.7010 15.611
12.7162 15.612
12.7314 15.377
12.7465 15.261
12.7617 15.518
12.7769 15.498
12.7921 15.525
12.8072 15.392
12.8224 14.973
12.8376 14.737
12.8528 14.780
12.8679 14.783
12.8831 14.649
12.8983 14.570
12.9135 14.544
12.9286 14.498
12.9438 14.709
12.9590 14.499
12.9742 14.060
12.9893 14.201
13.0045 14.304
13.0197 14.158
13.0349 14.001
13.0500 13.878
13.0652 14.050
13.0804 14.044
13.0956 13.868
13.1107 13.725
13.1259 13.488
13.1411 13.512
13.1563 13.480
13.1714 13.552
13.1866 13.646
13.2018 13.649
13.2170 13.872
13.2321 13.739
13.2473 13.383
13.2625 13.126
13.2777 13.138
13.2928 13.396
13.3080 13.462
13.3232 13.428
13.3384 13.357
13.3535 13.185
13.3687 12.961
13.3839 12.917
13.3991 13.125
13.4142 13.130
13.4294 13.018
13.4446 12.864
13.4598 12.656
13.4749 12.678
13.4901 12.588
13.5053 12.396
13.5205 12.240
13.5356 12.314
13.5508 12.384
13.5660 12.495
13.5812 12.166
13.5963 11.896
13.6115 12.005
13.6267 12.161
13.6419 12.181
13.6570 12.254
13.6722 12.167
13.6874 11.835
13.7026 11.707
13.7177 11.946
13.7329 11.898
13.7481 11.770
13.7633 11.919
13.7784 12.190
13.7936 12.082
13.8088 12.131
13.8239 11.993
13.8391 12.149
13.8543 12.040
13.8695 11.950
13.8846 11.972
13.8998 12.073
13.9150 12.229
13.9302 12.005
13.9453 11.902
13.9605 12.130
13.9757 12.057
13.9909 11.914
14.0060 11.761
14.0212 11.583
14.0364 11.567
14.0516 11.501
14.0667 11.587
14.0819 11.577
14.0971 11.583
14.1123 11.086
14.1274 11.183
14.1426 11.427
14.1578 11.384
14.1730 11.044
14.1881 11.169
14.2033 10.990
14.2185 11.339
14.2337 11.500
14.2488 11.216
14.2640 11.292
14.2792 11.589
14.2944 12.007
14.3095 11.907
14.3247 11.639
14.3399 11.848
14.3551 11.964
14.3702 12.403
14.3854 12.608
14.4006 12.945
14.4158 13.054
14.4309 13.499
14.4461 13.251
14.4613 13.418
14.4765 13.347
14.4916 13.075
14.5068 13.014
14.5220 13.191
14.5372 13.107
14.5523 12.907
14.5675 12.623
14.5827 12.277
14.5979 12.259
14.6130 12.184
14.6282 12.033
14.6434 12.098
14.6586 11.806
14.6737 11.624
14.6889 11.543
14.7041 11.336
14.7193 11.262
14.7344 11.253
14.7496 11.313
14.7648 11.168
14.7800 11.119
14.7951 10.897
14.8103 11.268
14.8255 11.204
14.8407 11.042
14.8558 10.969
14.8710 11.186
14.8862 11.036
14.9014 10.761
14.9165 11.261
14.9317 11.103
14.9469 10.796
14.9621 10.690
14.9772 10.710
14.9924 10.605
15.0076 10.747
15.0228 11.210
15.0379 10.335
15.0531 10.419
15.0683 10.581
15.0835 10.254
15.0986 10.484
15.1138 10.330
15.1290 10.136
15.1442 10.550
15.1593 10.404
15.1745 10.483
15.1897 9.832
15.2049 10.777
15.2200 10.672
15.2352 10.695
15.2504 10.328
15.2656 10.246
15.2807 10.413
15.2959 10.394
15.3111 10.192
15.3263 10.302
15.3414 10.339
15.3566 10.343
15.3718 10.155
15.3870 10.129
15.4021 10.642
15.4173 10.413
15.4325 10.431
15.4477 10.613
15.4628 10.340
15.4780 10.401
15.4932 10.316
15.5084 10.410
15.5235 10.079
15.5387 10.146
15.5539 10.563
15.5691 10.270
15.5842 10.414
15.5994 10.272
15.6146 10.339
15.6298 10.102
15.6449 10.145
15.6601 10.174
15.6753 9.856
15.6905 10.020
15.7056 9.893
15.7208 9.853
15.7360 9.860
15.7512 9.711
15.7663 9.846
15.7815 9.622
15.7967 9.747
15.8119 9.906
15.8270 9.936
15.8422 10.220
15.8574 9.883
15.8726 9.839
15.8877 9.716
15.9029 9.623
15.9181 9.714
15.9333 9.701
15.9484 9.741
15.9636 9.656
15.9788 9.636
15.9940 9.725
16.0091 9.680
16.0243 9.852
16.0395 9.904
16.0547 9.851
16.0698 9.680
16.0850 9.727
16.1002 9.722
16.1154 9.644
16.1305 9.595
16.1457 9.507
16.1609 9.500
16.1761 9.632
16.1912 9.783
16.2064 9.872
16.2216 9.894
16.2368 9.923
16.2519 9.963
16.2671 10.012
16.2823 10.016
16.2975 10.016
16.3126 9.916
16.3278 10.205
16.3430 9.984
16.3582 9.982
16.3733 10.017
16.3885 10.430
16.4037 10.505
16.4189 10.234
16.4340 10.177
16.4492 10.200
16.4644 10.024
16.4796 9.964
16.4947 9.857
16.5099 10.001
16.5251 9.819
16.5403 9.868
16.5554 9.976
16.5706 9.834
16.5858 9.627
16.6010 9.876
16.6161 10.017
16.6313 9.929
16.6465 9.985
16.6617 9.871
16.6768 9.748
16.6920 9.777
16.7072 9.949
16.7224 10.275
16.7375 10.240
16.7527 10.199
16.7679 10.301
16.7831 10.077
16.7982 10.106
16.8134 9.986
16.8286 10.043
16.8438 9.976
16.8589 9.883
16.8741 9.675
16.8893 9.712
16.9045 9.747
16.9196 9.852
16.9348 10.021
16.9500 9.997
16.9652 9.875
16.9803 10.082
16.9955 10.166
17.0107 10.078
17.0259 10.030
17.0410 10.141
17.0562 10.174
17.0714 10.135
17.0866 10.461
17.1017 10.599
17.1169 10.698
17.1321 10.895
17.1473 11.415
17.1624 11.805
17.1776 12.548
17.1928 13.363
17.2080 14.020
17.2231 15.112
17.2383 16.247
17.2535 17.329
17.2687 18.265
17.2838 18.655
17.2990 18.141
17.3142 17.109
17.3294 16.235
17.3445 16.089
17.3597 15.898
17.3749 15.450
17.3901 15.147
17.4052 14.232
17.4204 13.063
17.4356 12.356
17.4508 11.808
17.4659 11.510
17.4811 11.472
17.4963 11.451
17.5115 11.249
17.5266 10.622
17.5418 10.460
17.5570 10.540
17.5722 10.499
17.5873 10.558
17.6025 10.439
17.6177 10.450
17.6329 10.434
17.6480 10.300
17.6632 10.254
17.6784 10.411
17.6936 10.345
17.7087 10.265
17.7239 10.564
17.7391 10.634
17.7543 10.724
17.7694 11.089
17.7846 11.263
17.7998 11.216
17.8150 11.511
17.8301 12.129
17.8453 12.466
17.8605 12.514
17.8757 12.490
17.8908 12.332
17.9060 12.282
17.9212 12.560
17.9364 12.012
17.9515 11.545
17.9667 11.581
17.9819 11.319
17.9971 11.206
18.0122 11.007
18.0274 11.010
18.0426 10.927
18.0578 10.658
18.0729 10.324
18.0881 10.308
18.1033 10.358
18.1185 10.054
18.1336 9.821
18.1488 9.944
18.1640 10.067
18.1792 10.053
18.1943 10.128
18.2095 9.889
18.2247 9.717
18.2399 9.949
18.2550 9.977
18.2702 9.972
18.2854 9.949
18.3006 9.955
18.3157 9.887
18.3309 9.801
18.3461 9.719
18.3613 9.908
18.3764 9.802
18.3916 9.801
18.4068 9.833
18.4220 9.768
18.4371 10.016
18.4523 9.859
18.4675 10.020
18.4827 9.861
18.4978 9.766
18.5130 10.032
18.5282 9.998
18.5434 9.988
18.5585 10.046
18.5737 9.923
18.5889 9.726
18.6041 9.793
18.6192 9.950
18.6344 9.830
18.6496 9.854
18.6648 9.852
18.6799 9.634
18.6951 9.699
18.7103 9.909
18.7255 9.837
18.7406 9.668
18.7558 9.704
18.7710 9.844
18.7862 9.926
18.8013 9.918
18.8165 9.709
18.8317 9.840
18.8469 9.924
18.8620 9.860
18.8772 10.081
18.8924 10.191
18.9076 10.013
18.9227 10.153
18.9379 9.940
18.9531 9.879
18.9683 10.121
18.9834 10.177
18.9986 10.008
19.0138 10.036
19.0290 10.278
19.0441 10.178
19.0593 10.259
19.0745 10.341
19.0897 10.556
19.1048 10.212
19.1200 10.246
19.1352 10.461
19.1504 10.579
19.1655 10.806
19.1807 10.729
19.1959 10.672
19.2111 10.742
19.2262 10.799
19.2414 10.852
19.2566 10.803
19.2718 10.623
19.2869 10.943
19.3021 10.990
19.3173 10.884
19.3325 11.020
19.3476 10.927
19.3628 11.237
19.3780 11.424
19.3932 11.309
19.4083 11.271
19.4235 11.261
19.4387 11.272
19.4539 11.322
19.4690 11.384
19.4842 11.303
19.4994 11.467
19.5146 11.509
19.5297 11.457
19.5449 11.382
19.5601 11.477
19.5753 11.711
19.5904 11.776
19.6056 11.373
19.6208 11.298
19.6360 11.454
19.6511 11.589
19.6663 11.763
19.6815 11.691
19.6967 11.666
19.7118 11.714
19.7270 11.893
19.7422 11.973
19.7574 11.688
19.7725 11.672
19.7877 11.864
19.8029 11.760
19.8180 11.846
19.8332 12.056
19.8484 12.147
19.8636 12.263
19.8787 12.437
19.8939 12.860
19.9091 13.132
19.9243 13.500
19.9394 13.829
19.9546 13.815
19.9698 14.242
19.9850 14.562
20.0001 14.492
20.0153 14.205
20.0305 14.110
20.0457 13.930
20.0608 13.788
20.0760 13.695
20.0912 13.712
20.1064 13.671
20.1215 13.195
20.1367 12.908
20.1519 12.900
20.1671 12.748
20.1822 12.705
20.1974 12.682
20.2126 12.600
20.2278 12.629
20.2429 12.617
20.2581 12.225
20.2733 12.278
20.2885 11.959
20.3036 11.412
20.3188 11.638
20.3340 11.759
20.3492 11.733
20.3643 11.421
20.3795 11.219
20.3947 11.191
20.4099 11.032
20.4250 11.166
20.4402 11.061
20.4554 10.961
20.4706 11.046
20.4857 10.901
20.5009 10.773
20.5161 10.968
20.5313 10.889
20.5464 11.089
20.5616 10.810
20.5768 10.724
20.5920 10.777
20.6071 10.846
20.6223 10.681
20.6375 10.507
20.6527 10.870
20.6678 10.739
20.6830 10.645
20.6982 10.631
20.7134 10.800
20.7285 10.536
20.7437 10.843
20.7589 10.738
20.7741 10.477
20.7892 10.948
20.8044 10.563
20.8196 10.563
20.8348 10.417
20.8499 10.176
20.8651 10.507
20.8803 10.382
20.8955 10.485
20.9106 10.399
20.9258 10.643
20.9410 10.364
20.9562 10.654
20.9713 10.849
20.9865 10.605
21.0017 10.597
21.0169 10.503
21.0320 10.471
21.0472 10.327
21.0624 10.250
21.0776 10.433
21.0927 10.304
21.1079 10.397
21.1231 10.311
21.1383 9.931
21.1534 10.187
21.1686 9.932
21.1838 10.056
21.1990 10.060
21.2141 9.620
21.2293 9.919
21.2445 9.696
21.2597 9.834
21.2748 9.859
21.2900 9.916
21.3052 9.515
21.3204 9.679
21.3355 9.394
21.3507 9.497
21.3659 9.674
21.3811 9.508
21.3962 9.332
21.4114 9.514
21.4266 9.497
21.4418 9.662
21.4569 9.170
21.4721 9.250
21.4873 9.343
21.5025 9.088
21.5176 9.089
21.5328 9.218
21.5480 9.229
21.5632 9.138
21.5783 9.319
21.5935 9.219
21.6087 9.080
21.6239 9.042
21.6390 9.167
21.6542 9.269
21.6694 9.198
21.6846 8.992
21.6997 9.014
21.7149 8.943
21.7301 9.165
21.7453 9.148
21.7604 9.190
21.7756 9.019
21.7908 8.884
21.8060 8.957
21.8211 9.046
21.8363 8.839
21.8515 8.759
21.8667 8.962
21.8818 8.983
21.8970 9.037
21.9122 8.882
21.9274 8.935
21.9425 9.000
21.9577 8.928
21.9729 8.931
21.9881 9.100
22.0032 9.101
22.0184 9.014
22.0336 8.895
22.0488 8.756
22.0639 8.605
22.0791 8.526
22.0943 8.696
22.1095 8.807
22.1246 8.758
22.1398 8.615
22.1550 8.606
22.1702 8.640
22.1853 8.574
22.2005 8.606
22.2157 8.463
22.2309 8.327
22.2460 8.327
22.2612 8.285
22.2764 8.534
22.2916 8.573
22.3067 8.419
22.3219 8.586
22.3371 8.493
22.3523 8.519
22.3674 8.745
22.3826 8.612
22.3978 8.135
22.4130 8.432
22.4281 8.556
22.4433 8.430
22.4585 8.396
22.4737 8.473
22.4888 8.212
22.5040 8.649
22.5192 8.389
22.5344 8.538
22.5495 8.686
22.5647 8.764
22.5799 8.423
22.5951 8.775
22.6102 8.424
22.6254 8.311
22.6406 8.349
22.6558 8.475
22.6709 8.436
22.6861 8.255
22.7013 8.062
22.7165 8.052
22.7316 6.542
