'Id: "" Comment: "" Operator: "Lab Manager" Anode: "Mo" Scantype: "Still (Eiger2R_500K (1D mode))" TimePerStep: "300" X: "11.8" Y: "9.4" Z: "11.284" 
7.2532 18.591
7.2684 19.232
7.2836 18.249
7.2987 18.375
7.3139 18.896
7.3291 18.921
7.3443 19.391
7.3594 18.928
7.3746 19.343
7.3898 19.129
7.4050 18.718
7.4201 19.203
7.4353 19.298
7.4505 19.390
7.4657 19.525
7.4808 19.117
7.4960 19.529
7.5112 19.767
7.5264 19.323
7.5415 19.735
7.5567 20.076
7.5719 19.928
7.5871 19.807
7.6022 20.132
7.6174 19.924
7.6326 19.787
7.6478 20.059
7.6629 20.001
7.6781 19.892
7.6933 20.111
7.7085 19.962
7.7236 19.983
7.7388 20.067
7.7540 20.161
7.7692 20.360
7.7843 20.457
7.7995 20.317
7.8147 20.400
7.8299 20.455
7.8450 20.292
7.8602 20.737
7.8754 21.146
7.8905 21.024
7.9057 20.677
7.9209 20.422
7.9361 20.635
7.9512 20.462
7.9664 20.794
7.9816 20.743
7.9968 20.649
8.0119 20.674
8.0271 20.700
8.0423 20.794
8.0575 21.014
8.0726 21.238
8.0878 21.324
8.1030 21.372
8.1182 21.320
8.1333 21.193
8.1485 20.906
8.1637 21.105
8.1789 21.251
8.1940 20.938
8.2092 21.519
8.2244 21.392
8.2396 21.257
8.2547 21.236
8.2699 21.404
8.2851 21.722
8.3003 21.702
8.3154 21.599
8.3306 21.830
8.3458 21.271
8.3610 21.352
8.3761 21.878
8.3913 21.970
8.4065 21.417
8.4217 21.402
8.4368 21.962
8.4520 21.719
8.4672 21.522
8.4824 21.635
8.4975 22.345
8.5127 21.984
8.5279 22.179
8.5431 22.020
8.5582 21.964
8.5734 21.781
8.5886 21.893
8.6038 22.258
8.6189 21.739
8.6341 21.768
8.6493 21.951
8.6645 22.247
8.6796 22.384
8.6948 21.745
8.7100 22.220
8.7252 22.007
8.7403 22.381
8.7555 22.293
8.7707 22.283
8.7859 22.418
8.8010 22.272
8.8162 22.181
8.8314 22.436
8.8466 23.046
8.8617 22.055
8.8769 22.324
8.8921 21.949
8.9073 22.599
8.9224 22.434
8.9376 22.570
8.9528 22.495
8.9680 22.290
8.9831 22.393
8.9983 22.563
9.0135 22.470
9.0287 22.786
9.0438 22.833
9.0590 22.780
9.0742 22.647
9.0894 22.902
9.1045 22.636
9.1197 22.490
9.1349 22.560
9.1501 22.710
9.1652 23.109
9.1804 22.853
9.1956 22.693
9.2108 22.477
9.2259 22.666
9.2411 22.436
9.2563 22.798
9.2715 23.154
9.2866 22.647
9.3018 22.951
9.3170 22.866
9.3322 22.822
9.3473 22.631
9.3625 22.842
9.3777 22.819
9.3929 22.551
9.4080 22.512
9.4232 22.698
9.4384 22.985
9.4536 23.212
9.4687 23.336
9.4839 22.987
9.4991 22.793
9.5143 22.967
9.5294 23.060
9.5446 23.076
9.5598 23.301
9.5750 23.344
9.5901 23.186
9.6053 23.128
9.6205 23.092
9.6357 22.867
9.6508 22.997
9.6660 23.355
9.6812 23.716
9.6964 23.738
9.7115 23.751
9.7267 24.038
9.7419 23.827
9.7571 23.666
9.7722 23.420
9.7874 23.274
9.8026 23.518
9.8178 23.482
9.8329 23.363
9.8481 23.359
9.8633 23.121
9.8785 23.024
9.8936 23.161
9.9088 22.970
9.9240 22.877
9.9392 22.949
9.9543 23.383
9.9695 23.513
9.9847 23.050
9.9999 23.168
10.0150 23.435
10.0302 23.178
10.0454 23.151
10.0606 23.108
10.0757 23.194
10.0909 23.178
10.1061 23.042
10.1213 23.322
10.1364 23.524
10.1516 23.154
10.1668 23.151
10.1820 23.188
10.1971 23.011
10.2123 22.913
10.2275 22.619
10.2427 22.535
10.2578 22.523
10.2730 22.891
10.2882 23.063
10.3034 22.665
10.3185 22.702
10.3337 22.587
10.3489 22.405
10.3641 22.394
10.3792 22.790
10.3944 22.804
10.4096 22.805
10.4248 22.736
10.4399 22.574
10.4551 22.399
10.4703 22.514
10.4855 22.508
10.5006 22.615
10.5158 22.292
10.5310 22.194
10.5462 22.463
10.5613 22.311
10.5765 22.506
10.5917 22.569
10.6069 22.452
10.6220 22.409
10.6372 22.317
10.6524 22.439
10.6676 22.816
10.6827 22.614
10.6979 22.254
10.7131 22.325
10.7283 22.395
10.7434 22.394
10.7586 22.514
10.7738 22.483
10.7890 22.431
10.8041 22.173
10.8193 22.197
10.8345 22.377
10.8497 22.252
10.8648 21.894
10.8800 21.699
10.8952 21.988
10.9104 21.928
10.9255 21.934
10.9407 21.778
10.9559 22.202
10.9711 22.176
10.9862 22.005
11.0014 21.865
11.0166 22.372
11.0318 22.388
11.0469 21.946
11.0621 21.772
11.0773 21.306
11.0925 21.731
11.1076 22.004
11.1228 21.700
11.1380 21.018
11.1532 21.625
11.1683 21.549
11.1835 21.395
11.1987 21.319
11.2139 21.512
11.2290 21.674
11.2442 21.791
11.2594 21.686
11.2746 21.518
11.2897 21.405
11.3049 21.658
11.3201 21.504
11.3353 21.259
11.3504 21.140
11.3656 21.425
11.3808 21.366
11.3960 21.135
11.4111 21.125
11.4263 21.142
11.4415 21.344
11.4567 20.985
11.4718 21.036
11.4870 20.844
11.5022 20.821
11.5174 20.637
11.5325 20.878
11.5477 20.904
11.5629 20.893
11.5781 20.992
11.5932 21.112
11.6084 20.622
11.6236 20.817
11.6388 20.927
11.6539 20.888
11.6691 20.942
11.6843 20.518
11.6995 20.012
11.7146 20.151
11.7298 20.373
11.7450 20.396
11.7602 20.294
11.7753 20.271
11.7905 19.814
11.8057 19.808
11.8209 19.870
11.8360 19.949
11.8512 19.726
11.8664 19.250
11.8816 19.234
11.8967 19.359
11.9119 19.669
11.9271 19.826
11.9423 19.884
11.9574 19.626
11.9726 19.543
11.9878 19.004
12.0030 19.371
12.0181 19.401
12.0333 18.872
12.0485 18.978
12.0637 18.809
12.0788 18.872
12.0940 18.601
12.1092 18.709
12.1244 19.072
12.1395 18.806
12.1547 18.591
12.1699 18.399
12.1851 18.171
12.2002 18.274
12.2154 18.292
12.2306 18.438
12.2458 18.000
12.2609 17.791
12.2761 17.787
12.2913 17.833
12.3065 17.846
12.3216 17.539
12.3368 17.638
12.3520 17.446
12.3672 17.194
12.3823 17.119
12.3975 17.149
12.4127 17.152
12.4279 17.183
12.4430 17.069
12.4582 16.780
12.4734 16.638
12.4886 16.476
12.5037 16.203
12.5189 16.340
12.5341 16.436
12.5493 16.475
12.5644 15.880
12.5796 15.899
12.5948 16.048
12.6100 16.025
12.6251 15.833
12.6403 15.807
12.6555 15.590
12.6707 15.576
12.6858 15.585
12.7010 15.288
12.7162 15.478
12.7314 15.456
12.7465 15.214
12.7617 15.203
12.7769 15.175
12.7921 15.296
12.8072 14.984
12.8224 14.961
12.8376 15.006
12.8528 14.961
12.8679 14.992
12.8831 14.650
12.8983 14.532
12.9135 14.659
12.9286 14.708
12.9438 14.530
12.9590 14.509
12.9742 14.480
12.9893 14.377
13.0045 14.168
13.0197 13.931
13.0349 14.017
13.0500 14.128
13.0652 14.143
13.0804 14.035
13.0956 14.063
13.1107 14.074
13.1259 13.825
13.1411 13.715
13.1563 13.743
13.1714 13.699
13.1866 13.688
13.2018 13.741
13.2170 13.628
13.2321 13.327
13.2473 13.259
13.2625 13.275
13.2777 13.270
13.2928 13.271
13.3080 13.170
13.3232 13.415
13.3384 13.441
13.3535 13.202
13.3687 13.088
13.3839 12.934
13.3991 12.919
13.4142 12.906
13.4294 12.913
13.4446 12.959
13.4598 12.814
13.4749 12.760
13.4901 13.004
13.5053 12.652
13.5205 12.346
13.5356 12.556
13.5508 12.505
13.5660 12.367
13.5812 12.144
13.5963 12.234
13.6115 12.144
13.6267 12.087
13.6419 12.084
13.6570 11.993
13.6722 11.918
13.6874 12.084
13.7026 12.231
13.7177 12.132
13.7329 11.871
13.7481 11.827
13.7633 11.930
13.7784 12.152
13.7936 12.144
13.8088 12.224
13.8239 12.244
13.8391 12.203
13.8543 12.270
13.8695 12.272
13.8846 12.549
13.8998 12.147
13.9150 11.994
13.9302 12.124
13.9453 11.862
13.9605 11.652
13.9757 11.791
13.9909 11.933
14.0060 11.890
14.0212 11.550
14.0364 11.607
14.0516 11.510
14.0667 11.455
14.0819 11.611
14.0971 11.669
14.1123 11.649
14.1274 11.799
14.1426 11.840
14.1578 11.679
14.1730 11.609
14.1881 11.744
14.2033 11.576
14.2185 11.748
14.2337 11.938
14.2488 11.644
14.2640 11.938
14.2792 11.814
14.2944 12.064
14.3095 11.959
14.3247 11.980
14.3399 12.299
14.3551 12.541
14.3702 12.318
14.3854 12.832
14.4006 13.163
14.4158 12.978
14.4309 12.841
14.4461 12.912
14.4613 12.662
14.4765 12.422
14.4916 12.473
14.5068 12.185
14.5220 11.876
14.5372 11.502
14.5523 11.394
14.5675 10.953
14.5827 10.932
14.5979 11.002
14.6130 10.706
14.6282 10.810
14.6434 10.772
14.6586 10.872
14.6737 10.633
14.6889 10.787
14.7041 10.588
14.7193 10.731
14.7344 10.613
14.7496 10.619
14.7648 10.535
14.7800 10.514
14.7951 10.542
14.8103 10.451
14.8255 10.148
14.8407 10.515
14.8558 10.578
14.8710 10.832
14.8862 10.477
14.9014 10.373
14.9165 10.489
14.9317 10.640
14.9469 10.626
14.9621 10.497
14.9772 10.478
14.9924 10.416
15.0076 9.982
15.0228 10.220
15.0379 10.373
15.0531 10.150
15.0683 10.329
15.0835 10.098
15.0986 10.175
15.1138 10.045
15.1290 10.472
15.1442 10.271
15.1593 10.328
15.1745 10.400
15.1897 10.072
15.2049 10.184
15.2200 9.887
15.2352 10.080
15.2504 10.054
15.2656 9.744
15.2807 10.016
15.2959 10.101
15.3111 9.904
15.3263 10.181
15.3414 10.011
15.3566 10.137
15.3718 9.908
15.3870 9.888
15.4021 9.861
15.4173 10.247
15.4325 10.413
15.4477 9.838
15.4628 10.081
15.4780 10.122
15.4932 10.039
15.5084 9.996
15.5235 10.204
15.5387 9.963
15.5539 10.014
15.5691 10.086
15.5842 10.156
15.5994 9.863
15.6146 9.500
15.6298 9.521
15.6449 9.687
15.6601 9.752
15.6753 9.876
15.6905 9.798
15.7056 9.427
15.7208 9.749
15.7360 9.704
15.7512 9.558
15.7663 9.466
15.7815 9.737
15.7967 9.739
15.8119 9.702
15.8270 9.683
15.8422 10.055
15.8574 9.633
15.8726 9.703
15.8877 9.673
15.9029 9.510
15.9181 9.644
15.9333 9.589
15.9484 9.521
15.9636 9.559
15.9788 9.386
15.9940 9.545
16.0091 9.538
16.0243 9.658
16.0395 9.611
16.0547 9.544
16.0698 9.653
16.0850 9.523
16.1002 9.533
16.1154 9.391
16.1305 9.544
16.1457 9.532
16.1609 9.517
16.1761 9.469
16.1912 9.784
16.2064 9.465
16.2216 9.656
16.2368 9.457
16.2519 9.543
16.2671 9.626
16.2823 9.958
16.2975 9.906
16.3126 9.664
16.3278 9.561
16.3430 9.694
16.3582 9.729
16.3733 9.759
16.3885 9.932
16.4037 10.114
16.4189 10.068
16.4340 9.775
16.4492 9.675
16.4644 9.588
16.4796 9.727
16.4947 9.919
16.5099 9.772
16.5251 9.550
16.5403 9.668
16.5554 9.792
16.5706 9.819
16.5858 9.627
16.6010 9.646
16.6161 9.771
16.6313 9.689
16.6465 9.725
16.6617 9.694
16.6768 9.610
16.6920 9.642
16.7072 9.816
16.7224 10.103
16.7375 10.078
16.7527 9.880
16.7679 9.749
16.7831 9.833
16.7982 9.622
16.8134 9.809
16.8286 9.953
16.8438 9.764
16.8589 9.797
16.8741 9.835
16.8893 9.720
16.9045 9.581
16.9196 9.663
16.9348 9.725
16.9500 9.679
16.9652 9.745
16.9803 9.799
16.9955 9.713
17.0107 9.855
17.0259 9.910
17.0410 10.008
17.0562 10.252
17.0714 10.174
17.0866 10.085
17.1017 10.290
17.1169 10.487
17.1321 10.589
17.1473 11.125
17.1624 11.743
17.1776 12.240
17.1928 12.965
17.2080 13.914
17.2231 14.871
17.2383 16.324
17.2535 17.666
17.2687 18.440
17.2838 18.816
17.2990 18.022
17.3142 16.794
17.3294 16.203
17.3445 16.128
17.3597 16.018
17.3749 15.888
17.3901 15.248
17.4052 14.113
17.4204 13.150
17.4356 12.475
17.4508 11.960
17.4659 11.663
17.4811 11.553
17.4963 11.396
17.5115 11.402
17.5266 11.241
17.5418 10.975
17.5570 11.039
17.5722 11.150
17.5873 11.124
17.6025 11.199
17.6177 11.175
17.6329 11.083
17.6480 11.093
17.6632 11.386
17.6784 11.495
17.6936 11.383
17.7087 11.374
17.7239 11.253
17.7391 10.983
17.7543 11.079
17.7694 11.085
17.7846 10.880
17.7998 10.870
17.8150 10.759
17.8301 10.646
17.8453 10.601
17.8605 10.515
17.8757 10.194
17.8908 10.088
17.9060 10.144
17.9212 10.182
17.9364 10.100
17.9515 10.156
17.9667 9.935
17.9819 9.960
17.9971 10.141
18.0122 10.173
18.0274 10.297
18.0426 10.216
18.0578 10.111
18.0729 10.132
18.0881 10.132
18.1033 9.889
18.1185 9.811
18.1336 9.838
18.1488 9.857
18.1640 9.768
18.1792 9.808
18.1943 9.691
18.2095 9.856
18.2247 9.906
18.2399 9.898
18.2550 9.816
18.2702 9.954
18.2854 9.773
18.3006 9.673
18.3157 9.778
18.3309 9.941
18.3461 9.746
18.3613 9.835
18.3764 9.905
18.3916 9.906
18.4068 9.745
18.4220 9.726
18.4371 9.926
18.4523 9.811
18.4675 9.726
18.4827 9.748
18.4978 9.648
18.5130 9.793
18.5282 9.760
18.5434 9.677
18.5585 9.761
18.5737 9.700
18.5889 9.761
18.6041 9.883
18.6192 9.734
18.6344 9.684
18.6496 9.526
18.6648 9.744
18.6799 9.734
18.6951 9.651
18.7103 9.617
18.7255 9.706
18.7406 9.814
18.7558 9.715
18.7710 9.694
18.7862 9.826
18.8013 9.748
18.8165 9.759
18.8317 9.874
18.8469 9.971
18.8620 9.945
18.8772 9.976
18.8924 10.058
18.9076 9.795
18.9227 9.759
18.9379 9.847
18.9531 9.880
18.9683 10.004
18.9834 10.302
18.9986 10.322
19.0138 9.971
19.0290 10.010
19.0441 10.119
19.0593 10.224
19.0745 10.406
19.0897 10.245
19.1048 10.254
19.1200 10.345
19.1352 10.381
19.1504 10.271
19.1655 10.224
19.1807 10.418
19.1959 10.613
19.2111 10.593
19.2262 10.481
19.2414 10.561
19.2566 10.782
19.2718 10.604
19.2869 10.687
19.3021 10.926
19.3173 10.863
19.3325 10.900
19.3476 11.233
19.3628 11.120
19.3780 10.831
19.3932 11.043
19.4083 11.121
19.4235 11.251
19.4387 11.352
19.4539 11.217
19.4690 11.138
19.4842 11.201
19.4994 11.316
19.5146 11.346
19.5297 11.457
19.5449 11.638
19.5601 11.684
19.5753 11.540
19.5904 11.646
19.6056 11.802
19.6208 11.749
19.6360 11.593
19.6511 11.490
19.6663 11.460
19.6815 11.546
19.6967 11.704
19.7118 11.584
19.7270 11.575
19.7422 11.813
19.7574 11.677
19.7725 11.600
19.7877 11.644
19.8029 11.913
19.8180 12.070
19.8332 12.208
19.8484 12.546
19.8636 12.433
19.8787 12.398
19.8939 12.583
19.9091 12.989
19.9243 13.368
19.9394 13.574
19.9546 14.051
19.9698 14.200
19.9850 14.005
20.0001 14.060
20.0153 13.985
20.0305 13.953
20.0457 13.937
20.0608 13.978
20.0760 13.898
20.0912 13.713
20.1064 13.764
20.1215 13.739
20.1367 13.398
20.1519 13.126
20.1671 12.734
20.1822 12.677
20.1974 12.865
20.2126 12.616
20.2278 12.551
20.2429 12.670
20.2581 12.266
20.2733 12.098
20.2885 11.985
20.3036 12.021
20.3188 12.113
20.3340 12.031
20.3492 11.629
20.3643 11.754
20.3795 11.921
20.3947 11.861
20.4099 11.626
20.4250 11.429
20.4402 11.585
20.4554 11.793
20.4706 11.867
20.4857 11.800
20.5009 11.797
20.5161 11.474
20.5313 11.304
20.5464 11.450
20.5616 11.353
20.5768 11.164
20.5920 11.260
20.6071 11.273
20.6223 10.831
20.6375 10.881
20.6527 10.729
20.6678 10.467
20.6830 10.691
20.6982 10.612
20.7134 10.663
20.7285 10.361
20.7437 10.405
20.7589 10.606
20.7741 10.401
20.7892 10.290
20.8044 10.120
20.8196 10.064
20.8348 10.453
20.8499 10.392
20.8651 10.083
20.8803 10.202
20.8955 10.386
20.9106 9.873
20.9258 10.118
20.9410 10.151
20.9562 9.896
20.9713 10.192
20.9865 10.135
21.0017 10.183
21.0169 9.970
21.0320 10.037
21.0472 9.867
21.0624 9.983
21.0776 9.947
21.0927 10.166
21.1079 9.891
21.1231 9.786
21.1383 9.608
21.1534 9.934
21.1686 10.074
21.1838 10.201
21.1990 10.040
21.2141 9.891
21.2293 9.981
21.2445 9.452
21.2597 10.003
21.2748 9.833
21.2900 9.440
21.3052 9.577
21.3204 9.664
21.3355 9.478
21.3507 9.577
21.3659 9.266
21.3811 9.517
21.3962 9.486
21.4114 9.421
21.4266 9.365
21.4418 9.301
21.4569 9.460
21.4721 9.439
21.4873 9.262
21.5025 9.177
21.5176 9.154
21.5328 9.274
21.5480 9.367
21.5632 9.446
21.5783 9.144
21.5935 9.384
21.6087 9.276
21.6239 9.365
21.6390 9.296
21.6542 9.069
21.6694 9.276
21.6846 9.321
21.6997 9.112
21.7149 8.987
21.7301 9.015
21.7453 8.993
21.7604 8.855
21.7756 8.801
21.7908 8.956
21.8060 9.248
21.8211 9.130
21.8363 8.999
21.8515 8.972
21.8667 8.824
21.8818 9.021
21.8970 9.059
21.9122 8.941
21.9274 8.968
21.9425 9.108
21.9577 9.042
21.9729 8.862
21.9881 8.935
22.0032 8.798
22.0184 8.807
22.0336 8.883
22.0488 8.764
22.0639 8.717
22.0791 8.529
22.0943 8.633
22.1095 8.885
22.1246 8.628
22.1398 8.654
22.1550 8.739
22.1702 8.555
22.1853 8.740
22.2005 8.823
22.2157 8.653
22.2309 8.477
22.2460 8.637
22.2612 8.550
22.2764 8.693
22.2916 8.435
22.3067 8.201
22.3219 8.555
22.3371 8.619
22.3523 8.373
22.3674 8.586
22.3826 8.567
22.3978 8.427
22.4130 8.550
22.4281 8.497
22.4433 8.751
22.4585 8.584
22.4737 8.316
22.4888 8.352
22.5040 8.215
22.5192 8.179
22.5344 8.231
22.5495 8.453
22.5647 8.412
22.5799 8.517
22.5951 8.241
22.6102 8.425
22.6254 8.415
22.6406 8.410
22.6558 8.315
22.6709 8.339
22.6861 7.961
22.7013 7.913
22.7165 7.816
22.7316 6.541
