'Id: "" Comment: "" Operator: "Lab Manager" Anode: "Mo" Scantype: "Still (Eiger2R_500K (1D mode))" TimePerStep: "300" X: "11.8" Y: "9.4" Z: "11.284" 
7.2532 18.591
7.2684 19.249
7.2836 19.008
7.2987 18.900
7.3139 19.567
7.3291 19.245
7.3443 19.396
7.3594 19.720
7.3746 19.265
7.3898 19.419
7.4050 19.557
7.4201 19.975
7.4353 19.749
7.4505 19.473
7.4657 19.784
7.4808 19.904
7.4960 19.831
7.5112 19.763
7.5264 19.742
7.5415 20.049
7.5567 20.146
7.5719 20.010
7.5871 19.723
7.6022 19.971
7.6174 20.450
7.6326 20.256
7.6478 20.501
7.6629 20.247
7.6781 19.892
7.6933 20.146
7.7085 20.178
7.7236 20.126
7.7388 20.448
7.7540 20.675
7.7692 20.662
7.7843 20.901
7.7995 20.851
7.8147 20.741
7.8299 21.130
7.8450 20.998
7.8602 21.029
7.8754 21.148
7.8905 21.101
7.9057 21.066
7.9209 21.089
7.9361 21.079
7.9512 21.222
7.9664 21.316
7.9816 21.270
7.9968 21.131
8.0119 21.042
8.0271 21.021
8.0423 21.120
8.0575 21.337
8.0726 21.485
8.0878 21.525
8.1030 21.251
8.1182 21.132
8.1333 21.573
8.1485 21.514
8.1637 21.728
8.1789 21.935
8.1940 21.783
8.2092 21.597
8.2244 21.318
8.2396 21.749
8.2547 21.800
8.2699 21.714
8.2851 21.764
8.3003 21.758
8.3154 22.208
8.3306 21.911
8.3458 22.057
8.3610 21.922
8.3761 21.845
8.3913 21.538
8.4065 22.201
8.4217 21.739
8.4368 22.417
8.4520 22.063
8.4672 22.278
8.4824 22.024
8.4975 22.378
8.5127 22.139
8.5279 22.582
8.5431 22.346
8.5582 22.417
8.5734 22.221
8.5886 22.479
8.6038 22.765
8.6189 22.419
8.6341 22.422
8.6493 22.638
8.6645 22.196
8.6796 22.682
8.6948 22.992
8.7100 22.608
8.7252 22.429
8.7403 22.976
8.7555 22.801
8.7707 22.666
8.7859 22.817
8.8010 22.740
8.8162 22.866
8.8314 22.681
8.8466 22.609
8.8617 22.304
8.8769 22.809
8.8921 22.194
8.9073 22.909
8.9224 23.028
8.9376 22.488
8.9528 22.705
8.9680 22.790
8.9831 23.302
8.9983 22.620
9.0135 22.693
9.0287 22.811
9.0438 22.585
9.0590 23.033
9.0742 22.910
9.0894 22.830
9.1045 23.269
9.1197 22.650
9.1349 22.731
9.1501 23.069
9.1652 23.106
9.1804 23.190
9.1956 23.086
9.2108 23.117
9.2259 23.079
9.2411 22.820
9.2563 23.064
9.2715 23.080
9.2866 23.016
9.3018 23.050
9.3170 23.197
9.3322 23.027
9.3473 23.263
9.3625 23.322
9.3777 23.362
9.3929 23.262
9.4080 23.055
9.4232 23.033
9.4384 23.150
9.4536 23.078
9.4687 23.217
9.4839 23.186
9.4991 22.822
9.5143 22.956
9.5294 23.389
9.5446 23.567
9.5598 23.387
9.5750 23.380
9.5901 23.342
9.6053 23.443
9.6205 23.472
9.6357 23.401
9.6508 23.698
9.6660 24.003
9.6812 24.081
9.6964 24.047
9.7115 24.038
9.7267 24.316
9.7419 24.497
9.7571 23.864
9.7722 23.840
9.7874 24.311
9.8026 23.866
9.8178 23.328
9.8329 23.453
9.8481 23.612
9.8633 23.801
9.8785 23.835
9.8936 23.580
9.9088 23.576
9.9240 23.748
9.9392 23.597
9.9543 23.210
9.9695 23.502
9.9847 23.901
9.9999 23.866
10.0150 23.980
10.0302 23.803
10.0454 23.512
10.0606 23.478
10.0757 23.703
10.0909 23.612
10.1061 23.698
10.1213 23.907
10.1364 24.025
10.1516 24.169
10.1668 24.264
10.1820 24.067
10.1971 24.345
10.2123 24.892
10.2275 24.744
10.2427 24.370
10.2578 24.155
10.2730 24.038
10.2882 23.891
10.3034 23.890
10.3185 23.746
10.3337 23.594
10.3489 23.581
10.3641 23.381
10.3792 23.153
10.3944 23.019
10.4096 22.730
10.4248 22.838
10.4399 22.894
10.4551 22.773
10.4703 22.791
10.4855 22.826
10.5006 22.687
10.5158 23.065
10.5310 22.813
10.5462 22.617
10.5613 22.629
10.5765 22.310
10.5917 22.724
10.6069 22.768
10.6220 22.735
10.6372 22.670
10.6524 22.606
10.6676 22.590
10.6827 22.455
10.6979 22.484
10.7131 22.637
10.7283 22.565
10.7434 22.715
10.7586 22.884
10.7738 22.220
10.7890 22.743
10.8041 22.623
10.8193 22.598
10.8345 22.193
10.8497 22.266
10.8648 22.368
10.8800 22.128
10.8952 22.151
10.9104 22.318
10.9255 22.154
10.9407 22.235
10.9559 22.260
10.9711 21.993
10.9862 22.032
11.0014 21.848
11.0166 22.323
11.0318 22.325
11.0469 22.071
11.0621 21.838
11.0773 21.784
11.0925 22.164
11.1076 21.682
11.1228 21.934
11.1380 22.008
11.1532 22.079
11.1683 21.843
11.1835 21.611
11.1987 22.132
11.2139 22.000
11.2290 21.634
11.2442 21.559
11.2594 21.998
11.2746 22.261
11.2897 21.989
11.3049 21.381
11.3201 21.464
11.3353 21.493
11.3504 21.421
11.3656 21.492
11.3808 21.609
11.3960 21.560
11.4111 21.307
11.4263 21.579
11.4415 21.430
11.4567 21.085
11.4718 21.390
11.4870 21.830
11.5022 21.470
11.5174 20.913
11.5325 21.157
11.5477 21.341
11.5629 20.998
11.5781 20.823
11.5932 20.944
11.6084 20.999
11.6236 20.939
11.6388 20.500
11.6539 20.658
11.6691 20.906
11.6843 21.212
11.6995 20.660
11.7146 20.402
11.7298 20.596
11.7450 20.223
11.7602 20.198
11.7753 20.222
11.7905 20.300
11.8057 20.361
11.8209 19.779
11.8360 19.851
11.8512 20.013
11.8664 19.988
11.8816 20.058
11.8967 19.943
11.9119 19.603
11.9271 19.667
11.9423 19.732
11.9574 19.425
11.9726 19.447
11.9878 19.614
12.0030 19.227
12.0181 18.954
12.0333 18.835
12.0485 19.257
12.0637 19.311
12.0788 19.104
12.0940 19.041
12.1092 18.856
12.1244 18.385
12.1395 18.410
12.1547 18.574
12.1699 18.388
12.1851 18.190
12.2002 18.167
12.2154 17.958
12.2306 18.019
12.2458 17.742
12.2609 17.817
12.2761 17.829
12.2913 17.735
12.3065 17.580
12.3216 17.746
12.3368 17.689
12.3520 17.580
12.3672 17.460
12.3823 17.413
12.3975 17.429
12.4127 17.408
12.4279 17.466
12.4430 17.475
12.4582 17.138
12.4734 17.089
12.4886 17.122
12.5037 16.952
12.5189 16.607
12.5341 16.363
12.5493 16.636
12.5644 16.708
12.5796 16.194
12.5948 16.131
12.6100 16.165
12.6251 16.148
12.6403 15.967
12.6555 15.857
12.6707 15.800
12.6858 15.880
12.7010 15.935
12.7162 15.696
12.7314 15.514
12.7465 15.312
12.7617 15.100
12.7769 15.476
12.7921 15.753
12.8072 15.295
12.8224 15.117
12.8376 15.269
12.8528 15.005
12.8679 14.677
12.8831 14.704
12.8983 14.991
12.9135 14.865
12.9286 14.791
12.9438 14.681
12.9590 14.441
12.9742 14.379
12.9893 14.385
13.0045 14.307
13.0197 14.190
13.0349 14.152
13.0500 13.992
13.0652 14.055
13.0804 14.094
13.0956 13.977
13.1107 13.647
13.1259 13.591
13.1411 13.635
13.1563 13.355
13.1714 13.500
13.1866 13.744
13.2018 13.665
13.2170 13.393
13.2321 13.216
13.2473 13.153
13.2625 13.191
13.2777 13.197
13.2928 13.009
13.3080 13.196
13.3232 13.296
13.3384 13.016
13.3535 12.915
13.3687 12.736
13.3839 12.794
13.3991 12.936
13.4142 12.839
13.4294 12.877
13.4446 12.935
13.4598 12.702
13.4749 12.669
13.4901 12.760
13.5053 12.634
13.5205 12.340
13.5356 12.354
13.5508 12.368
13.5660 12.339
13.5812 12.433
13.5963 12.117
13.6115 11.856
13.6267 11.952
13.6419 12.005
13.6570 12.279
13.6722 12.232
13.6874 12.396
13.7026 12.230
13.7177 12.180
13.7329 12.064
13.7481 11.889
13.7633 12.016
13.7784 11.807
13.7936 11.876
13.8088 12.100
13.8239 12.130
13.8391 12.248
13.8543 12.093
13.8695 12.073
13.8846 11.953
13.8998 12.176
13.9150 12.099
13.9302 11.958
13.9453 11.986
13.9605 11.858
13.9757 11.619
13.9909 11.468
14.0060 11.101
14.0212 11.232
14.0364 11.426
14.0516 11.410
14.0667 11.635
14.0819 11.340
14.0971 11.490
14.1123 11.664
14.1274 11.421
14.1426 11.533
14.1578 11.402
14.1730 11.357
14.1881 11.588
14.2033 11.686
14.2185 12.035
14.2337 11.741
14.2488 11.647
14.2640 11.879
14.2792 11.828
14.2944 12.016
14.3095 12.277
14.3247 12.322
14.3399 12.326
14.3551 12.820
14.3702 13.205
14.3854 13.208
14.4006 13.502
14.4158 13.318
14.4309 13.219
14.4461 13.225
14.4613 13.268
14.4765 13.045
14.4916 13.057
14.5068 12.719
14.5220 12.707
14.5372 12.766
14.5523 12.550
14.5675 12.646
14.5827 12.634
14.5979 12.176
14.6130 11.938
14.6282 12.246
14.6434 12.024
14.6586 11.614
14.6737 11.447
14.6889 11.285
14.7041 11.191
14.7193 11.177
14.7344 11.081
14.7496 11.148
14.7648 11.033
14.7800 10.866
14.7951 10.885
14.8103 10.785
14.8255 10.432
14.8407 10.585
14.8558 10.813
14.8710 10.792
14.8862 10.796
14.9014 10.782
14.9165 10.963
14.9317 10.886
14.9469 10.480
14.9621 10.584
14.9772 10.413
14.9924 10.622
15.0076 10.564
15.0228 10.749
15.0379 10.897
15.0531 10.653
15.0683 10.652
15.0835 10.492
15.0986 10.510
15.1138 10.709
15.1290 10.811
15.1442 11.107
15.1593 10.662
15.1745 10.918
15.1897 10.405
15.2049 10.556
15.2200 10.365
15.2352 10.705
15.2504 10.518
15.2656 10.393
15.2807 10.497
15.2959 10.117
15.3111 10.376
15.3263 10.559
15.3414 10.286
15.3566 10.450
15.3718 10.488
15.3870 10.379
15.4021 10.477
15.4173 10.277
15.4325 10.493
15.4477 10.743
15.4628 10.603
15.4780 10.518
15.4932 10.292
15.5084 10.485
15.5235 10.340
15.5387 10.675
15.5539 10.304
15.5691 10.069
15.5842 10.021
15.5994 10.132
15.6146 10.501
15.6298 10.143
15.6449 10.035
15.6601 10.215
15.6753 9.797
15.6905 9.731
15.7056 9.909
15.7208 10.024
15.7360 9.999
15.7512 10.037
15.7663 9.902
15.7815 9.692
15.7967 10.071
15.8119 9.964
15.8270 9.943
15.8422 9.550
15.8574 9.845
15.8726 9.841
15.8877 9.778
15.9029 9.949
15.9181 9.787
15.9333 9.773
15.9484 9.817
15.9636 10.045
15.9788 9.922
15.9940 9.549
16.0091 9.320
16.0243 9.763
16.0395 9.878
16.0547 9.913
16.0698 9.357
16.0850 9.608
16.1002 9.780
16.1154 9.694
16.1305 9.979
16.1457 9.889
16.1609 9.536
16.1761 9.728
16.1912 9.609
16.2064 9.701
16.2216 9.700
16.2368 10.027
16.2519 10.002
16.2671 9.708
16.2823 9.762
16.2975 10.035
16.3126 10.401
16.3278 10.195
16.3430 9.844
16.3582 10.231
16.3733 10.409
16.3885 10.269
16.4037 10.212
16.4189 10.073
16.4340 10.061
16.4492 10.140
16.4644 10.128
16.4796 10.038
16.4947 9.699
16.5099 9.932
16.5251 9.984
16.5403 9.699
16.5554 9.799
16.5706 9.889
16.5858 9.907
16.6010 9.836
16.6161 9.660
16.6313 9.616
16.6465 9.647
16.6617 9.461
16.6768 9.656
16.6920 10.139
16.7072 10.168
16.7224 10.026
16.7375 10.223
16.7527 10.083
16.7679 9.955
16.7831 9.998
16.7982 9.870
16.8134 9.692
16.8286 9.747
16.8438 9.819
16.8589 9.920
16.8741 10.022
16.8893 9.868
16.9045 9.728
16.9196 9.770
16.9348 9.877
16.9500 9.938
16.9652 9.864
16.9803 9.958
16.9955 9.829
17.0107 9.751
17.0259 9.844
17.0410 9.882
17.0562 9.979
17.0714 10.230
17.0866 10.433
17.1017 10.558
17.1169 10.566
17.1321 10.901
17.1473 11.559
17.1624 12.054
17.1776 12.486
17.1928 13.062
17.2080 14.004
17.2231 14.891
17.2383 16.070
17.2535 17.534
17.2687 18.288
17.2838 18.340
17.2990 17.775
17.3142 16.826
17.3294 16.307
17.3445 16.096
17.3597 15.929
17.3749 15.743
17.3901 15.202
17.4052 14.265
17.4204 13.264
17.4356 12.569
17.4508 12.052
17.4659 11.791
17.4811 11.524
17.4963 11.263
17.5115 11.318
17.5266 11.152
17.5418 11.153
17.5570 11.468
17.5722 11.510
17.5873 11.525
17.6025 11.611
17.6177 11.450
17.6329 11.176
17.6480 11.000
17.6632 10.980
17.6784 11.189
17.6936 11.251
17.7087 11.150
17.7239 11.120
17.7391 11.145
17.7543 10.905
17.7694 10.733
17.7846 10.943
17.7998 10.969
17.8150 11.003
17.8301 11.332
17.8453 11.358
17.8605 11.252
17.8757 11.342
17.8908 11.471
17.9060 11.415
17.9212 11.351
17.9364 11.175
17.9515 10.960
17.9667 10.871
17.9819 10.893
17.9971 10.603
18.0122 10.502
18.0274 10.587
18.0426 10.332
18.0578 10.336
18.0729 10.561
18.0881 10.340
18.1033 10.063
18.1185 9.971
18.1336 10.068
18.1488 10.028
18.1640 9.925
18.1792 9.981
18.1943 9.901
18.2095 9.882
18.2247 9.770
18.2399 9.578
18.2550 9.965
18.2702 10.173
18.2854 9.895
18.3006 9.743
18.3157 9.639
18.3309 9.756
18.3461 10.048
18.3613 10.006
18.3764 9.856
18.3916 9.853
18.4068 9.681
18.4220 9.811
18.4371 9.935
18.4523 9.980
18.4675 9.736
18.4827 9.671
18.4978 9.800
18.5130 9.705
18.5282 9.603
18.5434 9.863
18.5585 10.046
18.5737 9.939
18.5889 9.796
18.6041 9.876
18.6192 10.068
18.6344 9.911
18.6496 9.656
18.6648 9.644
18.6799 9.704
18.6951 9.730
18.7103 9.855
18.7255 9.983
18.7406 10.056
18.7558 9.920
18.7710 9.934
18.7862 9.921
18.8013 9.729
18.8165 9.669
18.8317 9.816
18.8469 9.661
18.8620 9.694
18.8772 9.977
18.8924 10.133
18.9076 9.980
18.9227 9.977
18.9379 10.046
18.9531 10.083
18.9683 10.072
18.9834 10.084
18.9986 9.975
19.0138 10.133
19.0290 10.150
19.0441 10.113
19.0593 10.208
19.0745 10.196
19.0897 10.384
19.1048 10.419
19.1200 10.406
19.1352 10.255
19.1504 10.310
19.1655 10.555
19.1807 10.583
19.1959 10.379
19.2111 10.341
19.2262 10.555
19.2414 10.849
19.2566 10.799
19.2718 10.919
19.2869 11.090
19.3021 11.003
19.3173 10.685
19.3325 10.781
19.3476 11.199
19.3628 11.249
19.3780 11.122
19.3932 11.033
19.4083 11.219
19.4235 11.115
19.4387 11.192
19.4539 11.333
19.4690 11.302
19.4842 11.300
19.4994 11.517
19.5146 11.607
19.5297 11.461
19.5449 11.463
19.5601 11.476
19.5753 11.427
19.5904 11.420
19.6056 11.406
19.6208 11.534
19.6360 11.586
19.6511 11.609
19.6663 11.661
19.6815 11.785
19.6967 11.745
19.7118 11.718
19.7270 11.742
19.7422 11.652
19.7574 11.611
19.7725 11.655
19.7877 11.767
19.8029 11.894
19.8180 11.884
19.8332 11.980
19.8484 12.045
19.8636 12.362
19.8787 12.859
19.8939 12.863
19.9091 12.885
19.9243 13.186
19.9394 13.592
19.9546 14.147
19.9698 14.376
19.9850 14.274
20.0001 14.307
20.0153 13.990
20.0305 13.597
20.0457 13.665
20.0608 13.729
20.0760 13.704
20.0912 13.891
20.1064 13.764
20.1215 13.455
20.1367 13.297
20.1519 13.156
20.1671 13.121
20.1822 13.122
20.1974 12.944
20.2126 13.055
20.2278 12.967
20.2429 12.593
20.2581 12.510
20.2733 12.197
20.2885 11.842
20.3036 11.905
20.3188 11.749
20.3340 11.761
20.3492 11.792
20.3643 11.644
20.3795 11.519
20.3947 11.482
20.4099 11.357
20.4250 11.242
20.4402 11.244
20.4554 11.235
20.4706 10.994
20.4857 10.916
20.5009 11.103
20.5161 10.901
20.5313 10.902
20.5464 11.203
20.5616 11.080
20.5768 11.182
20.5920 11.377
20.6071 10.908
20.6223 10.981
20.6375 10.766
20.6527 10.905
20.6678 11.009
20.6830 10.875
20.6982 10.757
20.7134 10.460
20.7285 10.860
20.7437 10.743
20.7589 10.566
20.7741 10.662
20.7892 10.757
20.8044 10.817
20.8196 10.626
20.8348 10.619
20.8499 10.459
20.8651 10.494
20.8803 10.708
20.8955 10.411
20.9106 10.392
20.9258 10.246
20.9410 10.367
20.9562 10.212
20.9713 10.113
20.9865 10.118
21.0017 10.043
21.0169 10.236
21.0320 10.261
21.0472 10.181
21.0624 10.172
21.0776 9.978
21.0927 9.761
21.1079 9.768
21.1231 9.868
21.1383 9.659
21.1534 9.807
21.1686 9.779
21.1838 9.600
21.1990 9.618
21.2141 9.971
21.2293 9.459
21.2445 9.524
21.2597 9.486
21.2748 9.589
21.2900 9.203
21.3052 9.628
21.3204 9.393
21.3355 9.589
21.3507 9.577
21.3659 9.392
21.3811 9.492
21.3962 9.544
21.4114 9.397
21.4266 9.526
21.4418 9.087
21.4569 9.193
21.4721 9.291
21.4873 9.537
21.5025 9.075
21.5176 9.114
21.5328 9.158
21.5480 9.133
21.5632 9.292
21.5783 9.252
21.5935 9.168
21.6087 9.319
21.6239 8.981
21.6390 9.114
21.6542 8.914
21.6694 9.160
21.6846 9.273
21.6997 9.179
21.7149 9.103
21.7301 9.213
21.7453 9.199
21.7604 9.118
21.7756 9.070
21.7908 9.206
21.8060 8.984
21.8211 8.916
21.8363 8.981
21.8515 8.894
21.8667 8.959
21.8818 9.022
21.8970 9.155
21.9122 9.220
21.9274 8.943
21.9425 8.893
21.9577 8.816
21.9729 8.809
21.9881 8.971
22.0032 8.935
22.0184 8.792
22.0336 8.888
22.0488 8.813
22.0639 8.712
22.0791 8.713
22.0943 8.573
22.1095 8.690
22.1246 8.855
22.1398 8.731
22.1550 8.540
22.1702 8.764
22.1853 8.843
22.2005 8.789
22.2157 8.494
22.2309 8.494
22.2460 8.492
22.2612 8.596
22.2764 8.655
22.2916 8.566
22.3067 8.584
22.3219 8.541
22.3371 8.455
22.3523 8.706
22.3674 8.577
22.3826 8.431
22.3978 8.575
22.4130 8.476
22.4281 8.297
22.4433 8.336
22.4585 8.196
22.4737 8.285
22.4888 8.384
22.5040 8.683
22.5192 8.452
22.5344 8.240
22.5495 8.360
22.5647 8.383
22.5799 8.736
22.5951 8.295
22.6102 8.636
22.6254 8.356
22.6406 8.491
22.6558 8.467
22.6709 8.539
22.6861 8.449
22.7013 8.314
22.7165 8.114
22.7316 6.519
