'Id: "" Comment: "" Operator: "Lab Manager" Anode: "Mo" Scantype: "Still (Eiger2R_500K (1D mode))" TimePerStep: "300" X: "11.8" Y: "9.4" Z: "11.284" 
7.2532 18.673
7.2684 18.908
7.2836 18.768
7.2987 18.991
7.3139 19.179
7.3291 19.723
7.3443 19.307
7.3594 19.214
7.3746 19.764
7.3898 19.188
7.4050 19.250
7.4201 19.246
7.4353 19.130
7.4505 19.374
7.4657 19.151
7.4808 19.453
7.4960 19.607
7.5112 19.613
7.5264 19.549
7.5415 19.845
7.5567 19.733
7.5719 19.947
7.5871 19.872
7.6022 19.983
7.6174 20.200
7.6326 19.882
7.6478 20.038
7.6629 20.157
7.6781 20.216
7.6933 20.325
7.7085 20.481
7.7236 20.402
7.7388 20.529
7.7540 20.904
7.7692 20.909
7.7843 20.877
7.7995 20.840
7.8147 20.393
7.8299 20.281
7.8450 20.570
7.8602 20.813
7.8754 21.207
7.8905 21.283
7.9057 21.059
7.9209 21.205
7.9361 21.184
7.9512 21.228
7.9664 21.423
7.9816 21.460
7.9968 21.235
8.0119 21.537
8.0271 21.605
8.0423 21.290
8.0575 21.221
8.0726 21.298
8.0878 21.175
8.1030 21.155
8.1182 21.254
8.1333 21.068
8.1485 21.474
8.1637 21.642
8.1789 21.461
8.1940 21.408
8.2092 21.794
8.2244 21.515
8.2396 21.543
8.2547 21.843
8.2699 21.771
8.2851 21.981
8.3003 21.578
8.3154 21.866
8.3306 21.724
8.3458 22.004
8.3610 21.769
8.3761 21.857
8.3913 21.615
8.4065 22.047
8.4217 21.950
8.4368 22.353
8.4520 22.176
8.4672 21.825
8.4824 22.235
8.4975 22.094
8.5127 22.261
8.5279 22.285
8.5431 21.741
8.5582 22.301
8.5734 22.432
8.5886 22.484
8.6038 22.017
8.6189 22.358
8.6341 22.901
8.6493 21.941
8.6645 22.662
8.6796 22.461
8.6948 23.009
8.7100 22.437
8.7252 22.968
8.7403 22.996
8.7555 22.869
8.7707 22.857
8.7859 22.753
8.8010 22.790
8.8162 22.772
8.8314 22.700
8.8466 22.540
8.8617 23.030
8.8769 22.917
8.8921 22.613
8.9073 22.681
8.9224 22.848
8.9376 22.933
8.9528 23.117
8.9680 22.735
8.9831 23.100
8.9983 22.806
9.0135 22.961
9.0287 22.971
9.0438 22.547
9.0590 22.433
9.0742 22.561
9.0894 23.153
9.1045 23.202
9.1197 22.971
9.1349 23.016
9.1501 22.954
9.1652 22.859
9.1804 22.997
9.1956 22.878
9.2108 22.825
9.2259 22.792
9.2411 22.870
9.2563 22.584
9.2715 22.835
9.2866 23.129
9.3018 23.028
9.3170 23.109
9.3322 23.157
9.3473 23.172
9.3625 23.387
9.3777 23.205
9.3929 23.427
9.4080 23.024
9.4232 23.115
9.4384 23.313
9.4536 23.290
9.4687 23.265
9.4839 23.513
9.4991 23.557
9.5143 23.220
9.5294 22.968
9.5446 23.436
9.5598 23.305
9.5750 23.483
9.5901 23.502
9.6053 23.153
9.6205 23.378
9.6357 23.373
9.6508 23.526
9.6660 23.654
9.6812 23.761
9.6964 23.776
9.7115 23.891
9.7267 24.284
9.7419 24.555
9.7571 24.597
9.7722 24.474
9.7874 24.127
9.8026 23.899
9.8178 23.763
9.8329 23.716
9.8481 23.716
9.8633 23.872
9.8785 23.908
9.8936 23.653
9.9088 23.393
9.9240 23.287
9.9392 23.446
9.9543 23.442
9.9695 23.540
9.9847 23.548
9.9999 23.461
10.0150 23.499
10.0302 23.825
10.0454 23.779
10.0606 23.428
10.0757 23.602
10.0909 24.063
10.1061 24.005
10.1213 23.670
10.1364 23.602
10.1516 23.596
10.1668 23.585
10.1820 23.854
10.1971 23.757
10.2123 23.869
10.2275 24.067
10.2427 24.326
10.2578 24.191
10.2730 23.851
10.2882 23.410
10.3034 23.588
10.3185 23.410
10.3337 23.162
10.3489 23.285
10.3641 23.208
10.3792 22.951
10.3944 23.048
10.4096 22.790
10.4248 22.814
10.4399 22.947
10.4551 22.728
10.4703 22.613
10.4855 22.690
10.5006 22.753
10.5158 22.620
10.5310 22.581
10.5462 22.455
10.5613 22.653
10.5765 22.599
10.5917 22.453
10.6069 23.009
10.6220 22.528
10.6372 22.160
10.6524 22.221
10.6676 22.644
10.6827 22.926
10.6979 22.769
10.7131 22.520
10.7283 22.317
10.7434 22.368
10.7586 22.325
10.7738 22.462
10.7890 22.622
10.8041 22.245
10.8193 22.250
10.8345 22.545
10.8497 22.276
10.8648 22.360
10.8800 22.317
10.8952 22.484
10.9104 22.313
10.9255 22.281
10.9407 22.010
10.9559 22.034
10.9711 22.076
10.9862 22.258
11.0014 22.394
11.0166 22.322
11.0318 22.205
11.0469 22.158
11.0621 21.715
11.0773 21.815
11.0925 21.991
11.1076 22.146
11.1228 21.878
11.1380 21.550
11.1532 21.830
11.1683 22.298
11.1835 22.042
11.1987 21.890
11.2139 21.565
11.2290 21.694
11.2442 22.036
11.2594 21.826
11.2746 21.527
11.2897 21.745
11.3049 21.900
11.3201 21.933
11.3353 21.770
11.3504 21.355
11.3656 21.295
11.3808 21.337
11.3960 21.075
11.4111 21.591
11.4263 21.520
11.4415 21.463
11.4567 21.278
11.4718 21.189
11.4870 21.290
11.5022 21.023
11.5174 21.052
11.5325 21.599
11.5477 21.148
11.5629 21.055
11.5781 20.679
11.5932 20.999
11.6084 21.179
11.6236 21.010
11.6388 20.758
11.6539 21.050
11.6691 21.027
11.6843 21.025
11.6995 20.882
11.7146 20.516
11.7298 20.205
11.7450 20.357
11.7602 20.315
11.7753 20.517
11.7905 20.348
11.8057 20.249
11.8209 19.918
11.8360 19.702
11.8512 19.580
11.8664 19.568
11.8816 19.624
11.8967 19.585
11.9119 19.400
11.9271 19.436
11.9423 19.583
11.9574 19.415
11.9726 19.244
11.9878 19.183
12.0030 19.156
12.0181 18.985
12.0333 18.846
12.0485 18.818
12.0637 18.841
12.0788 18.636
12.0940 18.664
12.1092 18.730
12.1244 18.550
12.1395 18.582
12.1547 18.534
12.1699 18.396
12.1851 18.515
12.2002 18.548
12.2154 18.302
12.2306 18.066
12.2458 17.961
12.2609 17.896
12.2761 17.767
12.2913 17.866
12.3065 17.559
12.3216 17.361
12.3368 17.235
12.3520 17.654
12.3672 17.432
12.3823 17.268
12.3975 17.545
12.4127 17.724
12.4279 17.430
12.4430 16.942
12.4582 16.935
12.4734 17.183
12.4886 17.178
12.5037 16.953
12.5189 16.909
12.5341 16.828
12.5493 16.579
12.5644 16.430
12.5796 16.615
12.5948 16.299
12.6100 16.237
12.6251 16.180
12.6403 15.815
12.6555 15.909
12.6707 16.049
12.6858 16.008
12.7010 16.040
12.7162 15.934
12.7314 15.540
12.7465 15.399
12.7617 15.403
12.7769 15.303
12.7921 15.407
12.8072 15.393
12.8224 15.143
12.8376 15.130
12.8528 15.262
12.8679 15.063
12.8831 15.165
12.8983 15.139
12.9135 14.880
12.9286 14.556
12.9438 14.362
12.9590 14.604
12.9742 14.597
12.9893 14.581
13.0045 14.391
13.0197 14.155
13.0349 14.154
13.0500 14.048
13.0652 13.970
13.0804 13.983
13.0956 13.962
13.1107 13.833
13.1259 13.648
13.1411 13.517
13.1563 13.530
13.1714 13.662
13.1866 13.530
13.2018 13.325
13.2170 13.387
13.2321 13.515
13.2473 13.655
13.2625 13.570
13.2777 13.441
13.2928 13.339
13.3080 13.040
13.3232 12.965
13.3384 13.082
13.3535 13.193
13.3687 13.244
13.3839 12.814
13.3991 12.733
13.4142 12.803
13.4294 12.577
13.4446 12.795
13.4598 13.008
13.4749 12.910
13.4901 12.546
13.5053 12.580
13.5205 12.479
13.5356 12.265
13.5508 12.248
13.5660 12.240
13.5812 12.152
13.5963 12.231
13.6115 12.352
13.6267 12.440
13.6419 12.384
13.6570 12.340
13.6722 12.406
13.6874 12.335
13.7026 12.323
13.7177 12.112
13.7329 11.984
13.7481 12.163
13.7633 12.152
13.7784 12.007
13.7936 12.076
13.8088 11.910
13.8239 11.945
13.8391 12.304
13.8543 12.273
13.8695 12.304
13.8846 12.334
13.8998 11.976
13.9150 11.979
13.9302 11.979
13.9453 11.930
13.9605 11.779
13.9757 11.699
13.9909 11.566
14.0060 11.772
14.0212 11.647
14.0364 11.557
14.0516 11.227
14.0667 11.622
14.0819 11.779
14.0971 11.505
14.1123 11.398
14.1274 11.289
14.1426 11.593
14.1578 11.635
14.1730 11.495
14.1881 11.926
14.2033 11.817
14.2185 12.057
14.2337 12.220
14.2488 12.036
14.2640 11.993
14.2792 12.084
14.2944 12.174
14.3095 12.323
14.3247 12.453
14.3399 12.704
14.3551 12.971
14.3702 13.173
14.3854 13.002
14.4006 13.044
14.4158 13.201
14.4309 13.237
14.4461 12.650
14.4613 12.703
14.4765 12.805
14.4916 12.329
14.5068 12.232
14.5220 11.786
14.5372 11.862
14.5523 11.464
14.5675 11.261
14.5827 11.196
14.5979 11.680
14.6130 11.473
14.6282 11.245
14.6434 11.180
14.6586 11.108
14.6737 11.056
14.6889 11.106
14.7041 10.753
14.7193 10.721
14.7344 10.888
14.7496 10.770
14.7648 10.940
14.7800 10.824
14.7951 10.757
14.8103 10.760
14.8255 10.502
14.8407 10.780
14.8558 10.529
14.8710 10.751
14.8862 10.781
14.9014 10.537
14.9165 10.691
14.9317 10.660
14.9469 10.994
14.9621 10.630
14.9772 10.446
14.9924 10.722
15.0076 10.674
15.0228 10.597
15.0379 10.362
15.0531 10.628
15.0683 10.552
15.0835 10.567
15.0986 10.639
15.1138 10.656
15.1290 10.559
15.1442 10.426
15.1593 10.683
15.1745 10.748
15.1897 10.163
15.2049 10.147
15.2200 10.672
15.2352 10.855
15.2504 10.742
15.2656 10.337
15.2807 10.486
15.2959 10.476
15.3111 10.298
15.3263 10.417
15.3414 10.474
15.3566 10.314
15.3718 10.368
15.3870 10.235
15.4021 10.615
15.4173 10.358
15.4325 10.432
15.4477 10.771
15.4628 10.589
15.4780 10.526
15.4932 10.356
15.5084 10.076
15.5235 10.078
15.5387 10.267
15.5539 10.408
15.5691 10.372
15.5842 10.275
15.5994 10.462
15.6146 10.390
15.6298 9.718
15.6449 10.076
15.6601 9.915
15.6753 9.970
15.6905 9.783
15.7056 9.927
15.7208 9.998
15.7360 9.726
15.7512 9.756
15.7663 9.972
15.7815 9.960
15.7967 9.990
15.8119 9.994
15.8270 9.964
15.8422 10.034
15.8574 9.873
15.8726 9.589
15.8877 10.075
15.9029 9.928
15.9181 9.969
15.9333 10.088
15.9484 9.755
15.9636 9.525
15.9788 9.791
15.9940 9.860
16.0091 9.785
16.0243 9.818
16.0395 9.561
16.0547 9.728
16.0698 9.787
16.0850 9.540
16.1002 9.644
16.1154 9.532
16.1305 9.586
16.1457 9.615
16.1609 9.811
16.1761 9.666
16.1912 9.593
16.2064 9.641
16.2216 9.555
16.2368 9.614
16.2519 9.801
16.2671 10.082
16.2823 9.856
16.2975 9.972
16.3126 9.959
16.3278 9.846
16.3430 9.792
16.3582 10.001
16.3733 9.874
16.3885 9.721
16.4037 10.160
16.4189 10.262
16.4340 9.962
16.4492 9.807
16.4644 9.878
16.4796 9.938
16.4947 9.832
16.5099 9.650
16.5251 9.734
16.5403 9.946
16.5554 10.008
16.5706 9.680
16.5858 9.665
16.6010 9.832
16.6161 9.623
16.6313 9.671
16.6465 9.640
16.6617 9.693
16.6768 9.669
16.6920 9.974
16.7072 9.781
16.7224 9.732
16.7375 10.145
16.7527 10.091
16.7679 9.891
16.7831 9.758
16.7982 10.139
16.8134 10.075
16.8286 10.113
16.8438 10.075
16.8589 9.767
16.8741 9.851
16.8893 9.932
16.9045 9.914
16.9196 9.831
16.9348 9.693
16.9500 9.775
16.9652 9.635
16.9803 9.710
16.9955 9.921
17.0107 9.908
17.0259 10.085
17.0410 10.282
17.0562 10.269
17.0714 10.234
17.0866 10.364
17.1017 10.365
17.1169 10.489
17.1321 10.956
17.1473 11.503
17.1624 11.964
17.1776 12.427
17.1928 12.994
17.2080 14.098
17.2231 15.321
17.2383 16.365
17.2535 17.365
17.2687 18.357
17.2838 18.562
17.2990 17.741
17.3142 16.930
17.3294 16.397
17.3445 16.289
17.3597 16.341
17.3749 16.112
17.3901 15.271
17.4052 14.243
17.4204 13.279
17.4356 12.490
17.4508 12.131
17.4659 12.011
17.4811 11.836
17.4963 11.576
17.5115 11.338
17.5266 11.171
17.5418 11.227
17.5570 11.239
17.5722 11.432
17.5873 11.487
17.6025 11.453
17.6177 11.412
17.6329 11.237
17.6480 11.061
17.6632 10.951
17.6784 11.085
17.6936 10.977
17.7087 10.775
17.7239 10.724
17.7391 10.680
17.7543 10.593
17.7694 10.414
17.7846 10.661
17.7998 10.795
17.8150 10.623
17.8301 10.725
17.8453 10.703
17.8605 10.642
17.8757 10.512
17.8908 10.377
17.9060 10.444
17.9212 10.572
17.9364 10.353
17.9515 10.309
17.9667 10.275
17.9819 10.323
17.9971 10.366
18.0122 10.547
18.0274 10.333
18.0426 10.273
18.0578 10.355
18.0729 10.176
18.0881 10.062
18.1033 10.152
18.1185 9.940
18.1336 9.829
18.1488 10.076
18.1640 10.041
18.1792 9.996
18.1943 10.080
18.2095 9.947
18.2247 9.913
18.2399 9.963
18.2550 10.061
18.2702 10.034
18.2854 9.807
18.3006 9.949
18.3157 9.797
18.3309 9.687
18.3461 9.823
18.3613 9.670
18.3764 9.625
18.3916 9.791
18.4068 9.894
18.4220 9.843
18.4371 9.816
18.4523 9.824
18.4675 9.884
18.4827 9.703
18.4978 9.618
18.5130 9.829
18.5282 9.765
18.5434 9.631
18.5585 9.637
18.5737 9.694
18.5889 9.862
18.6041 9.910
18.6192 9.517
18.6344 9.533
18.6496 9.600
18.6648 9.733
18.6799 9.595
18.6951 9.667
18.7103 9.808
18.7255 9.849
18.7406 9.849
18.7558 9.896
18.7710 9.763
18.7862 9.684
18.8013 9.553
18.8165 9.555
18.8317 9.871
18.8469 9.855
18.8620 9.773
18.8772 9.924
18.8924 9.879
18.9076 9.772
18.9227 9.850
18.9379 9.890
18.9531 9.870
18.9683 9.931
18.9834 9.988
18.9986 9.962
19.0138 10.006
19.0290 10.172
19.0441 10.041
19.0593 10.007
19.0745 10.131
19.0897 10.405
19.1048 10.401
19.1200 10.524
19.1352 10.618
19.1504 10.452
19.1655 10.495
19.1807 10.528
19.1959 10.528
19.2111 10.622
19.2262 10.719
19.2414 10.633
19.2566 10.739
19.2718 10.723
19.2869 10.642
19.3021 10.707
19.3173 10.893
19.3325 11.004
19.3476 10.967
19.3628 11.056
19.3780 11.061
19.3932 11.174
19.4083 11.230
19.4235 11.173
19.4387 11.323
19.4539 11.284
19.4690 11.161
19.4842 11.254
19.4994 11.295
19.5146 11.455
19.5297 11.447
19.5449 11.623
19.5601 11.702
19.5753 11.717
19.5904 11.650
19.6056 11.511
19.6208 11.594
19.6360 11.537
19.6511 11.389
19.6663 11.412
19.6815 11.531
19.6967 11.665
19.7118 11.747
19.7270 11.884
19.7422 11.900
19.7574 11.790
19.7725 11.903
19.7877 11.934
19.8029 11.953
19.8180 12.245
19.8332 12.283
19.8484 12.169
19.8636 12.417
19.8787 12.830
19.8939 13.079
19.9091 13.016
19.9243 13.150
19.9394 13.354
19.9546 13.769
19.9698 14.111
19.9850 14.300
20.0001 14.521
20.0153 14.393
20.0305 14.044
20.0457 13.959
20.0608 13.813
20.0760 13.659
20.0912 13.589
20.1064 13.411
20.1215 13.194
20.1367 13.174
20.1519 13.258
20.1671 12.889
20.1822 12.921
20.1974 13.420
20.2126 13.158
20.2278 12.782
20.2429 12.752
20.2581 12.529
20.2733 12.176
20.2885 11.751
20.3036 11.852
20.3188 11.895
20.3340 11.662
20.3492 11.811
20.3643 11.890
20.3795 11.536
20.3947 11.147
20.4099 11.040
20.4250 10.998
20.4402 11.072
20.4554 10.980
20.4706 10.615
20.4857 10.515
20.5009 10.609
20.5161 10.773
20.5313 10.609
20.5464 10.701
20.5616 10.675
20.5768 11.025
20.5920 11.006
20.6071 10.734
20.6223 10.541
20.6375 10.449
20.6527 10.762
20.6678 10.754
20.6830 10.744
20.6982 10.584
20.7134 10.772
20.7285 10.532
20.7437 10.513
20.7589 10.509
20.7741 10.406
20.7892 10.283
20.8044 10.580
20.8196 10.405
20.8348 10.296
20.8499 10.198
20.8651 10.477
20.8803 10.141
20.8955 10.286
20.9106 10.138
20.9258 10.116
20.9410 9.967
20.9562 9.969
20.9713 10.249
20.9865 10.112
21.0017 10.023
21.0169 10.128
21.0320 10.179
21.0472 9.999
21.0624 9.873
21.0776 9.855
21.0927 9.807
21.1079 9.785
21.1231 9.757
21.1383 9.938
21.1534 9.663
21.1686 9.584
21.1838 9.503
21.1990 9.473
21.2141 9.458
21.2293 10.055
21.2445 9.584
21.2597 9.781
21.2748 9.515
21.2900 9.522
21.3052 9.601
21.3204 9.679
21.3355 9.729
21.3507 9.462
21.3659 9.558
21.3811 9.494
21.3962 9.339
21.4114 9.392
21.4266 9.213
21.4418 9.586
21.4569 9.298
21.4721 9.203
21.4873 9.413
21.5025 9.406
21.5176 9.448
21.5328 9.156
21.5480 9.324
21.5632 9.059
21.5783 9.194
21.5935 9.098
21.6087 9.055
21.6239 9.287
21.6390 9.099
21.6542 9.198
21.6694 9.191
21.6846 8.989
21.6997 8.879
21.7149 8.962
21.7301 9.008
21.7453 8.814
21.7604 8.843
21.7756 8.790
21.7908 9.086
21.8060 9.128
21.8211 9.060
21.8363 9.113
21.8515 9.139
21.8667 8.911
21.8818 9.041
21.8970 9.106
21.9122 8.991
21.9274 9.072
21.9425 9.058
21.9577 8.947
21.9729 9.027
21.9881 8.884
22.0032 8.921
22.0184 8.826
22.0336 8.578
22.0488 8.844
22.0639 9.046
22.0791 9.015
22.0943 8.968
22.1095 8.831
22.1246 8.699
22.1398 8.566
22.1550 8.664
22.1702 8.622
22.1853 8.460
22.2005 8.557
22.2157 8.837
22.2309 8.893
22.2460 8.700
22.2612 8.635
22.2764 8.671
22.2916 8.737
22.3067 8.509
22.3219 8.679
22.3371 8.561
22.3523 8.557
22.3674 8.245
22.3826 8.251
22.3978 8.412
22.4130 8.473
22.4281 8.698
22.4433 8.528
22.4585 8.574
22.4737 8.358
22.4888 8.413
22.5040 8.557
22.5192 8.241
22.5344 8.366
22.5495 8.680
22.5647 8.290
22.5799 8.459
22.5951 8.127
22.6102 8.714
22.6254 8.597
22.6406 8.565
22.6558 8.674
22.6709 8.349
22.6861 8.601
22.7013 8.513
22.7165 8.042
22.7316 6.560
