'Id: "" Comment: "" Operator: "Lab Manager" Anode: "Mo" Scantype: "Still (Eiger2R_500K (1D mode))" TimePerStep: "300" X: "11.8" Y: "9.4" Z: "11.284" 
7.2532 18.822
7.2684 18.769
7.2836 18.858
7.2987 18.922
7.3139 19.413
7.3291 19.125
7.3443 19.206
7.3594 19.464
7.3746 19.426
7.3898 19.370
7.4050 19.585
7.4201 19.689
7.4353 19.830
7.4505 19.949
7.4657 20.079
7.4808 19.659
7.4960 19.656
7.5112 19.564
7.5264 20.337
7.5415 19.984
7.5567 19.849
7.5719 20.138
7.5871 20.206
7.6022 20.292
7.6174 19.976
7.6326 19.837
7.6478 19.822
7.6629 19.964
7.6781 20.122
7.6933 19.853
7.7085 20.014
7.7236 20.513
7.7388 20.648
7.7540 20.447
7.7692 20.453
7.7843 20.363
7.7995 20.474
7.8147 20.754
7.8299 20.644
7.8450 20.380
7.8602 20.744
7.8754 20.905
7.8905 20.838
7.9057 20.811
7.9209 20.880
7.9361 20.872
7.9512 20.680
7.9664 21.016
7.9816 20.848
7.9968 21.106
8.0119 21.260
8.0271 21.148
8.0423 21.202
8.0575 21.409
8.0726 21.490
8.0878 21.090
8.1030 21.066
8.1182 21.191
8.1333 21.385
8.1485 21.340
8.1637 21.371
8.1789 21.766
8.1940 21.363
8.2092 21.197
8.2244 21.569
8.2396 21.671
8.2547 21.811
8.2699 21.856
8.2851 21.407
8.3003 21.755
8.3154 22.185
8.3306 21.802
8.3458 22.041
8.3610 21.898
8.3761 21.917
8.3913 21.797
8.4065 21.659
8.4217 22.022
8.4368 21.732
8.4520 21.956
8.4672 22.522
8.4824 21.638
8.4975 22.027
8.5127 22.209
8.5279 21.669
8.5431 22.096
8.5582 22.176
8.5734 23.117
8.5886 22.131
8.6038 22.567
8.6189 22.320
8.6341 22.268
8.6493 22.277
8.6645 22.605
8.6796 22.309
8.6948 21.973
8.7100 22.307
8.7252 22.765
8.7403 22.562
8.7555 22.224
8.7707 22.253
8.7859 22.564
8.8010 22.590
8.8162 22.429
8.8314 22.511
8.8466 22.988
8.8617 22.520
8.8769 22.949
8.8921 22.796
8.9073 22.477
8.9224 22.734
8.9376 22.949
8.9528 22.658
8.9680 22.544
8.9831 22.986
8.9983 22.975
9.0135 23.069
9.0287 22.715
9.0438 22.729
9.0590 22.714
9.0742 22.676
9.0894 22.975
9.1045 22.472
9.1197 22.353
9.1349 22.534
9.1501 23.224
9.1652 23.191
9.1804 23.041
9.1956 22.925
9.2108 22.737
9.2259 22.908
9.2411 23.402
9.2563 23.091
9.2715 23.125
9.2866 22.980
9.3018 22.780
9.3170 23.003
9.3322 23.054
9.3473 22.852
9.3625 22.778
9.3777 23.043
9.3929 23.054
9.4080 23.222
9.4232 23.226
9.4384 23.265
9.4536 23.112
9.4687 23.208
9.4839 23.092
9.4991 23.005
9.5143 23.280
9.5294 23.400
9.5446 23.002
9.5598 23.004
9.5750 23.074
9.5901 23.346
9.6053 23.388
9.6205 23.414
9.6357 23.396
9.6508 23.722
9.6660 23.666
9.6812 23.889
9.6964 24.081
9.7115 23.823
9.7267 23.999
9.7419 24.146
9.7571 24.317
9.7722 24.188
9.7874 23.709
9.8026 23.678
9.8178 23.840
9.8329 23.645
9.8481 23.595
9.8633 23.687
9.8785 23.876
9.8936 24.077
9.9088 23.986
9.9240 24.262
9.9392 24.250
9.9543 23.830
9.9695 23.778
9.9847 23.785
9.9999 23.496
10.0150 23.107
10.0302 23.047
10.0454 23.065
10.0606 22.993
10.0757 23.021
10.0909 23.096
10.1061 23.073
10.1213 23.169
10.1364 23.009
10.1516 22.985
10.1668 23.013
10.1820 23.202
10.1971 23.323
10.2123 23.220
10.2275 23.187
10.2427 23.109
10.2578 23.344
10.2730 23.439
10.2882 23.148
10.3034 23.146
10.3185 23.525
10.3337 23.314
10.3489 23.076
10.3641 22.916
10.3792 22.851
10.3944 22.726
10.4096 22.840
10.4248 23.351
10.4399 23.092
10.4551 22.974
10.4703 22.916
10.4855 22.773
10.5006 22.574
10.5158 22.244
10.5310 22.466
10.5462 22.585
10.5613 22.684
10.5765 22.748
10.5917 22.497
10.6069 22.858
10.6220 22.858
10.6372 22.765
10.6524 22.356
10.6676 22.658
10.6827 22.585
10.6979 22.651
10.7131 22.188
10.7283 22.373
10.7434 22.602
10.7586 22.463
10.7738 22.568
10.7890 22.465
10.8041 22.142
10.8193 22.068
10.8345 22.451
10.8497 22.227
10.8648 22.347
10.8800 22.171
10.8952 21.979
10.9104 22.138
10.9255 21.926
10.9407 22.240
10.9559 22.498
10.9711 22.007
10.9862 22.300
11.0014 22.480
11.0166 21.808
11.0318 21.869
11.0469 21.845
11.0621 21.819
11.0773 21.982
11.0925 21.904
11.1076 21.679
11.1228 21.781
11.1380 21.551
11.1532 21.602
11.1683 21.614
11.1835 21.647
11.1987 21.589
11.2139 22.018
11.2290 21.876
11.2442 21.533
11.2594 21.262
11.2746 21.625
11.2897 22.068
11.3049 22.143
11.3201 21.585
11.3353 21.408
11.3504 21.541
11.3656 21.597
11.3808 21.275
11.3960 21.688
11.4111 21.694
11.4263 21.289
11.4415 21.294
11.4567 21.350
11.4718 21.410
11.4870 21.058
11.5022 20.967
11.5174 21.228
11.5325 21.155
11.5477 21.206
11.5629 21.146
11.5781 21.045
11.5932 21.111
11.6084 21.065
11.6236 20.868
11.6388 21.026
11.6539 20.435
11.6691 20.663
11.6843 20.347
11.6995 20.521
11.7146 20.910
11.7298 20.962
11.7450 20.289
11.7602 20.063
11.7753 20.348
11.7905 19.930
11.8057 20.001
11.8209 20.189
11.8360 20.181
11.8512 19.838
11.8664 19.919
11.8816 19.845
11.8967 19.897
11.9119 19.919
11.9271 19.745
11.9423 19.694
11.9574 19.615
11.9726 19.454
11.9878 19.336
12.0030 19.094
12.0181 19.043
12.0333 19.292
12.0485 19.375
12.0637 18.973
12.0788 18.860
12.0940 18.848
12.1092 18.677
12.1244 18.637
12.1395 18.702
12.1547 18.726
12.1699 18.389
12.1851 18.399
12.2002 18.279
12.2154 18.093
12.2306 18.062
12.2458 17.998
12.2609 17.659
12.2761 17.802
12.2913 17.837
12.3065 17.634
12.3216 17.568
12.3368 17.592
12.3520 17.481
12.3672 17.342
12.3823 17.199
12.3975 17.232
12.4127 17.060
12.4279 16.819
12.4430 16.763
12.4582 16.906
12.4734 16.825
12.4886 16.756
12.5037 16.772
12.5189 16.793
12.5341 16.487
12.5493 16.402
12.5644 16.255
12.5796 16.550
12.5948 16.372
12.6100 16.135
12.6251 15.964
12.6403 15.803
12.6555 15.805
12.6707 15.938
12.6858 15.882
12.7010 15.491
12.7162 15.655
12.7314 15.720
12.7465 15.657
12.7617 15.337
12.7769 15.085
12.7921 15.366
12.8072 15.356
12.8224 15.153
12.8376 14.999
12.8528 14.836
12.8679 14.860
12.8831 14.792
12.8983 14.928
12.9135 15.062
12.9286 14.985
12.9438 14.999
12.9590 14.720
12.9742 14.445
12.9893 14.497
13.0045 14.277
13.0197 14.226
13.0349 14.298
13.0500 14.189
13.0652 14.105
13.0804 14.158
13.0956 14.059
13.1107 13.810
13.1259 13.894
13.1411 13.709
13.1563 13.647
13.1714 13.744
13.1866 13.790
13.2018 13.901
13.2170 13.507
13.2321 13.392
13.2473 13.514
13.2625 13.254
13.2777 13.242
13.2928 13.247
13.3080 13.185
13.3232 13.306
13.3384 13.092
13.3535 13.059
13.3687 13.002
13.3839 12.734
13.3991 12.970
13.4142 13.120
13.4294 13.002
13.4446 13.046
13.4598 12.863
13.4749 12.547
13.4901 12.417
13.5053 12.564
13.5205 12.649
13.5356 12.613
13.5508 12.413
13.5660 12.171
13.5812 12.386
13.5963 12.452
13.6115 12.395
13.6267 12.491
13.6419 12.278
13.6570 12.336
13.6722 12.246
13.6874 12.094
13.7026 12.123
13.7177 12.133
13.7329 12.272
13.7481 12.348
13.7633 12.069
13.7784 12.124
13.7936 12.227
13.8088 12.333
13.8239 12.196
13.8391 12.208
13.8543 12.083
13.8695 12.207
13.8846 12.080
13.8998 12.092
13.9150 12.050
13.9302 12.256
13.9453 12.209
13.9605 11.908
13.9757 11.456
13.9909 11.602
14.0060 11.849
14.0212 11.889
14.0364 11.645
14.0516 11.650
14.0667 11.739
14.0819 11.280
14.0971 11.066
14.1123 11.223
14.1274 11.714
14.1426 11.518
14.1578 11.467
14.1730 11.257
14.1881 11.444
14.2033 11.411
14.2185 11.579
14.2337 11.726
14.2488 11.462
14.2640 11.254
14.2792 11.234
14.2944 11.371
14.3095 11.349
14.3247 11.669
14.3399 11.857
14.3551 11.999
14.3702 12.229
14.3854 12.607
14.4006 12.741
14.4158 12.978
14.4309 12.467
14.4461 12.612
14.4613 12.458
14.4765 12.266
14.4916 11.875
14.5068 11.964
14.5220 11.527
14.5372 11.689
14.5523 11.614
14.5675 11.661
14.5827 11.397
14.5979 11.310
14.6130 11.467
14.6282 11.174
14.6434 11.010
14.6586 11.035
14.6737 11.462
14.6889 11.504
14.7041 11.309
14.7193 11.326
14.7344 11.202
14.7496 10.946
14.7648 11.374
14.7800 11.142
14.7951 11.273
14.8103 10.961
14.8255 11.151
14.8407 10.814
14.8558 10.920
14.8710 11.152
14.8862 10.895
14.9014 10.870
14.9165 10.944
14.9317 11.213
14.9469 10.606
14.9621 10.827
14.9772 10.152
14.9924 10.280
15.0076 10.731
15.0228 10.832
15.0379 10.525
15.0531 10.895
15.0683 10.480
15.0835 10.372
15.0986 10.360
15.1138 10.638
15.1290 10.411
15.1442 10.426
15.1593 10.132
15.1745 10.466
15.1897 10.388
15.2049 10.259
15.2200 10.464
15.2352 10.382
15.2504 10.465
15.2656 10.270
15.2807 10.350
15.2959 10.045
15.3111 10.087
15.3263 10.482
15.3414 10.336
15.3566 10.183
15.3718 9.823
15.3870 10.537
15.4021 10.257
15.4173 10.370
15.4325 10.730
15.4477 10.771
15.4628 10.224
15.4780 10.216
15.4932 10.265
15.5084 10.367
15.5235 9.868
15.5387 10.424
15.5539 10.229
15.5691 10.257
15.5842 10.195
15.5994 10.354
15.6146 9.927
15.6298 10.363
15.6449 10.229
15.6601 9.961
15.6753 10.018
15.6905 10.445
15.7056 9.925
15.7208 9.994
15.7360 9.901
15.7512 10.002
15.7663 10.017
15.7815 9.895
15.7967 10.210
15.8119 10.126
15.8270 9.834
15.8422 9.837
15.8574 9.971
15.8726 9.756
15.8877 9.631
15.9029 9.982
15.9181 10.204
15.9333 9.943
15.9484 9.838
15.9636 9.613
15.9788 9.659
15.9940 9.810
16.0091 9.602
16.0243 9.748
16.0395 9.813
16.0547 9.815
16.0698 9.974
16.0850 9.569
16.1002 9.551
16.1154 9.533
16.1305 9.731
16.1457 9.843
16.1609 9.659
16.1761 9.991
16.1912 9.921
16.2064 9.832
16.2216 10.023
16.2368 10.001
16.2519 9.930
16.2671 9.921
16.2823 9.765
16.2975 9.623
16.3126 9.757
16.3278 9.834
16.3430 10.243
16.3582 10.215
16.3733 10.324
16.3885 10.330
16.4037 10.347
16.4189 9.989
16.4340 9.926
16.4492 9.929
16.4644 10.020
16.4796 9.919
16.4947 10.051
16.5099 9.996
16.5251 9.896
16.5403 10.063
16.5554 9.796
16.5706 9.988
16.5858 10.069
16.6010 9.734
16.6161 9.597
16.6313 9.889
16.6465 10.054
16.6617 9.966
16.6768 10.173
16.6920 10.082
16.7072 10.199
16.7224 10.189
16.7375 9.899
16.7527 9.937
16.7679 10.002
16.7831 9.991
16.7982 10.064
16.8134 10.069
16.8286 10.113
16.8438 9.982
16.8589 9.933
16.8741 9.924
16.8893 10.009
16.9045 10.006
16.9196 9.975
16.9348 10.009
16.9500 9.854
16.9652 9.971
16.9803 10.012
16.9955 10.140
17.0107 9.990
17.0259 10.117
17.0410 10.391
17.0562 10.442
17.0714 10.459
17.0866 10.303
17.1017 10.652
17.1169 10.942
17.1321 11.037
17.1473 11.160
17.1624 11.674
17.1776 12.346
17.1928 12.960
17.2080 14.040
17.2231 15.194
17.2383 16.279
17.2535 17.493
17.2687 18.617
17.2838 18.743
17.2990 17.927
17.3142 17.187
17.3294 16.482
17.3445 16.149
17.3597 15.987
17.3749 15.896
17.3901 15.506
17.4052 14.354
17.4204 13.243
17.4356 12.487
17.4508 12.002
17.4659 11.785
17.4811 11.455
17.4963 11.088
17.5115 11.030
17.5266 10.823
17.5418 10.683
17.5570 10.468
17.5722 10.318
17.5873 10.436
17.6025 10.358
17.6177 10.209
17.6329 10.146
17.6480 10.213
17.6632 10.087
17.6784 10.075
17.6936 10.241
17.7087 10.081
17.7239 9.913
17.7391 10.026
17.7543 10.365
17.7694 10.349
17.7846 10.413
17.7998 10.512
17.8150 10.619
17.8301 10.935
17.8453 10.907
17.8605 10.970
17.8757 11.196
17.8908 11.155
17.9060 11.054
17.9212 10.870
17.9364 10.687
17.9515 10.519
17.9667 10.555
17.9819 10.776
17.9971 10.592
18.0122 10.494
18.0274 10.318
18.0426 10.030
18.0578 10.125
18.0729 10.066
18.0881 10.052
18.1033 10.437
18.1185 10.435
18.1336 10.274
18.1488 10.188
18.1640 10.148
18.1792 10.247
18.1943 10.133
18.2095 9.916
18.2247 9.958
18.2399 10.116
18.2550 9.949
18.2702 9.983
18.2854 10.014
18.3006 10.028
18.3157 10.024
18.3309 9.908
18.3461 10.054
18.3613 9.892
18.3764 9.786
18.3916 9.722
18.4068 9.761
18.4220 9.891
18.4371 9.814
18.4523 9.913
18.4675 9.844
18.4827 9.750
18.4978 9.917
18.5130 10.015
18.5282 10.107
18.5434 9.940
18.5585 9.829
18.5737 9.825
18.5889 9.785
18.6041 9.808
18.6192 9.817
18.6344 10.007
18.6496 9.826
18.6648 9.777
18.6799 9.755
18.6951 9.783
18.7103 9.843
18.7255 9.781
18.7406 9.838
18.7558 9.817
18.7710 9.765
18.7862 9.821
18.8013 9.679
18.8165 9.548
18.8317 9.754
18.8469 9.879
18.8620 10.007
18.8772 10.023
18.8924 9.913
18.9076 9.945
18.9227 9.941
18.9379 10.063
18.9531 10.074
18.9683 9.954
18.9834 10.019
18.9986 10.182
19.0138 10.276
19.0290 10.215
19.0441 9.912
19.0593 9.994
19.0745 10.242
19.0897 10.237
19.1048 10.209
19.1200 10.336
19.1352 10.337
19.1504 10.377
19.1655 10.578
19.1807 10.823
19.1959 10.937
19.2111 10.756
19.2262 10.820
19.2414 10.908
19.2566 10.917
19.2718 10.861
19.2869 10.784
19.3021 10.896
19.3173 11.147
19.3325 11.147
19.3476 11.147
19.3628 11.216
19.3780 11.267
19.3932 11.377
19.4083 11.279
19.4235 11.048
19.4387 11.275
19.4539 11.479
19.4690 11.145
19.4842 11.344
19.4994 11.589
19.5146 11.315
19.5297 11.372
19.5449 11.673
19.5601 11.636
19.5753 11.479
19.5904 11.639
19.6056 11.798
19.6208 11.985
19.6360 11.807
19.6511 11.606
19.6663 11.811
19.6815 11.965
19.6967 11.874
19.7118 11.625
19.7270 11.605
19.7422 11.938
19.7574 11.952
19.7725 11.647
19.7877 11.671
19.8029 12.034
19.8180 12.206
19.8332 11.932
19.8484 12.038
19.8636 12.503
19.8787 12.475
19.8939 12.828
19.9091 13.278
19.9243 13.285
19.9394 13.678
19.9546 14.105
19.9698 14.442
19.9850 14.695
20.0001 14.605
20.0153 14.574
20.0305 14.476
20.0457 14.034
20.0608 13.851
20.0760 13.955
20.0912 13.640
20.1064 13.514
20.1215 13.575
20.1367 13.350
20.1519 13.271
20.1671 12.995
20.1822 12.930
20.1974 12.858
20.2126 12.687
20.2278 12.482
20.2429 12.510
20.2581 12.112
20.2733 11.890
20.2885 11.764
20.3036 11.572
20.3188 11.494
20.3340 11.486
20.3492 11.631
20.3643 11.462
20.3795 11.256
20.3947 11.128
20.4099 10.844
20.4250 11.060
20.4402 10.967
20.4554 11.121
20.4706 10.893
20.4857 10.486
20.5009 10.713
20.5161 10.613
20.5313 10.500
20.5464 10.753
20.5616 10.449
20.5768 10.584
20.5920 10.459
20.6071 10.449
20.6223 10.490
20.6375 10.441
20.6527 10.485
20.6678 10.514
20.6830 10.439
20.6982 10.419
20.7134 10.445
20.7285 10.499
20.7437 10.356
20.7589 10.395
20.7741 10.433
20.7892 10.490
20.8044 10.489
20.8196 10.355
20.8348 10.223
20.8499 10.107
20.8651 10.337
20.8803 10.342
20.8955 10.684
20.9106 10.310
20.9258 10.130
20.9410 10.224
20.9562 10.575
20.9713 10.770
20.9865 10.774
21.0017 10.439
21.0169 10.431
21.0320 10.263
21.0472 10.261
21.0624 10.156
21.0776 9.911
21.0927 10.036
21.1079 10.186
21.1231 9.913
21.1383 9.605
21.1534 9.830
21.1686 9.894
21.1838 9.970
21.1990 9.641
21.2141 9.669
21.2293 9.850
21.2445 9.737
21.2597 9.808
21.2748 9.560
21.2900 9.615
21.3052 9.717
21.3204 9.891
21.3355 9.687
21.3507 9.404
21.3659 9.485
21.3811 9.429
21.3962 9.584
21.4114 9.569
21.4266 9.654
21.4418 9.372
21.4569 9.364
21.4721 9.146
21.4873 9.048
21.5025 9.172
21.5176 9.237
21.5328 9.397
21.5480 9.213
21.5632 9.233
21.5783 9.207
21.5935 9.208
21.6087 8.989
21.6239 8.874
21.6390 9.227
21.6542 9.094
21.6694 9.041
21.6846 8.952
21.6997 9.098
21.7149 9.063
21.7301 9.070
21.7453 9.073
21.7604 8.762
21.7756 8.933
21.7908 9.232
21.8060 8.838
21.8211 8.833
21.8363 9.061
21.8515 9.194
21.8667 9.191
21.8818 8.993
21.8970 8.910
21.9122 8.817
21.9274 8.878
21.9425 8.888
21.9577 8.926
21.9729 8.979
21.9881 8.985
22.0032 8.895
22.0184 8.687
22.0336 8.612
22.0488 8.837
22.0639 8.811
22.0791 8.802
22.0943 8.860
22.1095 8.695
22.1246 8.658
22.1398 8.832
22.1550 8.684
22.1702 8.515
22.1853 8.527
22.2005 8.517
22.2157 8.747
22.2309 8.680
22.2460 8.528
22.2612 8.586
22.2764 8.538
22.2916 8.527
22.3067 8.433
22.3219 8.594
22.3371 8.540
22.3523 8.756
22.3674 8.607
22.3826 8.471
22.3978 8.524
22.4130 8.585
22.4281 8.661
22.4433 8.614
22.4585 8.691
22.4737 8.598
22.4888 8.477
22.5040 8.638
22.5192 8.592
22.5344 8.378
22.5495 8.397
22.5647 8.456
22.5799 8.539
22.5951 8.481
22.6102 8.384
22.6254 8.947
22.6406 8.232
22.6558 8.615
22.6709 8.288
22.6861 8.547
22.7013 8.438
22.7165 7.944
22.7316 6.439
