'Id: "" Comment: "" Operator: "Lab Manager" Anode: "Mo" Scantype: "Still (Eiger2R_500K (1D mode))" TimePerStep: "300" X: "11.8" Y: "9.4" Z: "11.284" 
7.2532 18.592
7.2684 18.787
7.2836 18.986
7.2987 18.762
7.3139 19.074
7.3291 19.020
7.3443 18.868
7.3594 18.984
7.3746 19.195
7.3898 19.575
7.4050 19.026
7.4201 19.326
7.4353 19.471
7.4505 19.341
7.4657 19.385
7.4808 19.373
7.4960 19.744
7.5112 19.904
7.5264 20.144
7.5415 19.854
7.5567 19.674
7.5719 19.863
7.5871 19.666
7.6022 19.985
7.6174 19.537
7.6326 19.934
7.6478 20.266
7.6629 20.025
7.6781 19.991
7.6933 20.095
7.7085 20.044
7.7236 20.239
7.7388 20.452
7.7540 20.630
7.7692 20.381
7.7843 20.111
7.7995 20.138
7.8147 20.371
7.8299 20.431
7.8450 20.428
7.8602 20.648
7.8754 20.900
7.8905 20.748
7.9057 20.597
7.9209 20.749
7.9361 20.587
7.9512 20.720
7.9664 21.163
7.9816 20.889
7.9968 20.651
8.0119 20.658
8.0271 21.094
8.0423 20.865
8.0575 20.606
8.0726 20.948
8.0878 21.109
8.1030 21.203
8.1182 21.191
8.1333 21.254
8.1485 21.444
8.1637 21.290
8.1789 21.388
8.1940 21.217
8.2092 21.136
8.2244 21.412
8.2396 21.401
8.2547 21.256
8.2699 21.766
8.2851 21.384
8.3003 21.241
8.3154 21.720
8.3306 21.434
8.3458 21.074
8.3610 21.778
8.3761 21.658
8.3913 21.695
8.4065 21.427
8.4217 21.731
8.4368 22.379
8.4520 21.611
8.4672 21.544
8.4824 21.875
8.4975 21.663
8.5127 22.078
8.5279 22.382
8.5431 21.867
8.5582 22.158
8.5734 21.561
8.5886 21.937
8.6038 22.364
8.6189 22.331
8.6341 21.842
8.6493 22.033
8.6645 22.100
8.6796 21.851
8.6948 22.197
8.7100 21.911
8.7252 22.250
8.7403 22.352
8.7555 22.437
8.7707 22.542
8.7859 22.082
8.8010 22.179
8.8162 22.306
8.8314 22.415
8.8466 22.321
8.8617 22.016
8.8769 22.595
8.8921 22.340
8.9073 22.424
8.9224 22.385
8.9376 22.071
8.9528 22.702
8.9680 22.195
8.9831 22.721
8.9983 22.639
9.0135 22.885
9.0287 22.954
9.0438 22.333
9.0590 22.311
9.0742 22.369
9.0894 22.217
9.1045 22.663
9.1197 22.704
9.1349 22.690
9.1501 22.459
9.1652 22.673
9.1804 22.726
9.1956 22.824
9.2108 22.831
9.2259 22.787
9.2411 22.779
9.2563 23.042
9.2715 22.587
9.2866 22.688
9.3018 22.852
9.3170 22.910
9.3322 23.261
9.3473 22.833
9.3625 22.620
9.3777 22.922
9.3929 23.214
9.4080 22.957
9.4232 23.025
9.4384 23.023
9.4536 22.890
9.4687 22.966
9.4839 23.073
9.4991 23.176
9.5143 23.166
9.5294 23.337
9.5446 23.421
9.5598 22.993
9.5750 23.020
9.5901 22.791
9.6053 22.851
9.6205 23.207
9.6357 23.572
9.6508 23.826
9.6660 23.604
9.6812 23.260
9.6964 23.490
9.7115 23.782
9.7267 23.741
9.7419 23.584
9.7571 23.630
9.7722 23.816
9.7874 23.762
9.8026 23.649
9.8178 23.444
9.8329 23.224
9.8481 23.236
9.8633 23.318
9.8785 23.172
9.8936 23.364
9.9088 23.273
9.9240 23.122
9.9392 23.174
9.9543 23.080
9.9695 23.106
9.9847 23.049
9.9999 23.131
10.0150 23.242
10.0302 23.084
10.0454 23.014
10.0606 22.890
10.0757 23.149
10.0909 23.398
10.1061 23.236
10.1213 23.090
10.1364 23.101
10.1516 23.140
10.1668 23.168
10.1820 23.231
10.1971 23.344
10.2123 22.997
10.2275 23.022
10.2427 22.964
10.2578 23.246
10.2730 22.942
10.2882 22.947
10.3034 23.247
10.3185 23.031
10.3337 22.482
10.3489 22.562
10.3641 22.692
10.3792 22.750
10.3944 22.668
10.4096 22.242
10.4248 22.047
10.4399 22.489
10.4551 22.715
10.4703 22.516
10.4855 22.656
10.5006 22.564
10.5158 22.364
10.5310 22.203
10.5462 22.690
10.5613 22.657
10.5765 22.913
10.5917 22.294
10.6069 22.120
10.6220 22.307
10.6372 22.458
10.6524 22.192
10.6676 22.380
10.6827 22.232
10.6979 22.396
10.7131 22.424
10.7283 22.536
10.7434 22.759
10.7586 22.496
10.7738 22.428
10.7890 22.285
10.8041 22.124
10.8193 22.059
10.8345 21.925
10.8497 22.242
10.8648 22.227
10.8800 22.058
10.8952 22.519
10.9104 22.023
10.9255 21.936
10.9407 22.328
10.9559 22.264
10.9711 22.027
10.9862 22.215
11.0014 22.062
11.0166 21.914
11.0318 21.557
11.0469 21.345
11.0621 21.375
11.0773 21.454
11.0925 21.616
11.1076 21.952
11.1228 21.748
11.1380 21.511
11.1532 21.540
11.1683 21.537
11.1835 21.472
11.1987 21.749
11.2139 21.591
11.2290 21.616
11.2442 21.648
11.2594 21.724
11.2746 21.411
11.2897 21.357
11.3049 21.807
11.3201 21.773
11.3353 21.375
11.3504 21.500
11.3656 21.468
11.3808 21.239
11.3960 21.581
11.4111 21.534
11.4263 21.603
11.4415 21.255
11.4567 21.085
11.4718 21.120
11.4870 20.975
11.5022 21.197
11.5174 21.366
11.5325 21.217
11.5477 21.103
11.5629 20.528
11.5781 20.616
11.5932 21.037
11.6084 20.672
11.6236 20.843
11.6388 20.490
11.6539 20.412
11.6691 20.891
11.6843 20.556
11.6995 20.305
11.7146 20.348
11.7298 20.331
11.7450 20.484
11.7602 20.404
11.7753 20.315
11.7905 20.146
11.8057 19.849
11.8209 20.102
11.8360 19.695
11.8512 19.576
11.8664 19.790
11.8816 19.823
11.8967 19.443
11.9119 19.532
11.9271 19.424
11.9423 19.496
11.9574 19.406
11.9726 19.397
11.9878 19.334
12.0030 19.134
12.0181 19.203
12.0333 19.020
12.0485 19.072
12.0637 18.656
12.0788 18.951
12.0940 18.855
12.1092 18.546
12.1244 18.566
12.1395 18.481
12.1547 18.524
12.1699 18.693
12.1851 18.990
12.2002 18.349
12.2154 17.921
12.2306 17.885
12.2458 17.710
12.2609 17.541
12.2761 17.621
12.2913 17.940
12.3065 17.754
12.3216 17.584
12.3368 17.321
12.3520 17.028
12.3672 17.062
12.3823 17.382
12.3975 17.299
12.4127 16.947
12.4279 16.980
12.4430 17.029
12.4582 17.196
12.4734 16.957
12.4886 16.787
12.5037 16.720
12.5189 16.681
12.5341 16.587
12.5493 16.201
12.5644 16.226
12.5796 16.321
12.5948 16.296
12.6100 15.990
12.6251 16.032
12.6403 16.006
12.6555 15.824
12.6707 15.904
12.6858 15.616
12.7010 15.409
12.7162 15.562
12.7314 15.445
12.7465 15.218
12.7617 14.931
12.7769 14.867
12.7921 15.160
12.8072 15.100
12.8224 14.805
12.8376 14.849
12.8528 14.841
12.8679 14.732
12.8831 14.713
12.8983 14.540
12.9135 14.535
12.9286 14.667
12.9438 14.548
12.9590 14.558
12.9742 14.178
12.9893 14.328
13.0045 14.442
13.0197 14.150
13.0349 14.130
13.0500 13.997
13.0652 13.736
13.0804 13.660
13.0956 13.737
13.1107 13.606
13.1259 13.519
13.1411 13.634
13.1563 13.553
13.1714 13.394
13.1866 13.497
13.2018 13.537
13.2170 13.341
13.2321 13.263
13.2473 13.360
13.2625 13.399
13.2777 13.311
13.2928 13.232
13.3080 13.332
13.3232 13.264
13.3384 12.948
13.3535 12.851
13.3687 12.884
13.3839 12.849
13.3991 12.892
13.4142 12.710
13.4294 12.846
13.4446 13.054
13.4598 12.851
13.4749 12.684
13.4901 12.879
13.5053 12.692
13.5205 12.553
13.5356 12.626
13.5508 12.579
13.5660 12.451
13.5812 12.436
13.5963 12.382
13.6115 12.185
13.6267 11.924
13.6419 12.130
13.6570 12.316
13.6722 12.171
13.6874 12.112
13.7026 12.425
13.7177 12.258
13.7329 11.964
13.7481 11.806
13.7633 11.930
13.7784 12.100
13.7936 12.204
13.8088 12.343
13.8239 12.365
13.8391 12.288
13.8543 12.134
13.8695 12.099
13.8846 12.060
13.8998 11.942
13.9150 12.135
13.9302 12.189
13.9453 12.164
13.9605 12.025
13.9757 11.404
13.9909 11.368
14.0060 11.532
14.0212 11.759
14.0364 11.781
14.0516 11.784
14.0667 11.498
14.0819 11.292
14.0971 11.725
14.1123 11.758
14.1274 11.665
14.1426 11.872
14.1578 11.794
14.1730 11.661
14.1881 11.716
14.2033 11.611
14.2185 11.770
14.2337 11.853
14.2488 11.714
14.2640 11.843
14.2792 12.042
14.2944 11.818
14.3095 12.048
14.3247 12.100
14.3399 12.240
14.3551 12.299
14.3702 12.825
14.3854 12.977
14.4006 13.256
14.4158 13.342
14.4309 12.739
14.4461 12.494
14.4613 12.387
14.4765 12.350
14.4916 12.406
14.5068 11.866
14.5220 11.843
14.5372 11.471
14.5523 11.084
14.5675 10.660
14.5827 10.846
14.5979 11.139
14.6130 10.991
14.6282 11.111
14.6434 10.479
14.6586 10.684
14.6737 10.946
14.6889 10.975
14.7041 10.790
14.7193 10.513
14.7344 10.267
14.7496 10.203
14.7648 10.668
14.7800 10.476
14.7951 10.611
14.8103 10.388
14.8255 10.338
14.8407 10.579
14.8558 10.579
14.8710 10.357
14.8862 10.470
14.9014 10.833
14.9165 10.633
14.9317 10.735
14.9469 10.430
14.9621 10.522
14.9772 10.238
14.9924 10.140
15.0076 10.328
15.0228 10.669
15.0379 10.351
15.0531 10.237
15.0683 10.591
15.0835 10.207
15.0986 9.982
15.1138 9.940
15.1290 10.097
15.1442 10.317
15.1593 10.378
15.1745 10.101
15.1897 10.414
15.2049 10.134
15.2200 10.107
15.2352 9.623
15.2504 10.303
15.2656 10.218
15.2807 9.937
15.2959 10.030
15.3111 10.325
15.3263 9.989
15.3414 9.888
15.3566 9.823
15.3718 10.055
15.3870 9.973
15.4021 10.076
15.4173 10.386
15.4325 10.038
15.4477 10.264
15.4628 10.046
15.4780 10.227
15.4932 10.151
15.5084 9.806
15.5235 9.737
15.5387 10.013
15.5539 10.216
15.5691 9.769
15.5842 9.904
15.5994 9.733
15.6146 9.590
15.6298 9.511
15.6449 9.846
15.6601 9.775
15.6753 9.809
15.6905 9.788
15.7056 9.568
15.7208 9.642
15.7360 9.792
15.7512 9.543
15.7663 9.734
15.7815 9.695
15.7967 9.972
15.8119 9.740
15.8270 9.624
15.8422 9.796
15.8574 9.713
15.8726 9.506
15.8877 9.490
15.9029 9.630
15.9181 9.533
15.9333 9.773
15.9484 9.458
15.9636 9.710
15.9788 9.793
15.9940 9.450
16.0091 9.518
16.0243 9.709
16.0395 9.777
16.0547 9.645
16.0698 9.488
16.0850 9.622
16.1002 9.599
16.1154 9.516
16.1305 9.734
16.1457 9.653
16.1609 9.384
16.1761 9.499
16.1912 9.580
16.2064 9.630
16.2216 9.712
16.2368 9.859
16.2519 9.654
16.2671 9.428
16.2823 9.479
16.2975 9.660
16.3126 9.685
16.3278 9.786
16.3430 9.825
16.3582 9.647
16.3733 9.911
16.3885 9.891
16.4037 9.923
16.4189 9.935
16.4340 9.884
16.4492 9.550
16.4644 9.623
16.4796 9.563
16.4947 9.593
16.5099 9.688
16.5251 9.664
16.5403 9.519
16.5554 9.549
16.5706 9.685
16.5858 9.593
16.6010 9.655
16.6161 9.699
16.6313 9.861
16.6465 9.708
16.6617 9.822
16.6768 9.695
16.6920 9.651
16.7072 9.947
16.7224 9.814
16.7375 9.804
16.7527 9.770
16.7679 9.719
16.7831 9.806
16.7982 9.695
16.8134 9.639
16.8286 9.761
16.8438 9.839
16.8589 9.769
16.8741 9.802
16.8893 9.929
16.9045 9.888
16.9196 9.753
16.9348 9.896
16.9500 9.853
16.9652 9.506
16.9803 9.662
16.9955 9.978
17.0107 9.729
17.0259 9.682
17.0410 10.102
17.0562 10.150
17.0714 10.030
17.0866 10.348
17.1017 10.647
17.1169 10.696
17.1321 10.944
17.1473 11.429
17.1624 11.742
17.1776 12.238
17.1928 13.096
17.2080 13.990
17.2231 15.018
17.2383 16.231
17.2535 17.652
17.2687 18.840
17.2838 18.942
17.2990 18.068
17.3142 17.017
17.3294 16.560
17.3445 16.416
17.3597 16.035
17.3749 15.690
17.3901 15.299
17.4052 14.472
17.4204 13.558
17.4356 12.639
17.4508 11.919
17.4659 11.779
17.4811 11.671
17.4963 11.432
17.5115 11.184
17.5266 11.141
17.5418 11.141
17.5570 11.154
17.5722 11.207
17.5873 11.031
17.6025 11.075
17.6177 11.184
17.6329 11.182
17.6480 11.268
17.6632 11.335
17.6784 11.549
17.6936 11.608
17.7087 11.349
17.7239 11.196
17.7391 11.264
17.7543 11.379
17.7694 11.360
17.7846 11.112
17.7998 10.888
17.8150 10.692
17.8301 10.292
17.8453 10.254
17.8605 10.352
17.8757 10.344
17.8908 10.508
17.9060 10.366
17.9212 10.057
17.9364 9.992
17.9515 9.883
17.9667 10.060
17.9819 10.188
17.9971 10.054
18.0122 10.026
18.0274 10.040
18.0426 10.205
18.0578 10.122
18.0729 9.921
18.0881 9.957
18.1033 10.025
18.1185 9.802
18.1336 9.695
18.1488 9.848
18.1640 9.762
18.1792 9.774
18.1943 10.020
18.2095 9.915
18.2247 9.772
18.2399 9.941
18.2550 9.882
18.2702 9.845
18.2854 9.936
18.3006 9.729
18.3157 9.647
18.3309 9.764
18.3461 10.000
18.3613 9.855
18.3764 9.695
18.3916 9.553
18.4068 9.739
18.4220 9.775
18.4371 9.850
18.4523 9.988
18.4675 9.965
18.4827 9.746
18.4978 9.724
18.5130 9.836
18.5282 9.934
18.5434 9.721
18.5585 9.821
18.5737 9.882
18.5889 9.870
18.6041 9.924
18.6192 9.724
18.6344 9.869
18.6496 9.823
18.6648 9.726
18.6799 9.756
18.6951 9.799
18.7103 9.853
18.7255 9.787
18.7406 9.786
18.7558 9.831
18.7710 9.834
18.7862 9.990
18.8013 9.788
18.8165 9.461
18.8317 9.665
18.8469 9.923
18.8620 9.988
18.8772 10.188
18.8924 9.912
18.9076 9.838
18.9227 9.967
18.9379 9.786
18.9531 10.004
18.9683 10.065
18.9834 10.061
18.9986 10.106
19.0138 10.034
19.0290 10.230
19.0441 10.283
19.0593 10.222
19.0745 10.235
19.0897 10.345
19.1048 10.487
19.1200 10.343
19.1352 10.370
19.1504 10.390
19.1655 10.483
19.1807 10.519
19.1959 10.359
19.2111 10.279
19.2262 10.660
19.2414 10.768
19.2566 10.889
19.2718 10.961
19.2869 10.805
19.3021 10.730
19.3173 10.834
19.3325 10.974
19.3476 11.250
19.3628 11.141
19.3780 11.118
19.3932 11.239
19.4083 11.159
19.4235 11.282
19.4387 11.415
19.4539 11.287
19.4690 11.171
19.4842 11.135
19.4994 11.277
19.5146 11.460
19.5297 11.425
19.5449 11.469
19.5601 11.839
19.5753 11.808
19.5904 11.729
19.6056 11.569
19.6208 11.704
19.6360 11.703
19.6511 11.543
19.6663 11.720
19.6815 11.749
19.6967 11.767
19.7118 11.788
19.7270 11.784
19.7422 11.850
19.7574 11.842
19.7725 11.678
19.7877 11.703
19.8029 11.978
19.8180 12.022
19.8332 12.120
19.8484 12.271
19.8636 12.224
19.8787 12.525
19.8939 12.952
19.9091 12.991
19.9243 13.102
19.9394 13.495
19.9546 14.251
19.9698 14.601
19.9850 14.646
20.0001 14.467
20.0153 14.092
20.0305 13.939
20.0457 14.008
20.0608 13.862
20.0760 13.785
20.0912 13.734
20.1064 13.555
20.1215 13.507
20.1367 13.260
20.1519 13.126
20.1671 13.032
20.1822 12.764
20.1974 12.692
20.2126 12.900
20.2278 12.897
20.2429 12.542
20.2581 12.225
20.2733 12.180
20.2885 12.136
20.3036 11.916
20.3188 11.941
20.3340 12.254
20.3492 12.429
20.3643 12.004
20.3795 11.910
20.3947 11.923
20.4099 12.090
20.4250 11.970
20.4402 11.784
20.4554 11.901
20.4706 11.639
20.4857 11.492
20.5009 11.633
20.5161 11.440
20.5313 11.374
20.5464 11.681
20.5616 11.410
20.5768 11.143
20.5920 11.063
20.6071 11.070
20.6223 10.947
20.6375 10.844
20.6527 10.904
20.6678 10.779
20.6830 10.921
20.6982 10.665
20.7134 10.460
20.7285 10.061
20.7437 10.443
20.7589 10.517
20.7741 10.522
20.7892 10.300
20.8044 10.364
20.8196 10.226
20.8348 10.687
20.8499 10.326
20.8651 10.280
20.8803 10.055
20.8955 10.296
20.9106 10.400
20.9258 10.520
20.9410 9.981
20.9562 10.087
20.9713 10.219
20.9865 10.246
21.0017 9.971
21.0169 10.156
21.0320 10.280
21.0472 9.826
21.0624 10.106
21.0776 9.647
21.0927 9.859
21.1079 10.241
21.1231 10.048
21.1383 10.142
21.1534 9.894
21.1686 9.838
21.1838 9.657
21.1990 9.806
21.2141 9.790
21.2293 9.684
21.2445 9.523
21.2597 9.699
21.2748 9.625
21.2900 9.383
21.3052 9.708
21.3204 9.745
21.3355 9.368
21.3507 9.714
21.3659 9.621
21.3811 9.714
21.3962 9.569
21.4114 9.587
21.4266 9.301
21.4418 9.534
21.4569 9.455
21.4721 9.715
21.4873 9.314
21.5025 9.252
21.5176 9.289
21.5328 9.230
21.5480 9.161
21.5632 9.318
21.5783 9.314
21.5935 9.037
21.6087 9.206
21.6239 9.332
21.6390 9.117
21.6542 9.148
21.6694 9.131
21.6846 8.943
21.6997 9.117
21.7149 9.117
21.7301 8.947
21.7453 9.110
21.7604 9.108
21.7756 9.021
21.7908 9.122
21.8060 9.084
21.8211 8.986
21.8363 8.837
21.8515 9.065
21.8667 9.032
21.8818 9.066
21.8970 9.104
21.9122 8.987
21.9274 8.882
21.9425 8.983
21.9577 8.986
21.9729 8.804
21.9881 8.818
22.0032 8.896
22.0184 8.951
22.0336 9.040
22.0488 8.927
22.0639 8.830
22.0791 8.737
22.0943 8.656
22.1095 8.639
22.1246 8.733
22.1398 8.522
22.1550 8.576
22.1702 8.510
22.1853 8.574
22.2005 8.800
22.2157 8.799
22.2309 8.667
22.2460 8.640
22.2612 8.492
22.2764 8.217
22.2916 8.577
22.3067 8.410
22.3219 8.312
22.3371 8.548
22.3523 8.526
22.3674 8.385
22.3826 8.469
22.3978 8.497
22.4130 8.402
22.4281 8.507
22.4433 8.654
22.4585 8.420
22.4737 8.383
22.4888 8.569
22.5040 8.557
22.5192 8.399
22.5344 8.621
22.5495 8.656
22.5647 8.405
22.5799 8.555
22.5951 8.602
22.6102 8.359
22.6254 8.305
22.6406 8.381
22.6558 8.300
22.6709 8.296
22.6861 8.488
22.7013 8.066
22.7165 8.029
22.7316 6.400
