'Id: "" Comment: "" Operator: "Lab Manager" Anode: "Mo" Scantype: "Still (Eiger2R_500K (1D mode))" TimePerStep: "300" X: "11.8" Y: "9.4" Z: "11.284" 
7.2532 19.077
7.2684 19.068
7.2836 18.743
7.2987 18.614
7.3139 18.984
7.3291 19.340
7.3443 18.985
7.3594 19.665
7.3746 19.332
7.3898 19.409
7.4050 19.727
7.4201 19.607
7.4353 19.496
7.4505 19.127
7.4657 19.507
7.4808 19.981
7.4960 19.670
7.5112 19.824
7.5264 19.768
7.5415 19.366
7.5567 19.645
7.5719 19.970
7.5871 20.092
7.6022 20.254
7.6174 20.252
7.6326 20.194
7.6478 20.337
7.6629 20.264
7.6781 20.124
7.6933 20.191
7.7085 20.202
7.7236 20.089
7.7388 20.661
7.7540 20.675
7.7692 20.636
7.7843 20.683
7.7995 20.489
7.8147 20.528
7.8299 20.910
7.8450 21.041
7.8602 20.833
7.8754 20.736
7.8905 20.776
7.9057 20.637
7.9209 20.778
7.9361 20.907
7.9512 21.063
7.9664 21.168
7.9816 21.380
7.9968 21.143
8.0119 21.070
8.0271 21.221
8.0423 21.170
8.0575 21.260
8.0726 21.752
8.0878 21.571
8.1030 21.382
8.1182 21.725
8.1333 21.643
8.1485 21.868
8.1637 21.671
8.1789 21.724
8.1940 21.782
8.2092 21.561
8.2244 21.723
8.2396 21.548
8.2547 21.604
8.2699 21.552
8.2851 21.819
8.3003 21.913
8.3154 22.108
8.3306 21.979
8.3458 22.360
8.3610 22.216
8.3761 21.931
8.3913 21.636
8.4065 21.914
8.4217 21.779
8.4368 21.768
8.4520 21.549
8.4672 21.661
8.4824 22.295
8.4975 22.193
8.5127 22.590
8.5279 22.295
8.5431 22.127
8.5582 22.190
8.5734 22.400
8.5886 22.521
8.6038 22.663
8.6189 22.464
8.6341 22.069
8.6493 21.955
8.6645 21.966
8.6796 22.488
8.6948 21.993
8.7100 21.614
8.7252 22.246
8.7403 22.040
8.7555 22.056
8.7707 22.475
8.7859 22.138
8.8010 23.025
8.8162 22.695
8.8314 22.042
8.8466 22.202
8.8617 22.488
8.8769 22.634
8.8921 22.913
8.9073 23.194
8.9224 22.519
8.9376 22.697
8.9528 22.697
8.9680 22.776
8.9831 22.869
8.9983 22.880
9.0135 22.900
9.0287 22.592
9.0438 22.874
9.0590 22.745
9.0742 22.772
9.0894 22.408
9.1045 23.307
9.1197 23.074
9.1349 22.958
9.1501 23.010
9.1652 23.024
9.1804 23.104
9.1956 22.335
9.2108 22.892
9.2259 23.244
9.2411 22.852
9.2563 22.867
9.2715 22.950
9.2866 22.722
9.3018 22.711
9.3170 22.736
9.3322 22.980
9.3473 22.903
9.3625 22.923
9.3777 23.299
9.3929 23.421
9.4080 23.321
9.4232 23.379
9.4384 23.513
9.4536 23.256
9.4687 22.830
9.4839 22.647
9.4991 23.193
9.5143 23.652
9.5294 23.651
9.5446 23.453
9.5598 23.140
9.5750 23.219
9.5901 23.662
9.6053 23.746
9.6205 23.528
9.6357 23.523
9.6508 23.450
9.6660 23.407
9.6812 23.733
9.6964 24.001
9.7115 24.099
9.7267 24.084
9.7419 24.255
9.7571 24.257
9.7722 24.138
9.7874 24.055
9.8026 23.916
9.8178 23.396
9.8329 23.552
9.8481 24.054
9.8633 23.943
9.8785 23.837
9.8936 23.770
9.9088 23.904
9.9240 23.925
9.9392 23.520
9.9543 23.391
9.9695 23.718
9.9847 23.721
9.9999 23.576
10.0150 23.392
10.0302 23.221
10.0454 23.229
10.0606 22.700
10.0757 22.894
10.0909 23.446
10.1061 23.384
10.1213 23.220
10.1364 23.100
10.1516 23.118
10.1668 23.105
10.1820 22.997
10.1971 22.754
10.2123 23.083
10.2275 23.307
10.2427 23.339
10.2578 23.067
10.2730 22.930
10.2882 22.958
10.3034 22.799
10.3185 22.878
10.3337 23.105
10.3489 23.401
10.3641 23.200
10.3792 23.273
10.3944 23.457
10.4096 23.044
10.4248 22.968
10.4399 23.294
10.4551 23.245
10.4703 22.816
10.4855 22.541
10.5006 22.718
10.5158 22.854
10.5310 22.474
10.5462 22.851
10.5613 22.735
10.5765 22.737
10.5917 22.862
10.6069 22.667
10.6220 22.616
10.6372 22.510
10.6524 22.751
10.6676 22.710
10.6827 22.548
10.6979 22.673
10.7131 22.732
10.7283 22.664
10.7434 22.520
10.7586 22.372
10.7738 22.277
10.7890 22.507
10.8041 22.272
10.8193 22.298
10.8345 22.312
10.8497 22.362
10.8648 22.284
10.8800 22.453
10.8952 22.655
10.9104 22.043
10.9255 22.140
10.9407 22.097
10.9559 21.782
10.9711 21.878
10.9862 22.257
11.0014 22.134
11.0166 21.996
11.0318 22.037
11.0469 21.786
11.0621 21.724
11.0773 21.881
11.0925 22.114
11.1076 22.284
11.1228 22.013
11.1380 21.651
11.1532 21.591
11.1683 21.961
11.1835 22.015
11.1987 21.986
11.2139 21.919
11.2290 22.131
11.2442 21.874
11.2594 21.752
11.2746 21.932
11.2897 22.008
11.3049 21.868
11.3201 21.884
11.3353 21.609
11.3504 21.512
11.3656 21.247
11.3808 21.612
11.3960 21.426
11.4111 21.494
11.4263 20.997
11.4415 21.238
11.4567 21.320
11.4718 21.403
11.4870 21.132
11.5022 21.174
11.5174 21.298
11.5325 21.111
11.5477 21.080
11.5629 21.090
11.5781 21.286
11.5932 21.467
11.6084 20.963
11.6236 20.850
11.6388 21.074
11.6539 20.583
11.6691 20.631
11.6843 20.459
11.6995 20.831
11.7146 20.807
11.7298 20.675
11.7450 20.550
11.7602 20.153
11.7753 20.382
11.7905 20.094
11.8057 19.951
11.8209 19.899
11.8360 20.139
11.8512 20.160
11.8664 20.035
11.8816 19.818
11.8967 19.856
11.9119 19.586
11.9271 19.828
11.9423 19.654
11.9574 19.445
11.9726 19.387
11.9878 19.408
12.0030 19.482
12.0181 19.510
12.0333 19.217
12.0485 19.033
12.0637 19.152
12.0788 19.232
12.0940 19.109
12.1092 18.800
12.1244 18.441
12.1395 18.589
12.1547 18.488
12.1699 18.512
12.1851 18.484
12.2002 18.182
12.2154 18.091
12.2306 17.909
12.2458 17.946
12.2609 17.954
12.2761 17.827
12.2913 17.793
12.3065 17.607
12.3216 17.788
12.3368 17.652
12.3520 17.521
12.3672 17.399
12.3823 17.196
12.3975 17.250
12.4127 17.118
12.4279 17.094
12.4430 17.139
12.4582 16.928
12.4734 16.669
12.4886 16.882
12.5037 17.006
12.5189 16.702
12.5341 16.627
12.5493 16.619
12.5644 16.462
12.5796 16.395
12.5948 16.299
12.6100 16.160
12.6251 15.977
12.6403 15.904
12.6555 15.849
12.6707 15.720
12.6858 15.974
12.7010 15.841
12.7162 15.692
12.7314 15.612
12.7465 15.378
12.7617 15.339
12.7769 15.126
12.7921 15.037
12.8072 15.129
12.8224 15.045
12.8376 15.274
12.8528 15.185
12.8679 14.972
12.8831 15.104
12.8983 14.824
12.9135 14.553
12.9286 14.566
12.9438 14.728
12.9590 14.606
12.9742 14.318
12.9893 14.387
13.0045 14.287
13.0197 14.081
13.0349 14.099
13.0500 14.233
13.0652 14.343
13.0804 14.090
13.0956 14.020
13.1107 14.037
13.1259 13.812
13.1411 13.598
13.1563 13.494
13.1714 13.286
13.1866 13.165
13.2018 13.433
13.2170 13.563
13.2321 13.246
13.2473 13.067
13.2625 13.253
13.2777 13.247
13.2928 13.157
13.3080 13.071
13.3232 13.128
13.3384 13.365
13.3535 13.331
13.3687 13.027
13.3839 12.987
13.3991 13.051
13.4142 12.927
13.4294 12.823
13.4446 12.875
13.4598 12.786
13.4749 12.700
13.4901 12.479
13.5053 12.478
13.5205 12.688
13.5356 12.736
13.5508 12.452
13.5660 12.181
13.5812 12.000
13.5963 12.302
13.6115 12.449
13.6267 12.135
13.6419 12.049
13.6570 12.175
13.6722 12.363
13.6874 12.043
13.7026 12.055
13.7177 12.109
13.7329 12.171
13.7481 12.171
13.7633 12.217
13.7784 12.258
13.7936 12.325
13.8088 12.329
13.8239 12.192
13.8391 12.240
13.8543 12.418
13.8695 12.417
13.8846 12.300
13.8998 12.058
13.9150 12.020
13.9302 11.855
13.9453 12.024
13.9605 12.011
13.9757 12.077
13.9909 12.046
14.0060 11.883
14.0212 11.519
14.0364 11.499
14.0516 11.701
14.0667 11.597
14.0819 11.546
14.0971 11.434
14.1123 11.835
14.1274 11.823
14.1426 11.520
14.1578 11.253
14.1730 11.303
14.1881 11.425
14.2033 11.583
14.2185 11.290
14.2337 11.495
14.2488 11.462
14.2640 11.408
14.2792 11.508
14.2944 11.643
14.3095 11.627
14.3247 11.598
14.3399 11.563
14.3551 11.677
14.3702 11.888
14.3854 12.109
14.4006 12.217
14.4158 12.421
14.4309 12.249
14.4461 12.223
14.4613 12.172
14.4765 12.356
14.4916 11.929
14.5068 12.085
14.5220 12.006
14.5372 11.733
14.5523 11.562
14.5675 11.295
14.5827 11.433
14.5979 11.148
14.6130 10.979
14.6282 11.115
14.6434 11.046
14.6586 11.079
14.6737 11.006
14.6889 11.226
14.7041 11.015
14.7193 10.988
14.7344 11.381
14.7496 11.068
14.7648 11.237
14.7800 11.318
14.7951 11.034
14.8103 10.830
14.8255 10.944
14.8407 11.227
14.8558 11.102
14.8710 10.654
14.8862 11.037
14.9014 11.015
14.9165 10.668
14.9317 10.835
14.9469 10.841
14.9621 10.510
14.9772 10.949
14.9924 10.689
15.0076 10.568
15.0228 10.707
15.0379 10.744
15.0531 10.537
15.0683 10.712
15.0835 10.530
15.0986 10.467
15.1138 9.984
15.1290 10.773
15.1442 10.603
15.1593 10.339
15.1745 10.528
15.1897 10.183
15.2049 10.090
15.2200 10.617
15.2352 10.676
15.2504 10.397
15.2656 10.476
15.2807 10.153
15.2959 10.324
15.3111 10.159
15.3263 10.271
15.3414 10.161
15.3566 10.334
15.3718 10.392
15.3870 10.223
15.4021 10.576
15.4173 10.487
15.4325 10.321
15.4477 10.519
15.4628 10.705
15.4780 10.393
15.4932 10.372
15.5084 10.515
15.5235 10.243
15.5387 10.419
15.5539 10.475
15.5691 10.274
15.5842 10.065
15.5994 10.081
15.6146 10.148
15.6298 10.112
15.6449 9.949
15.6601 9.883
15.6753 10.055
15.6905 9.823
15.7056 9.948
15.7208 9.928
15.7360 9.971
15.7512 9.958
15.7663 9.793
15.7815 10.129
15.7967 9.948
15.8119 9.940
15.8270 9.960
15.8422 9.887
15.8574 9.668
15.8726 10.013
15.8877 9.769
15.9029 9.746
15.9181 9.505
15.9333 9.884
15.9484 9.946
15.9636 9.767
15.9788 9.831
15.9940 9.665
16.0091 9.773
16.0243 9.854
16.0395 9.876
16.0547 9.744
16.0698 9.677
16.0850 9.678
16.1002 9.667
16.1154 9.816
16.1305 9.786
16.1457 9.703
16.1609 9.699
16.1761 9.643
16.1912 10.011
16.2064 9.656
16.2216 9.573
16.2368 9.745
16.2519 9.970
16.2671 10.135
16.2823 10.343
16.2975 10.318
16.3126 10.130
16.3278 9.928
16.3430 9.927
16.3582 10.137
16.3733 10.360
16.3885 10.273
16.4037 9.928
16.4189 9.836
16.4340 9.740
16.4492 9.818
16.4644 9.811
16.4796 9.803
16.4947 10.084
16.5099 10.019
16.5251 9.888
16.5403 9.950
16.5554 9.715
16.5706 9.907
16.5858 9.882
16.6010 9.784
16.6161 9.665
16.6313 9.657
16.6465 9.847
16.6617 9.812
16.6768 9.787
16.6920 9.915
16.7072 10.234
16.7224 10.386
16.7375 10.247
16.7527 10.025
16.7679 10.143
16.7831 10.193
16.7982 10.101
16.8134 9.768
16.8286 9.894
16.8438 10.035
16.8589 9.694
16.8741 9.716
16.8893 9.892
16.9045 9.596
16.9196 9.668
16.9348 10.012
16.9500 9.973
16.9652 10.051
16.9803 9.929
16.9955 9.806
17.0107 9.788
17.0259 10.063
17.0410 10.144
17.0562 10.177
17.0714 10.439
17.0866 10.600
17.1017 10.723
17.1169 10.886
17.1321 11.087
17.1473 11.330
17.1624 12.013
17.1776 12.674
17.1928 13.418
17.2080 14.329
17.2231 15.208
17.2383 16.491
17.2535 17.865
17.2687 18.618
17.2838 18.710
17.2990 18.167
17.3142 17.208
17.3294 16.507
17.3445 16.266
17.3597 16.248
17.3749 15.888
17.3901 15.103
17.4052 14.261
17.4204 13.482
17.4356 12.754
17.4508 12.061
17.4659 11.555
17.4811 11.449
17.4963 11.185
17.5115 10.990
17.5266 11.085
17.5418 10.671
17.5570 10.425
17.5722 10.324
17.5873 10.332
17.6025 10.475
17.6177 10.210
17.6329 10.038
17.6480 9.989
17.6632 10.062
17.6784 10.226
17.6936 10.221
17.7087 10.177
17.7239 10.134
17.7391 10.110
17.7543 10.305
17.7694 10.466
17.7846 10.353
17.7998 10.477
17.8150 10.762
17.8301 10.650
17.8453 10.682
17.8605 10.881
17.8757 11.111
17.8908 10.888
17.9060 10.685
17.9212 10.844
17.9364 10.779
17.9515 10.584
17.9667 10.596
17.9819 10.608
17.9971 10.606
18.0122 10.578
18.0274 10.459
18.0426 10.314
18.0578 10.392
18.0729 10.282
18.0881 10.260
18.1033 10.117
18.1185 10.248
18.1336 10.317
18.1488 10.005
18.1640 10.044
18.1792 9.955
18.1943 9.908
18.2095 9.951
18.2247 9.851
18.2399 10.042
18.2550 10.001
18.2702 9.797
18.2854 9.965
18.3006 9.881
18.3157 9.921
18.3309 9.823
18.3461 9.720
18.3613 10.046
18.3764 9.884
18.3916 9.985
18.4068 10.069
18.4220 9.983
18.4371 9.829
18.4523 9.722
18.4675 9.859
18.4827 9.870
18.4978 9.651
18.5130 9.862
18.5282 9.633
18.5434 9.634
18.5585 9.819
18.5737 9.862
18.5889 9.610
18.6041 9.538
18.6192 9.746
18.6344 9.689
18.6496 9.695
18.6648 9.824
18.6799 9.618
18.6951 9.678
18.7103 9.941
18.7255 9.984
18.7406 9.704
18.7558 9.705
18.7710 9.664
18.7862 9.699
18.8013 9.674
18.8165 9.601
18.8317 9.754
18.8469 10.015
18.8620 10.003
18.8772 9.841
18.8924 9.966
18.9076 9.981
18.9227 9.981
18.9379 9.854
18.9531 9.964
18.9683 10.037
18.9834 10.065
18.9986 10.077
19.0138 10.134
19.0290 10.217
19.0441 10.256
19.0593 10.330
19.0745 10.390
19.0897 10.397
19.1048 10.354
19.1200 10.525
19.1352 10.616
19.1504 10.681
19.1655 10.493
19.1807 10.562
19.1959 10.614
19.2111 10.540
19.2262 10.638
19.2414 10.779
19.2566 10.798
19.2718 10.724
19.2869 10.700
19.3021 10.807
19.3173 10.825
19.3325 10.968
19.3476 10.925
19.3628 11.047
19.3780 11.235
19.3932 11.155
19.4083 11.160
19.4235 11.358
19.4387 11.427
19.4539 11.438
19.4690 11.357
19.4842 11.043
19.4994 11.215
19.5146 11.415
19.5297 11.455
19.5449 11.383
19.5601 11.228
19.5753 11.265
19.5904 11.258
19.6056 11.432
19.6208 11.698
19.6360 11.592
19.6511 11.397
19.6663 11.430
19.6815 11.549
19.6967 11.556
19.7118 11.533
19.7270 11.727
19.7422 11.866
19.7574 11.773
19.7725 11.770
19.7877 11.853
19.8029 12.007
19.8180 12.060
19.8332 11.998
19.8484 12.325
19.8636 12.349
19.8787 12.514
19.8939 12.976
19.9091 13.203
19.9243 13.507
19.9394 13.889
19.9546 14.110
19.9698 14.322
19.9850 14.742
20.0001 14.777
20.0153 14.447
20.0305 14.046
20.0457 13.700
20.0608 13.712
20.0760 13.708
20.0912 13.534
20.1064 13.547
20.1215 13.557
20.1367 13.372
20.1519 13.128
20.1671 12.909
20.1822 12.677
20.1974 12.586
20.2126 12.566
20.2278 12.347
20.2429 12.378
20.2581 12.313
20.2733 11.983
20.2885 11.814
20.3036 11.656
20.3188 11.607
20.3340 11.674
20.3492 11.452
20.3643 11.264
20.3795 11.116
20.3947 10.769
20.4099 10.843
20.4250 11.029
20.4402 10.788
20.4554 10.838
20.4706 10.755
20.4857 10.401
20.5009 10.481
20.5161 10.670
20.5313 10.601
20.5464 10.874
20.5616 10.676
20.5768 10.656
20.5920 10.611
20.6071 10.588
20.6223 10.697
20.6375 10.294
20.6527 10.315
20.6678 10.338
20.6830 10.571
20.6982 10.444
20.7134 10.487
20.7285 10.484
20.7437 10.366
20.7589 10.479
20.7741 10.496
20.7892 10.561
20.8044 10.188
20.8196 10.214
20.8348 10.215
20.8499 10.217
20.8651 10.092
20.8803 10.442
20.8955 10.374
20.9106 10.326
20.9258 10.241
20.9410 10.104
20.9562 10.139
20.9713 10.708
20.9865 10.481
21.0017 10.328
21.0169 10.491
21.0320 10.282
21.0472 10.172
21.0624 10.378
21.0776 10.408
21.0927 10.383
21.1079 10.141
21.1231 10.228
21.1383 9.953
21.1534 9.828
21.1686 9.960
21.1838 9.872
21.1990 9.999
21.2141 9.995
21.2293 9.992
21.2445 9.532
21.2597 9.986
21.2748 9.777
21.2900 9.299
21.3052 9.568
21.3204 9.606
21.3355 9.416
21.3507 9.426
21.3659 9.762
21.3811 9.579
21.3962 9.490
21.4114 9.316
21.4266 9.390
21.4418 9.369
21.4569 9.006
21.4721 9.239
21.4873 9.420
21.5025 9.633
21.5176 9.280
21.5328 9.415
21.5480 9.334
21.5632 9.208
21.5783 9.168
21.5935 9.294
21.6087 9.134
21.6239 8.898
21.6390 8.988
21.6542 9.127
21.6694 9.389
21.6846 9.065
21.6997 9.142
21.7149 9.341
21.7301 9.216
21.7453 8.937
21.7604 8.969
21.7756 9.029
21.7908 8.925
21.8060 9.122
21.8211 8.974
21.8363 9.053
21.8515 9.052
21.8667 9.114
21.8818 8.958
21.8970 9.016
21.9122 8.931
21.9274 8.746
21.9425 8.982
21.9577 9.085
21.9729 9.049
21.9881 9.012
22.0032 8.875
22.0184 8.697
22.0336 8.810
22.0488 8.902
22.0639 8.818
22.0791 8.692
22.0943 8.650
22.1095 8.702
22.1246 8.730
22.1398 8.730
22.1550 8.697
22.1702 8.555
22.1853 8.580
22.2005 8.571
22.2157 8.570
22.2309 8.544
22.2460 8.549
22.2612 8.896
22.2764 8.730
22.2916 8.570
22.3067 8.631
22.3219 8.778
22.3371 8.861
22.3523 8.804
22.3674 8.446
22.3826 8.391
22.3978 8.598
22.4130 8.598
22.4281 8.644
22.4433 8.736
22.4585 8.510
22.4737 8.445
22.4888 8.386
22.5040 8.490
22.5192 8.399
22.5344 8.270
22.5495 8.522
22.5647 8.526
22.5799 8.210
22.5951 8.565
22.6102 8.388
22.6254 8.371
22.6406 8.390
22.6558 8.648
22.6709 8.613
22.6861 8.442
22.7013 8.232
22.7165 7.852
22.7316 6.385
