'Id: "" Comment: "" Operator: "Lab Manager" Anode: "Mo" Scantype: "Still (Eiger2R_500K (1D mode))" TimePerStep: "300" X: "11.8" Y: "9.4" Z: "11.284" 
7.2532 18.427
7.2684 18.887
7.2836 18.801
7.2987 19.312
7.3139 18.896
7.3291 18.691
7.3443 19.100
7.3594 19.130
7.3746 19.192
7.3898 19.237
7.4050 18.989
7.4201 19.233
7.4353 19.369
7.4505 19.045
7.4657 19.287
7.4808 19.508
7.4960 19.965
7.5112 19.679
7.5264 19.319
7.5415 19.372
7.5567 19.553
7.5719 19.553
7.5871 19.882
7.6022 19.884
7.6174 20.146
7.6326 20.235
7.6478 20.192
7.6629 19.862
7.6781 20.027
7.6933 20.030
7.7085 20.053
7.7236 20.218
7.7388 19.950
7.7540 20.032
7.7692 20.100
7.7843 20.060
7.7995 20.306
7.8147 20.407
7.8299 20.442
7.8450 20.821
7.8602 20.751
7.8754 20.611
7.8905 20.765
7.9057 20.600
7.9209 20.721
7.9361 20.538
7.9512 20.693
7.9664 20.855
7.9816 20.686
7.9968 20.569
8.0119 20.555
8.0271 20.838
8.0423 20.790
8.0575 20.930
8.0726 21.239
8.0878 21.286
8.1030 21.088
8.1182 21.447
8.1333 21.240
8.1485 20.902
8.1637 21.043
8.1789 21.116
8.1940 21.287
8.2092 21.639
8.2244 21.265
8.2396 21.525
8.2547 21.503
8.2699 21.309
8.2851 21.811
8.3003 21.571
8.3154 21.181
8.3306 21.435
8.3458 21.246
8.3610 21.578
8.3761 21.638
8.3913 22.097
8.4065 21.365
8.4217 21.481
8.4368 21.903
8.4520 21.741
8.4672 21.988
8.4824 21.276
8.4975 22.022
8.5127 22.625
8.5279 22.108
8.5431 21.969
8.5582 21.884
8.5734 21.951
8.5886 22.081
8.6038 21.843
8.6189 22.126
8.6341 21.604
8.6493 22.488
8.6645 22.331
8.6796 21.974
8.6948 22.429
8.7100 22.203
8.7252 21.994
8.7403 22.087
8.7555 22.065
8.7707 21.964
8.7859 21.836
8.8010 22.214
8.8162 22.742
8.8314 22.618
8.8466 22.349
8.8617 22.532
8.8769 21.942
8.8921 22.418
8.9073 22.510
8.9224 21.923
8.9376 22.236
8.9528 22.360
8.9680 22.823
8.9831 22.785
8.9983 22.475
9.0135 22.285
9.0287 22.402
9.0438 22.322
9.0590 22.542
9.0742 22.729
9.0894 22.845
9.1045 22.549
9.1197 22.727
9.1349 22.868
9.1501 22.896
9.1652 22.820
9.1804 22.486
9.1956 22.654
9.2108 23.113
9.2259 22.870
9.2411 22.724
9.2563 23.324
9.2715 22.912
9.2866 22.981
9.3018 22.652
9.3170 22.703
9.3322 22.827
9.3473 22.722
9.3625 22.182
9.3777 22.540
9.3929 22.690
9.4080 22.804
9.4232 22.809
9.4384 22.725
9.4536 22.731
9.4687 22.934
9.4839 22.966
9.4991 22.873
9.5143 22.973
9.5294 23.358
9.5446 23.053
9.5598 22.842
9.5750 23.232
9.5901 23.463
9.6053 23.299
9.6205 23.117
9.6357 23.193
9.6508 23.279
9.6660 23.460
9.6812 23.846
9.6964 23.589
9.7115 23.625
9.7267 23.846
9.7419 23.982
9.7571 24.197
9.7722 23.776
9.7874 23.463
9.8026 23.718
9.8178 23.808
9.8329 23.414
9.8481 23.155
9.8633 23.378
9.8785 23.224
9.8936 23.290
9.9088 23.338
9.9240 22.976
9.9392 22.955
9.9543 23.131
9.9695 23.210
9.9847 23.030
9.9999 22.982
10.0150 23.018
10.0302 23.137
10.0454 23.353
10.0606 23.077
10.0757 22.834
10.0909 23.079
10.1061 22.934
10.1213 23.311
10.1364 23.563
10.1516 23.052
10.1668 22.910
10.1820 22.685
10.1971 22.733
10.2123 22.616
10.2275 22.607
10.2427 22.595
10.2578 22.631
10.2730 22.801
10.2882 22.913
10.3034 22.846
10.3185 22.687
10.3337 22.886
10.3489 22.668
10.3641 22.435
10.3792 22.486
10.3944 22.676
10.4096 22.437
10.4248 22.715
10.4399 22.410
10.4551 22.128
10.4703 22.237
10.4855 22.561
10.5006 22.599
10.5158 22.381
10.5310 22.513
10.5462 22.420
10.5613 22.455
10.5765 22.465
10.5917 22.324
10.6069 22.488
10.6220 22.386
10.6372 22.176
10.6524 22.308
10.6676 22.538
10.6827 22.285
10.6979 22.095
10.7131 22.575
10.7283 22.630
10.7434 22.337
10.7586 22.320
10.7738 22.041
10.7890 21.721
10.8041 21.599
10.8193 22.647
10.8345 22.357
10.8497 22.134
10.8648 22.387
10.8800 22.048
10.8952 22.002
10.9104 22.196
10.9255 22.334
10.9407 21.740
10.9559 21.671
10.9711 21.801
10.9862 21.959
11.0014 21.973
11.0166 21.801
11.0318 21.926
11.0469 22.100
11.0621 22.160
11.0773 21.874
11.0925 21.957
11.1076 21.913
11.1228 21.734
11.1380 21.493
11.1532 21.549
11.1683 21.859
11.1835 21.457
11.1987 21.593
11.2139 21.623
11.2290 21.506
11.2442 21.674
11.2594 21.652
11.2746 21.347
11.2897 21.108
11.3049 21.285
11.3201 21.390
11.3353 21.525
11.3504 21.281
11.3656 21.462
11.3808 21.369
11.3960 21.425
11.4111 21.386
11.4263 21.284
11.4415 20.932
11.4567 20.893
11.4718 20.836
11.4870 20.899
11.5022 20.789
11.5174 21.073
11.5325 20.740
11.5477 20.886
11.5629 21.009
11.5781 21.108
11.5932 20.967
11.6084 20.741
11.6236 20.839
11.6388 20.517
11.6539 20.509
11.6691 20.352
11.6843 20.629
11.6995 20.014
11.7146 19.755
11.7298 20.153
11.7450 20.216
11.7602 20.175
11.7753 19.962
11.7905 20.079
11.8057 20.306
11.8209 19.798
11.8360 19.682
11.8512 19.594
11.8664 19.568
11.8816 19.778
11.8967 19.743
11.9119 19.415
11.9271 19.436
11.9423 19.507
11.9574 19.648
11.9726 19.566
11.9878 19.247
12.0030 18.946
12.0181 19.243
12.0333 19.208
12.0485 18.961
12.0637 18.654
12.0788 18.949
12.0940 18.861
12.1092 18.678
12.1244 18.635
12.1395 18.301
12.1547 18.360
12.1699 18.152
12.1851 18.177
12.2002 18.340
12.2154 17.932
12.2306 17.772
12.2458 17.980
12.2609 17.958
12.2761 18.016
12.2913 17.764
12.3065 17.680
12.3216 17.463
12.3368 17.388
12.3520 17.166
12.3672 17.434
12.3823 17.270
12.3975 17.130
12.4127 17.336
12.4279 17.293
12.4430 16.584
12.4582 16.542
12.4734 16.842
12.4886 16.646
12.5037 16.526
12.5189 16.434
12.5341 16.172
12.5493 16.209
12.5644 16.218
12.5796 16.277
12.5948 16.141
12.6100 15.737
12.6251 15.934
12.6403 16.142
12.6555 15.981
12.6707 15.880
12.6858 15.834
12.7010 15.737
12.7162 15.638
12.7314 15.567
12.7465 15.230
12.7617 15.267
12.7769 15.449
12.7921 15.114
12.8072 15.075
12.8224 15.085
12.8376 14.890
12.8528 14.883
12.8679 14.982
12.8831 14.996
12.8983 14.664
12.9135 14.435
12.9286 14.560
12.9438 14.561
12.9590 14.552
12.9742 14.587
12.9893 14.261
13.0045 13.989
13.0197 14.116
13.0349 14.020
13.0500 13.848
13.0652 13.942
13.0804 13.939
13.0956 13.749
13.1107 13.734
13.1259 13.771
13.1411 13.634
13.1563 13.647
13.1714 13.722
13.1866 13.549
13.2018 13.433
13.2170 13.482
13.2321 13.366
13.2473 13.251
13.2625 13.419
13.2777 13.396
13.2928 13.215
13.3080 13.206
13.3232 13.011
13.3384 12.884
13.3535 12.899
13.3687 12.888
13.3839 12.848
13.3991 12.833
13.4142 12.889
13.4294 12.864
13.4446 12.804
13.4598 12.746
13.4749 12.887
13.4901 12.840
13.5053 12.623
13.5205 12.598
13.5356 12.507
13.5508 12.680
13.5660 12.598
13.5812 12.210
13.5963 12.170
13.6115 12.178
13.6267 12.014
13.6419 11.989
13.6570 12.065
13.6722 12.029
13.6874 11.976
13.7026 11.917
13.7177 11.957
13.7329 11.923
13.7481 12.028
13.7633 11.959
13.7784 11.860
13.7936 11.872
13.8088 11.893
13.8239 12.078
13.8391 12.345
13.8543 12.176
13.8695 12.323
13.8846 12.238
13.8998 12.039
13.9150 11.933
13.9302 12.131
13.9453 12.079
13.9605 11.774
13.9757 11.915
13.9909 11.742
14.0060 11.571
14.0212 11.737
14.0364 11.582
14.0516 11.530
14.0667 11.715
14.0819 11.573
14.0971 11.861
14.1123 11.696
14.1274 11.564
14.1426 11.707
14.1578 11.744
14.1730 11.658
14.1881 11.669
14.2033 11.706
14.2185 11.787
14.2337 11.616
14.2488 11.916
14.2640 11.871
14.2792 11.886
14.2944 11.945
14.3095 12.000
14.3247 11.979
14.3399 12.326
14.3551 12.332
14.3702 12.826
14.3854 12.788
14.4006 12.975
14.4158 13.224
14.4309 13.070
14.4461 12.475
14.4613 12.547
14.4765 12.480
14.4916 12.225
14.5068 12.008
14.5220 11.972
14.5372 11.368
14.5523 11.511
14.5675 11.389
14.5827 11.096
14.5979 10.684
14.6130 10.643
14.6282 10.763
14.6434 10.980
14.6586 10.595
14.6737 10.790
14.6889 10.719
14.7041 10.442
14.7193 10.725
14.7344 10.652
14.7496 10.602
14.7648 10.781
14.7800 10.697
14.7951 10.333
14.8103 10.164
14.8255 10.854
14.8407 10.546
14.8558 10.745
14.8710 10.549
14.8862 10.673
14.9014 10.673
14.9165 10.751
14.9317 10.625
14.9469 10.327
14.9621 10.380
14.9772 10.211
14.9924 10.236
15.0076 10.184
15.0228 10.311
15.0379 10.087
15.0531 10.319
15.0683 10.184
15.0835 10.060
15.0986 10.217
15.1138 9.795
15.1290 10.133
15.1442 10.251
15.1593 10.514
15.1745 10.327
15.1897 9.959
15.2049 10.020
15.2200 10.199
15.2352 10.239
15.2504 10.258
15.2656 10.254
15.2807 10.302
15.2959 10.299
15.3111 10.135
15.3263 10.108
15.3414 10.214
15.3566 10.170
15.3718 9.885
15.3870 10.036
15.4021 10.351
15.4173 10.058
15.4325 10.164
15.4477 10.150
15.4628 10.145
15.4780 10.168
15.4932 10.116
15.5084 10.178
15.5235 10.049
15.5387 10.219
15.5539 10.126
15.5691 9.698
15.5842 9.825
15.5994 9.680
15.6146 9.719
15.6298 9.757
15.6449 9.720
15.6601 9.769
15.6753 9.617
15.6905 9.435
15.7056 9.598
15.7208 9.761
15.7360 10.042
15.7512 9.637
15.7663 9.757
15.7815 9.795
15.7967 9.374
15.8119 9.667
15.8270 9.864
15.8422 9.784
15.8574 9.691
15.8726 9.858
15.8877 9.786
15.9029 9.702
15.9181 9.547
15.9333 9.507
15.9484 9.638
15.9636 9.624
15.9788 9.557
15.9940 9.509
16.0091 9.463
16.0243 9.717
16.0395 9.300
16.0547 9.321
16.0698 9.498
16.0850 9.611
16.1002 9.694
16.1154 9.632
16.1305 9.474
16.1457 9.660
16.1609 9.584
16.1761 9.368
16.1912 9.700
16.2064 9.687
16.2216 9.689
16.2368 9.726
16.2519 9.645
16.2671 9.723
16.2823 9.530
16.2975 9.617
16.3126 9.715
16.3278 9.759
16.3430 9.899
16.3582 10.113
16.3733 9.780
16.3885 9.810
16.4037 9.683
16.4189 9.638
16.4340 9.786
16.4492 10.020
16.4644 9.793
16.4796 9.674
16.4947 9.608
16.5099 9.682
16.5251 9.895
16.5403 9.678
16.5554 9.525
16.5706 9.703
16.5858 9.991
16.6010 9.632
16.6161 9.481
16.6313 9.807
16.6465 9.725
16.6617 9.666
16.6768 9.633
16.6920 9.850
16.7072 10.019
16.7224 10.130
16.7375 9.986
16.7527 9.884
16.7679 9.875
16.7831 9.659
16.7982 9.742
16.8134 9.752
16.8286 9.719
16.8438 9.774
16.8589 9.961
16.8741 10.039
16.8893 9.848
16.9045 9.881
16.9196 9.904
16.9348 9.700
16.9500 9.875
16.9652 9.938
16.9803 9.743
16.9955 9.849
17.0107 10.041
17.0259 10.078
17.0410 10.041
17.0562 10.103
17.0714 10.225
17.0866 10.519
17.1017 10.539
17.1169 10.701
17.1321 10.980
17.1473 11.322
17.1624 11.789
17.1776 12.310
17.1928 12.893
17.2080 13.816
17.2231 15.067
17.2383 16.306
17.2535 17.529
17.2687 18.354
17.2838 18.549
17.2990 17.929
17.3142 16.902
17.3294 16.361
17.3445 16.216
17.3597 16.128
17.3749 15.925
17.3901 15.522
17.4052 14.525
17.4204 13.290
17.4356 12.521
17.4508 12.275
17.4659 12.153
17.4811 11.838
17.4963 11.595
17.5115 11.317
17.5266 10.912
17.5418 10.914
17.5570 11.136
17.5722 10.913
17.5873 10.897
17.6025 11.186
17.6177 11.344
17.6329 11.345
17.6480 11.458
17.6632 11.521
17.6784 11.611
17.6936 11.909
17.7087 11.710
17.7239 11.287
17.7391 11.072
17.7543 10.851
17.7694 10.959
17.7846 10.984
17.7998 10.900
17.8150 10.741
17.8301 10.553
17.8453 10.426
17.8605 10.283
17.8757 10.417
17.8908 10.400
17.9060 10.110
17.9212 10.033
17.9364 10.102
17.9515 10.081
17.9667 10.217
17.9819 10.323
17.9971 10.242
18.0122 10.366
18.0274 10.342
18.0426 10.206
18.0578 10.227
18.0729 10.056
18.0881 9.967
18.1033 9.951
18.1185 9.999
18.1336 9.922
18.1488 9.961
18.1640 9.846
18.1792 9.666
18.1943 9.654
18.2095 9.950
18.2247 9.930
18.2399 9.816
18.2550 9.912
18.2702 9.945
18.2854 9.880
18.3006 9.743
18.3157 9.790
18.3309 9.768
18.3461 9.687
18.3613 9.791
18.3764 9.635
18.3916 9.612
18.4068 9.829
18.4220 9.883
18.4371 9.868
18.4523 9.926
18.4675 9.580
18.4827 9.536
18.4978 9.758
18.5130 9.882
18.5282 9.768
18.5434 9.770
18.5585 9.697
18.5737 9.495
18.5889 9.667
18.6041 9.756
18.6192 9.935
18.6344 9.892
18.6496 9.889
18.6648 9.863
18.6799 9.696
18.6951 9.918
18.7103 10.112
18.7255 9.638
18.7406 9.447
18.7558 9.865
18.7710 10.174
18.7862 10.110
18.8013 9.616
18.8165 9.478
18.8317 9.753
18.8469 9.823
18.8620 9.878
18.8772 10.043
18.8924 9.980
18.9076 9.938
18.9227 9.618
18.9379 9.806
18.9531 10.090
18.9683 10.195
18.9834 10.040
18.9986 10.046
19.0138 10.153
19.0290 10.276
19.0441 10.307
19.0593 10.301
19.0745 10.136
19.0897 10.178
19.1048 10.340
19.1200 10.346
19.1352 10.351
19.1504 10.558
19.1655 10.671
19.1807 10.516
19.1959 10.404
19.2111 10.370
19.2262 10.451
19.2414 10.695
19.2566 10.811
19.2718 10.907
19.2869 10.727
19.3021 10.653
19.3173 10.884
19.3325 10.971
19.3476 10.907
19.3628 11.018
19.3780 11.152
19.3932 11.371
19.4083 11.360
19.4235 11.142
19.4387 11.187
19.4539 11.359
19.4690 11.433
19.4842 11.288
19.4994 11.061
19.5146 11.304
19.5297 11.584
19.5449 11.596
19.5601 11.691
19.5753 11.667
19.5904 11.633
19.6056 11.693
19.6208 11.480
19.6360 11.604
19.6511 11.891
19.6663 11.866
19.6815 11.918
19.6967 11.735
19.7118 11.484
19.7270 11.820
19.7422 11.924
19.7574 11.820
19.7725 11.756
19.7877 11.830
19.8029 11.968
19.8180 11.857
19.8332 11.986
19.8484 12.103
19.8636 12.127
19.8787 12.350
19.8939 12.673
19.9091 13.193
19.9243 13.625
19.9394 14.002
19.9546 14.330
19.9698 14.384
19.9850 14.234
20.0001 14.218
20.0153 14.272
20.0305 14.092
20.0457 13.624
20.0608 13.472
20.0760 13.664
20.0912 13.648
20.1064 13.692
20.1215 13.577
20.1367 13.262
20.1519 13.069
20.1671 12.982
20.1822 12.819
20.1974 12.777
20.2126 12.758
20.2278 12.867
20.2429 12.639
20.2581 12.285
20.2733 12.087
20.2885 12.103
20.3036 11.797
20.3188 11.837
20.3340 11.951
20.3492 11.874
20.3643 11.607
20.3795 11.623
20.3947 11.891
20.4099 12.175
20.4250 11.804
20.4402 11.648
20.4554 11.865
20.4706 12.160
20.4857 12.057
20.5009 11.637
20.5161 11.616
20.5313 11.415
20.5464 11.328
20.5616 11.307
20.5768 11.018
20.5920 11.012
20.6071 11.164
20.6223 10.973
20.6375 10.833
20.6527 10.663
20.6678 10.461
20.6830 10.449
20.6982 10.343
20.7134 10.292
20.7285 10.253
20.7437 10.397
20.7589 10.398
20.7741 10.237
20.7892 10.264
20.8044 10.145
20.8196 10.257
20.8348 9.903
20.8499 10.063
20.8651 10.105
20.8803 10.164
20.8955 10.463
20.9106 10.368
20.9258 10.021
20.9410 10.206
20.9562 10.427
20.9713 10.194
20.9865 10.217
21.0017 10.096
21.0169 9.858
21.0320 10.111
21.0472 9.724
21.0624 9.845
21.0776 9.905
21.0927 9.554
21.1079 10.341
21.1231 9.855
21.1383 9.478
21.1534 10.082
21.1686 9.626
21.1838 9.755
21.1990 9.655
21.2141 9.453
21.2293 9.732
21.2445 9.904
21.2597 9.733
21.2748 9.567
21.2900 9.945
21.3052 9.721
21.3204 9.917
21.3355 9.417
21.3507 9.805
21.3659 9.617
21.3811 9.557
21.3962 9.419
21.4114 9.447
21.4266 9.470
21.4418 9.581
21.4569 9.629
21.4721 9.622
21.4873 9.488
21.5025 9.463
21.5176 9.374
21.5328 9.359
21.5480 9.516
21.5632 9.532
21.5783 9.576
21.5935 9.379
21.6087 9.379
21.6239 8.997
21.6390 8.868
21.6542 8.952
21.6694 8.924
21.6846 9.086
21.6997 9.223
21.7149 9.078
21.7301 8.818
21.7453 8.648
21.7604 8.792
21.7756 9.061
21.7908 8.976
21.8060 9.130
21.8211 9.202
21.8363 9.168
21.8515 9.047
21.8667 8.813
21.8818 8.984
21.8970 8.905
21.9122 8.846
21.9274 9.132
21.9425 9.120
21.9577 8.991
21.9729 8.973
21.9881 8.804
22.0032 8.720
22.0184 8.720
22.0336 8.741
22.0488 8.839
22.0639 8.831
22.0791 8.762
22.0943 8.760
22.1095 8.572
22.1246 8.702
22.1398 8.605
22.1550 8.539
22.1702 8.541
22.1853 8.617
22.2005 8.644
22.2157 8.682
22.2309 8.480
22.2460 8.411
22.2612 8.436
22.2764 8.562
22.2916 8.580
22.3067 8.593
22.3219 8.441
22.3371 8.328
22.3523 8.550
22.3674 8.583
22.3826 8.444
22.3978 8.436
22.4130 8.495
22.4281 8.437
22.4433 8.626
22.4585 8.331
22.4737 8.256
22.4888 8.566
22.5040 8.292
22.5192 8.380
22.5344 8.467
22.5495 8.499
22.5647 8.270
22.5799 8.329
22.5951 8.166
22.6102 8.498
22.6254 8.275
22.6406 8.696
22.6558 8.367
22.6709 8.612
22.6861 8.339
22.7013 8.431
22.7165 7.744
22.7316 6.340
