'Id: "" Comment: "" Operator: "Lab Manager" Anode: "Mo" Scantype: "Still (Eiger2R_500K (1D mode))" TimePerStep: "300" X: "11.8" Y: "9.4" Z: "11.284" 
7.2532 18.529
7.2684 18.640
7.2836 18.996
7.2987 18.589
7.3139 18.919
7.3291 19.068
7.3443 19.136
7.3594 19.165
7.3746 19.505
7.3898 19.414
7.4050 19.103
7.4201 19.392
7.4353 19.336
7.4505 19.327
7.4657 19.066
7.4808 19.496
7.4960 19.727
7.5112 19.781
7.5264 19.544
7.5415 19.713
7.5567 19.657
7.5719 20.087
7.5871 20.167
7.6022 19.982
7.6174 20.014
7.6326 19.872
7.6478 19.902
7.6629 19.694
7.6781 19.955
7.6933 20.144
7.7085 20.064
7.7236 20.337
7.7388 20.228
7.7540 20.127
7.7692 20.471
7.7843 20.637
7.7995 20.495
7.8147 20.438
7.8299 20.389
7.8450 20.338
7.8602 20.432
7.8754 20.720
7.8905 20.820
7.9057 20.463
7.9209 20.551
7.9361 20.714
7.9512 20.678
7.9664 20.830
7.9816 20.694
7.9968 20.631
8.0119 20.890
8.0271 21.266
8.0423 21.232
8.0575 21.209
8.0726 21.440
8.0878 21.216
8.1030 21.143
8.1182 21.231
8.1333 21.383
8.1485 21.634
8.1637 21.481
8.1789 21.358
8.1940 21.349
8.2092 21.656
8.2244 21.531
8.2396 21.242
8.2547 21.402
8.2699 21.768
8.2851 21.775
8.3003 21.831
8.3154 21.180
8.3306 21.464
8.3458 21.420
8.3610 21.694
8.3761 21.566
8.3913 21.685
8.4065 21.573
8.4217 21.718
8.4368 21.811
8.4520 21.569
8.4672 21.754
8.4824 21.992
8.4975 21.963
8.5127 21.820
8.5279 22.097
8.5431 21.792
8.5582 22.073
8.5734 21.984
8.5886 22.200
8.6038 21.586
8.6189 22.046
8.6341 22.367
8.6493 22.186
8.6645 21.728
8.6796 22.677
8.6948 22.006
8.7100 22.629
8.7252 22.132
8.7403 22.028
8.7555 22.332
8.7707 22.224
8.7859 22.331
8.8010 21.936
8.8162 22.784
8.8314 22.168
8.8466 22.424
8.8617 22.326
8.8769 22.500
8.8921 22.460
8.9073 22.265
8.9224 22.852
8.9376 22.601
8.9528 22.710
8.9680 22.637
8.9831 22.073
8.9983 22.319
9.0135 22.733
9.0287 22.751
9.0438 22.613
9.0590 22.366
9.0742 22.794
9.0894 23.097
9.1045 22.613
9.1197 22.965
9.1349 22.957
9.1501 22.742
9.1652 22.874
9.1804 22.787
9.1956 22.770
9.2108 22.473
9.2259 22.478
9.2411 22.721
9.2563 22.774
9.2715 22.885
9.2866 22.896
9.3018 22.939
9.3170 22.810
9.3322 22.582
9.3473 22.440
9.3625 22.715
9.3777 23.102
9.3929 22.987
9.4080 23.203
9.4232 23.274
9.4384 23.260
9.4536 23.090
9.4687 23.388
9.4839 23.357
9.4991 22.835
9.5143 23.020
9.5294 22.910
9.5446 22.755
9.5598 22.980
9.5750 23.335
9.5901 23.207
9.6053 23.007
9.6205 23.135
9.6357 23.195
9.6508 23.411
9.6660 23.412
9.6812 23.242
9.6964 23.218
9.7115 23.556
9.7267 23.808
9.7419 23.837
9.7571 23.765
9.7722 23.292
9.7874 23.427
9.8026 23.558
9.8178 23.601
9.8329 23.403
9.8481 23.041
9.8633 23.032
9.8785 22.924
9.8936 23.095
9.9088 23.270
9.9240 23.217
9.9392 23.048
9.9543 22.935
9.9695 22.941
9.9847 23.062
9.9999 23.088
10.0150 23.237
10.0302 23.339
10.0454 23.327
10.0606 22.962
10.0757 22.925
10.0909 22.862
10.1061 23.049
10.1213 23.372
10.1364 23.385
10.1516 23.047
10.1668 23.189
10.1820 23.015
10.1971 22.892
10.2123 22.922
10.2275 22.936
10.2427 23.018
10.2578 23.188
10.2730 22.698
10.2882 22.474
10.3034 23.037
10.3185 23.202
10.3337 23.222
10.3489 22.672
10.3641 22.373
10.3792 22.631
10.3944 22.994
10.4096 22.653
10.4248 22.369
10.4399 22.616
10.4551 22.413
10.4703 22.208
10.4855 22.608
10.5006 22.940
10.5158 23.003
10.5310 22.724
10.5462 22.318
10.5613 22.270
10.5765 22.349
10.5917 22.235
10.6069 22.151
10.6220 22.450
10.6372 22.256
10.6524 22.342
10.6676 22.360
10.6827 22.342
10.6979 22.168
10.7131 22.388
10.7283 22.354
10.7434 22.357
10.7586 22.101
10.7738 22.161
10.7890 22.423
10.8041 22.350
10.8193 22.186
10.8345 22.081
10.8497 22.454
10.8648 22.419
10.8800 21.739
10.8952 21.686
10.9104 21.672
10.9255 22.187
10.9407 21.856
10.9559 21.789
10.9711 22.082
10.9862 21.892
11.0014 21.629
11.0166 21.993
11.0318 21.744
11.0469 21.662
11.0621 21.920
11.0773 21.683
11.0925 21.678
11.1076 21.766
11.1228 21.524
11.1380 21.625
11.1532 21.641
11.1683 21.621
11.1835 21.450
11.1987 21.588
11.2139 21.269
11.2290 21.534
11.2442 21.710
11.2594 21.645
11.2746 21.358
11.2897 21.895
11.3049 21.561
11.3201 21.079
11.3353 21.291
11.3504 21.514
11.3656 21.428
11.3808 21.281
11.3960 21.149
11.4111 21.013
11.4263 21.227
11.4415 21.422
11.4567 21.298
11.4718 21.332
11.4870 21.112
11.5022 20.886
11.5174 20.993
11.5325 21.163
11.5477 21.318
11.5629 20.934
11.5781 20.929
11.5932 20.680
11.6084 20.404
11.6236 20.989
11.6388 20.673
11.6539 20.478
11.6691 20.600
11.6843 20.653
11.6995 20.970
11.7146 20.498
11.7298 20.193
11.7450 20.304
11.7602 19.942
11.7753 20.171
11.7905 20.413
11.8057 20.166
11.8209 20.042
11.8360 19.807
11.8512 19.753
11.8664 19.806
11.8816 20.116
11.8967 19.944
11.9119 19.490
11.9271 19.495
11.9423 19.358
11.9574 19.062
11.9726 19.043
11.9878 19.058
12.0030 19.040
12.0181 18.958
12.0333 18.967
12.0485 18.784
12.0637 18.918
12.0788 18.757
12.0940 18.839
12.1092 18.690
12.1244 18.658
12.1395 18.704
12.1547 18.758
12.1699 18.290
12.1851 17.980
12.2002 18.222
12.2154 18.309
12.2306 18.122
12.2458 17.894
12.2609 17.955
12.2761 17.953
12.2913 17.690
12.3065 17.438
12.3216 17.643
12.3368 17.427
12.3520 17.079
12.3672 17.310
12.3823 17.143
12.3975 17.067
12.4127 17.329
12.4279 17.251
12.4430 17.029
12.4582 16.647
12.4734 16.610
12.4886 16.879
12.5037 16.924
12.5189 16.588
12.5341 16.581
12.5493 16.536
12.5644 16.413
12.5796 16.323
12.5948 16.234
12.6100 16.002
12.6251 15.844
12.6403 16.064
12.6555 16.010
12.6707 15.931
12.6858 15.935
12.7010 15.614
12.7162 15.366
12.7314 15.293
12.7465 15.183
12.7617 15.076
12.7769 15.060
12.7921 15.142
12.8072 14.955
12.8224 14.830
12.8376 14.942
12.8528 15.022
12.8679 14.652
12.8831 14.454
12.8983 14.737
12.9135 14.794
12.9286 14.615
12.9438 14.433
12.9590 14.511
12.9742 14.494
12.9893 14.310
13.0045 14.257
13.0197 14.246
13.0349 14.197
13.0500 13.916
13.0652 13.859
13.0804 14.166
13.0956 14.419
13.1107 13.965
13.1259 13.492
13.1411 13.604
13.1563 13.771
13.1714 13.655
13.1866 13.536
13.2018 13.512
13.2170 13.401
13.2321 13.442
13.2473 13.388
13.2625 13.279
13.2777 13.280
13.2928 13.215
13.3080 12.917
13.3232 12.852
13.3384 13.078
13.3535 13.212
13.3687 13.216
13.3839 13.210
13.3991 13.044
13.4142 12.718
13.4294 12.641
13.4446 12.858
13.4598 12.707
13.4749 12.509
13.4901 12.708
13.5053 12.759
13.5205 12.654
13.5356 12.675
13.5508 12.588
13.5660 12.445
13.5812 12.275
13.5963 12.259
13.6115 12.233
13.6267 12.074
13.6419 12.142
13.6570 12.183
13.6722 12.123
13.6874 12.002
13.7026 11.874
13.7177 11.911
13.7329 11.834
13.7481 11.889
13.7633 11.993
13.7784 12.059
13.7936 12.148
13.8088 12.266
13.8239 12.296
13.8391 12.424
13.8543 12.304
13.8695 12.368
13.8846 12.371
13.8998 12.072
13.9150 11.990
13.9302 12.122
13.9453 12.214
13.9605 11.968
13.9757 11.690
13.9909 11.698
14.0060 11.607
14.0212 11.657
14.0364 11.754
14.0516 11.788
14.0667 11.532
14.0819 11.615
14.0971 11.624
14.1123 11.753
14.1274 11.690
14.1426 11.668
14.1578 11.757
14.1730 11.960
14.1881 11.875
14.2033 11.915
14.2185 11.542
14.2337 11.830
14.2488 12.165
14.2640 12.156
14.2792 12.018
14.2944 12.064
14.3095 12.080
14.3247 12.224
14.3399 12.189
14.3551 12.574
14.3702 12.813
14.3854 12.805
14.4006 12.807
14.4158 13.003
14.4309 13.108
14.4461 13.022
14.4613 12.726
14.4765 12.411
14.4916 12.247
14.5068 12.055
14.5220 11.961
14.5372 11.774
14.5523 11.380
14.5675 11.191
14.5827 11.093
14.5979 10.929
14.6130 10.951
14.6282 10.835
14.6434 10.762
14.6586 10.878
14.6737 10.713
14.6889 10.635
14.7041 10.652
14.7193 10.629
14.7344 10.164
14.7496 10.647
14.7648 10.523
14.7800 10.584
14.7951 10.401
14.8103 10.636
14.8255 10.303
14.8407 10.709
14.8558 10.505
14.8710 10.450
14.8862 10.522
14.9014 10.448
14.9165 10.617
14.9317 10.636
14.9469 10.862
14.9621 10.678
14.9772 10.090
14.9924 10.246
15.0076 10.341
15.0228 10.360
15.0379 10.269
15.0531 10.411
15.0683 10.251
15.0835 10.042
15.0986 10.406
15.1138 10.321
15.1290 10.091
15.1442 10.442
15.1593 10.125
15.1745 10.168
15.1897 10.444
15.2049 10.032
15.2200 10.223
15.2352 9.787
15.2504 10.240
15.2656 10.384
15.2807 10.163
15.2959 10.079
15.3111 9.887
15.3263 9.921
15.3414 10.095
15.3566 9.929
15.3718 10.420
15.3870 9.909
15.4021 10.081
15.4173 10.121
15.4325 10.107
15.4477 10.130
15.4628 10.039
15.4780 10.317
15.4932 10.191
15.5084 9.911
15.5235 9.803
15.5387 10.212
15.5539 10.034
15.5691 9.902
15.5842 9.992
15.5994 9.984
15.6146 9.952
15.6298 9.872
15.6449 10.073
15.6601 9.887
15.6753 9.955
15.6905 9.875
15.7056 9.707
15.7208 9.558
15.7360 9.554
15.7512 9.661
15.7663 9.820
15.7815 9.409
15.7967 9.780
15.8119 9.784
15.8270 9.434
15.8422 9.578
15.8574 9.998
15.8726 9.662
15.8877 9.454
15.9029 9.658
15.9181 9.747
15.9333 9.856
15.9484 9.799
15.9636 9.692
15.9788 9.605
15.9940 9.600
16.0091 9.994
16.0243 9.523
16.0395 9.619
16.0547 9.490
16.0698 9.592
16.0850 9.652
16.1002 9.679
16.1154 9.653
16.1305 9.569
16.1457 9.413
16.1609 9.471
16.1761 9.891
16.1912 9.641
16.2064 9.846
16.2216 9.576
16.2368 9.681
16.2519 9.599
16.2671 9.669
16.2823 9.693
16.2975 9.682
16.3126 9.706
16.3278 9.662
16.3430 9.489
16.3582 9.606
16.3733 9.730
16.3885 9.809
16.4037 9.605
16.4189 9.726
16.4340 9.779
16.4492 9.788
16.4644 9.795
16.4796 9.803
16.4947 9.769
16.5099 9.918
16.5251 9.814
16.5403 9.659
16.5554 9.581
16.5706 9.877
16.5858 9.829
16.6010 9.659
16.6161 9.674
16.6313 9.588
16.6465 9.635
16.6617 9.874
16.6768 10.078
16.6920 9.897
16.7072 9.995
16.7224 9.910
16.7375 10.071
16.7527 9.908
16.7679 9.903
16.7831 10.174
16.7982 9.955
16.8134 9.811
16.8286 9.894
16.8438 9.862
16.8589 9.817
16.8741 9.684
16.8893 9.715
16.9045 10.169
16.9196 10.108
16.9348 9.851
16.9500 9.589
16.9652 9.309
16.9803 9.503
16.9955 9.729
17.0107 9.606
17.0259 9.599
17.0410 9.826
17.0562 10.112
17.0714 10.249
17.0866 10.378
17.1017 10.602
17.1169 10.884
17.1321 10.910
17.1473 11.302
17.1624 11.702
17.1776 12.135
17.1928 12.854
17.2080 13.779
17.2231 14.927
17.2383 16.226
17.2535 17.520
17.2687 18.661
17.2838 18.624
17.2990 17.801
17.3142 17.072
17.3294 16.186
17.3445 16.058
17.3597 16.202
17.3749 15.911
17.3901 15.224
17.4052 14.142
17.4204 13.256
17.4356 12.407
17.4508 11.960
17.4659 11.942
17.4811 11.564
17.4963 11.318
17.5115 11.274
17.5266 11.190
17.5418 11.089
17.5570 10.987
17.5722 11.041
17.5873 11.040
17.6025 10.942
17.6177 11.033
17.6329 11.072
17.6480 11.134
17.6632 11.369
17.6784 11.315
17.6936 11.413
17.7087 11.455
17.7239 11.112
17.7391 10.808
17.7543 10.974
17.7694 11.231
17.7846 10.933
17.7998 10.816
17.8150 10.843
17.8301 10.597
17.8453 10.468
17.8605 10.122
17.8757 10.121
17.8908 10.485
17.9060 10.491
17.9212 10.328
17.9364 10.131
17.9515 9.966
17.9667 10.110
17.9819 10.123
17.9971 10.123
18.0122 10.157
18.0274 10.009
18.0426 10.018
18.0578 10.208
18.0729 10.026
18.0881 9.841
18.1033 9.814
18.1185 9.731
18.1336 9.759
18.1488 9.864
18.1640 9.936
18.1792 10.048
18.1943 10.007
18.2095 9.985
18.2247 10.014
18.2399 9.875
18.2550 9.910
18.2702 9.905
18.2854 9.864
18.3006 9.780
18.3157 9.755
18.3309 9.767
18.3461 9.643
18.3613 9.647
18.3764 9.727
18.3916 9.692
18.4068 9.789
18.4220 9.778
18.4371 9.680
18.4523 9.574
18.4675 9.844
18.4827 9.856
18.4978 9.788
18.5130 9.891
18.5282 9.895
18.5434 9.904
18.5585 9.760
18.5737 10.019
18.5889 10.040
18.6041 9.665
18.6192 9.631
18.6344 9.723
18.6496 9.714
18.6648 9.831
18.6799 9.722
18.6951 9.600
18.7103 9.797
18.7255 9.857
18.7406 9.634
18.7558 9.556
18.7710 9.602
18.7862 9.681
18.8013 9.689
18.8165 9.575
18.8317 9.581
18.8469 9.819
18.8620 9.946
18.8772 9.748
18.8924 9.663
18.9076 9.831
18.9227 10.023
18.9379 9.923
18.9531 10.089
18.9683 10.098
18.9834 10.030
18.9986 9.852
19.0138 9.882
19.0290 9.845
19.0441 9.991
19.0593 10.145
19.0745 9.942
19.0897 10.202
19.1048 10.406
19.1200 10.356
19.1352 10.364
19.1504 10.664
19.1655 10.637
19.1807 10.441
19.1959 10.528
19.2111 10.549
19.2262 10.553
19.2414 10.595
19.2566 10.640
19.2718 10.597
19.2869 10.800
19.3021 10.945
19.3173 10.884
19.3325 10.818
19.3476 11.017
19.3628 11.112
19.3780 11.032
19.3932 11.011
19.4083 11.073
19.4235 11.292
19.4387 11.541
19.4539 11.223
19.4690 11.112
19.4842 11.085
19.4994 11.099
19.5146 11.398
19.5297 11.438
19.5449 11.219
19.5601 11.293
19.5753 11.365
19.5904 11.390
19.6056 11.520
19.6208 11.615
19.6360 11.817
19.6511 11.951
19.6663 11.693
19.6815 11.489
19.6967 11.642
19.7118 11.801
19.7270 12.018
19.7422 12.098
19.7574 11.959
19.7725 11.678
19.7877 11.583
19.8029 11.765
19.8180 12.017
19.8332 12.120
19.8484 12.179
19.8636 12.404
19.8787 12.723
19.8939 12.873
19.9091 13.206
19.9243 13.441
19.9394 13.330
19.9546 13.690
19.9698 14.262
19.9850 14.375
20.0001 14.269
20.0153 14.266
20.0305 13.907
20.0457 13.800
20.0608 13.859
20.0760 13.682
20.0912 13.587
20.1064 13.498
20.1215 13.392
20.1367 13.395
20.1519 12.935
20.1671 12.772
20.1822 12.914
20.1974 12.868
20.2126 12.793
20.2278 12.626
20.2429 12.388
20.2581 12.270
20.2733 12.374
20.2885 12.053
20.3036 11.873
20.3188 11.911
20.3340 11.939
20.3492 11.959
20.3643 11.874
20.3795 11.786
20.3947 11.859
20.4099 12.011
20.4250 12.157
20.4402 11.982
20.4554 11.794
20.4706 11.944
20.4857 11.751
20.5009 11.700
20.5161 11.323
20.5313 11.592
20.5464 11.620
20.5616 11.550
20.5768 11.297
20.5920 11.241
20.6071 11.120
20.6223 10.913
20.6375 10.822
20.6527 10.501
20.6678 10.578
20.6830 10.657
20.6982 10.353
20.7134 10.275
20.7285 10.548
20.7437 10.396
20.7589 10.300
20.7741 10.257
20.7892 10.156
20.8044 10.323
20.8196 10.267
20.8348 10.337
20.8499 10.310
20.8651 10.233
20.8803 10.176
20.8955 10.018
20.9106 10.271
20.9258 9.970
20.9410 9.911
20.9562 10.033
20.9713 10.075
20.9865 10.254
21.0017 10.202
21.0169 9.794
21.0320 10.168
21.0472 9.918
21.0624 9.992
21.0776 9.971
21.0927 9.862
21.1079 9.972
21.1231 9.790
21.1383 9.818
21.1534 9.911
21.1686 9.528
21.1838 9.704
21.1990 9.915
21.2141 9.742
21.2293 9.648
21.2445 9.704
21.2597 10.009
21.2748 9.759
21.2900 9.535
21.3052 9.643
21.3204 9.542
21.3355 9.425
21.3507 9.319
21.3659 9.691
21.3811 9.521
21.3962 9.481
21.4114 9.459
21.4266 9.642
21.4418 9.169
21.4569 9.280
21.4721 9.018
21.4873 9.076
21.5025 9.075
21.5176 9.174
21.5328 9.049
21.5480 9.408
21.5632 9.557
21.5783 9.251
21.5935 9.232
21.6087 9.045
21.6239 8.870
21.6390 8.822
21.6542 8.994
21.6694 9.143
21.6846 9.180
21.6997 9.133
21.7149 9.161
21.7301 9.128
21.7453 9.106
21.7604 9.067
21.7756 9.230
21.7908 9.161
21.8060 9.137
21.8211 9.133
21.8363 9.002
21.8515 8.898
21.8667 8.857
21.8818 8.709
21.8970 8.848
21.9122 8.956
21.9274 8.846
21.9425 8.792
21.9577 8.852
21.9729 8.739
21.9881 8.740
22.0032 8.735
22.0184 8.778
22.0336 8.933
22.0488 9.040
22.0639 8.806
22.0791 8.757
22.0943 8.672
22.1095 8.477
22.1246 8.659
22.1398 8.752
22.1550 8.984
22.1702 8.837
22.1853 8.550
22.2005 8.459
22.2157 8.626
22.2309 8.617
22.2460 8.503
22.2612 8.698
22.2764 8.796
22.2916 8.635
22.3067 8.854
22.3219 8.601
22.3371 8.598
22.3523 8.626
22.3674 8.766
22.3826 8.367
22.3978 8.487
22.4130 8.265
22.4281 8.179
22.4433 8.127
22.4585 8.207
22.4737 8.634
22.4888 8.411
22.5040 8.715
22.5192 8.242
22.5344 8.279
22.5495 8.251
22.5647 8.527
22.5799 8.359
22.5951 8.639
22.6102 8.470
22.6254 8.224
22.6406 8.314
22.6558 8.394
22.6709 8.282
22.6861 8.393
22.7013 8.286
22.7165 7.897
22.7316 6.417
