'Id: "" Comment: "" Operator: "Lab Manager" Anode: "Mo" Scantype: "Still (Eiger2R_500K (1D mode))" TimePerStep: "300" X: "11.8" Y: "9.4" Z: "11.284" 
7.2532 18.697
7.2684 19.055
7.2836 18.725
7.2987 19.019
7.3139 18.776
7.3291 18.841
7.3443 19.109
7.3594 19.091
7.3746 19.553
7.3898 19.202
7.4050 19.209
7.4201 19.632
7.4353 19.550
7.4505 19.467
7.4657 19.415
7.4808 19.583
7.4960 19.892
7.5112 19.451
7.5264 19.718
7.5415 20.068
7.5567 19.885
7.5719 20.101
7.5871 20.139
7.6022 20.039
7.6174 19.861
7.6326 19.999
7.6478 20.356
7.6629 20.365
7.6781 19.999
7.6933 20.214
7.7085 20.530
7.7236 20.485
7.7388 20.327
7.7540 20.636
7.7692 20.739
7.7843 20.425
7.7995 20.553
7.8147 20.483
7.8299 20.435
7.8450 20.663
7.8602 20.841
7.8754 20.936
7.8905 21.094
7.9057 21.080
7.9209 21.186
7.9361 21.314
7.9512 21.157
7.9664 21.014
7.9816 21.205
7.9968 21.156
8.0119 21.253
8.0271 21.196
8.0423 20.860
8.0575 20.854
8.0726 21.212
8.0878 21.597
8.1030 21.386
8.1182 21.350
8.1333 21.454
8.1485 22.141
8.1637 21.771
8.1789 21.310
8.1940 21.453
8.2092 21.938
8.2244 21.832
8.2396 21.389
8.2547 21.491
8.2699 21.529
8.2851 21.614
8.3003 21.791
8.3154 21.742
8.3306 21.704
8.3458 21.665
8.3610 22.298
8.3761 21.861
8.3913 21.786
8.4065 22.168
8.4217 21.809
8.4368 21.969
8.4520 22.180
8.4672 22.419
8.4824 21.805
8.4975 21.641
8.5127 22.038
8.5279 22.452
8.5431 22.017
8.5582 22.285
8.5734 21.925
8.5886 22.433
8.6038 22.142
8.6189 22.312
8.6341 22.162
8.6493 22.443
8.6645 22.823
8.6796 22.885
8.6948 22.588
8.7100 22.322
8.7252 22.810
8.7403 22.692
8.7555 22.533
8.7707 22.748
8.7859 23.020
8.8010 22.421
8.8162 22.368
8.8314 22.392
8.8466 22.939
8.8617 22.778
8.8769 22.660
8.8921 22.872
8.9073 22.641
8.9224 23.058
8.9376 22.467
8.9528 22.668
8.9680 22.841
8.9831 22.779
8.9983 22.363
9.0135 22.806
9.0287 23.057
9.0438 22.888
9.0590 22.630
9.0742 22.856
9.0894 23.104
9.1045 22.865
9.1197 22.944
9.1349 23.176
9.1501 22.846
9.1652 22.871
9.1804 22.895
9.1956 23.062
9.2108 22.945
9.2259 22.948
9.2411 23.075
9.2563 22.884
9.2715 22.929
9.2866 22.916
9.3018 22.908
9.3170 23.154
9.3322 22.955
9.3473 22.962
9.3625 23.210
9.3777 23.079
9.3929 22.851
9.4080 23.222
9.4232 23.204
9.4384 23.149
9.4536 23.275
9.4687 23.274
9.4839 23.054
9.4991 23.173
9.5143 23.330
9.5294 23.589
9.5446 23.374
9.5598 23.298
9.5750 23.448
9.5901 23.474
9.6053 23.819
9.6205 23.368
9.6357 23.084
9.6508 23.435
9.6660 23.772
9.6812 23.950
9.6964 23.888
9.7115 23.820
9.7267 23.821
9.7419 23.861
9.7571 24.270
9.7722 24.022
9.7874 23.768
9.8026 23.734
9.8178 23.590
9.8329 23.357
9.8481 23.536
9.8633 23.638
9.8785 23.641
9.8936 23.739
9.9088 23.769
9.9240 23.624
9.9392 23.357
9.9543 23.436
9.9695 23.392
9.9847 23.555
9.9999 23.721
10.0150 23.489
10.0302 23.414
10.0454 23.504
10.0606 23.584
10.0757 23.353
10.0909 22.968
10.1061 23.228
10.1213 23.354
10.1364 23.192
10.1516 23.059
10.1668 23.239
10.1820 23.246
10.1971 23.197
10.2123 23.407
10.2275 23.771
10.2427 24.146
10.2578 23.822
10.2730 23.520
10.2882 23.344
10.3034 23.526
10.3185 23.234
10.3337 22.988
10.3489 23.672
10.3641 23.300
10.3792 23.070
10.3944 23.112
10.4096 22.587
10.4248 22.803
10.4399 23.173
10.4551 22.835
10.4703 22.914
10.4855 22.936
10.5006 22.773
10.5158 22.718
10.5310 22.797
10.5462 22.672
10.5613 22.484
10.5765 22.574
10.5917 22.661
10.6069 22.520
10.6220 22.738
10.6372 22.807
10.6524 22.837
10.6676 22.522
10.6827 22.753
10.6979 22.554
10.7131 22.677
10.7283 22.667
10.7434 22.746
10.7586 22.599
10.7738 22.492
10.7890 22.277
10.8041 22.428
10.8193 22.590
10.8345 22.103
10.8497 22.239
10.8648 22.357
10.8800 22.279
10.8952 22.212
10.9104 21.940
10.9255 22.046
10.9407 22.230
10.9559 22.134
10.9711 21.908
10.9862 22.123
11.0014 22.231
11.0166 22.206
11.0318 22.278
11.0469 22.099
11.0621 22.026
11.0773 22.253
11.0925 22.253
11.1076 22.027
11.1228 21.744
11.1380 21.726
11.1532 21.558
11.1683 21.490
11.1835 21.783
11.1987 21.923
11.2139 22.304
11.2290 22.668
11.2442 22.311
11.2594 22.098
11.2746 22.136
11.2897 22.110
11.3049 21.865
11.3201 21.977
11.3353 21.641
11.3504 21.845
11.3656 21.775
11.3808 21.705
11.3960 21.648
11.4111 21.418
11.4263 21.703
11.4415 21.697
11.4567 21.324
11.4718 21.488
11.4870 21.722
11.5022 21.471
11.5174 20.844
11.5325 20.880
11.5477 20.911
11.5629 20.827
11.5781 20.926
11.5932 20.998
11.6084 20.722
11.6236 20.447
11.6388 20.555
11.6539 21.211
11.6691 20.783
11.6843 20.527
11.6995 20.581
11.7146 20.480
11.7298 20.675
11.7450 20.611
11.7602 20.975
11.7753 20.330
11.7905 19.994
11.8057 20.451
11.8209 19.992
11.8360 19.908
11.8512 20.000
11.8664 20.180
11.8816 19.946
11.8967 19.762
11.9119 19.738
11.9271 19.817
11.9423 19.660
11.9574 19.501
11.9726 19.400
11.9878 19.165
12.0030 19.533
12.0181 19.372
12.0333 19.467
12.0485 19.238
12.0637 18.981
12.0788 19.067
12.0940 19.009
12.1092 18.948
12.1244 18.875
12.1395 18.801
12.1547 18.645
12.1699 18.703
12.1851 18.655
12.2002 18.183
12.2154 18.262
12.2306 18.164
12.2458 18.268
12.2609 18.268
12.2761 18.331
12.2913 17.834
12.3065 17.727
12.3216 18.125
12.3368 17.775
12.3520 17.655
12.3672 17.648
12.3823 17.462
12.3975 17.382
12.4127 17.479
12.4279 17.330
12.4430 16.864
12.4582 16.846
12.4734 17.206
12.4886 17.082
12.5037 17.204
12.5189 16.911
12.5341 16.730
12.5493 16.608
12.5644 16.344
12.5796 16.466
12.5948 16.622
12.6100 16.387
12.6251 16.271
12.6403 16.442
12.6555 16.277
12.6707 16.027
12.6858 15.933
12.7010 15.859
12.7162 15.885
12.7314 15.766
12.7465 15.677
12.7617 15.616
12.7769 15.412
12.7921 15.252
12.8072 15.105
12.8224 14.925
12.8376 15.015
12.8528 15.075
12.8679 14.951
12.8831 15.029
12.8983 15.059
12.9135 14.902
12.9286 14.707
12.9438 14.724
12.9590 14.718
12.9742 14.561
12.9893 14.572
13.0045 14.686
13.0197 14.472
13.0349 14.043
13.0500 14.001
13.0652 14.320
13.0804 14.282
13.0956 13.970
13.1107 13.791
13.1259 13.656
13.1411 13.840
13.1563 14.012
13.1714 14.054
13.1866 14.043
13.2018 13.950
13.2170 13.540
13.2321 13.397
13.2473 13.597
13.2625 13.362
13.2777 13.212
13.2928 13.199
13.3080 13.331
13.3232 13.396
13.3384 13.496
13.3535 13.300
13.3687 12.974
13.3839 12.954
13.3991 13.005
13.4142 13.079
13.4294 12.698
13.4446 12.666
13.4598 12.888
13.4749 12.745
13.4901 12.689
13.5053 12.356
13.5205 12.494
13.5356 12.597
13.5508 12.478
13.5660 12.443
13.5812 12.318
13.5963 12.325
13.6115 12.421
13.6267 12.279
13.6419 12.246
13.6570 12.293
13.6722 12.307
13.6874 12.179
13.7026 12.066
13.7177 12.155
13.7329 12.239
13.7481 12.140
13.7633 12.012
13.7784 12.318
13.7936 12.403
13.8088 12.208
13.8239 12.326
13.8391 12.457
13.8543 12.381
13.8695 12.298
13.8846 11.938
13.8998 12.041
13.9150 12.207
13.9302 12.393
13.9453 12.192
13.9605 11.694
13.9757 11.780
13.9909 11.658
14.0060 11.752
14.0212 11.695
14.0364 11.658
14.0516 11.629
14.0667 11.744
14.0819 11.575
14.0971 11.653
14.1123 11.627
14.1274 11.526
14.1426 11.532
14.1578 11.505
14.1730 11.459
14.1881 11.496
14.2033 11.754
14.2185 11.665
14.2337 11.810
14.2488 11.852
14.2640 12.047
14.2792 11.815
14.2944 11.832
14.3095 12.132
14.3247 12.156
14.3399 12.318
14.3551 12.407
14.3702 12.542
14.3854 13.144
14.4006 13.071
14.4158 12.626
14.4309 12.560
14.4461 12.415
14.4613 12.484
14.4765 12.235
14.4916 12.187
14.5068 11.788
14.5220 11.601
14.5372 11.597
14.5523 11.185
14.5675 11.048
14.5827 11.467
14.5979 11.216
14.6130 11.077
14.6282 11.152
14.6434 11.165
14.6586 10.936
14.6737 11.029
14.6889 10.734
14.7041 11.034
14.7193 11.159
14.7344 10.715
14.7496 10.723
14.7648 10.833
14.7800 10.704
14.7951 10.783
14.8103 10.929
14.8255 10.848
14.8407 10.809
14.8558 10.827
14.8710 10.869
14.8862 10.681
14.9014 10.643
14.9165 10.821
14.9317 10.824
14.9469 10.781
14.9621 10.895
14.9772 10.636
14.9924 10.538
15.0076 10.647
15.0228 10.493
15.0379 10.617
15.0531 10.541
15.0683 10.656
15.0835 10.458
15.0986 10.424
15.1138 10.659
15.1290 10.600
15.1442 10.403
15.1593 10.539
15.1745 10.474
15.1897 10.136
15.2049 10.610
15.2200 10.403
15.2352 10.422
15.2504 10.347
15.2656 10.361
15.2807 10.387
15.2959 10.227
15.3111 10.455
15.3263 10.266
15.3414 10.254
15.3566 10.314
15.3718 10.219
15.3870 10.585
15.4021 10.383
15.4173 10.928
15.4325 10.575
15.4477 10.515
15.4628 10.438
15.4780 10.735
15.4932 10.128
15.5084 10.282
15.5235 10.156
15.5387 10.334
15.5539 10.504
15.5691 10.436
15.5842 10.391
15.5994 10.335
15.6146 10.109
15.6298 10.003
15.6449 9.975
15.6601 10.017
15.6753 10.094
15.6905 10.413
15.7056 10.239
15.7208 10.014
15.7360 10.149
15.7512 9.914
15.7663 9.740
15.7815 9.897
15.7967 10.020
15.8119 9.839
15.8270 9.817
15.8422 9.617
15.8574 9.957
15.8726 9.780
15.8877 9.688
15.9029 9.746
15.9181 10.101
15.9333 9.962
15.9484 10.094
15.9636 9.636
15.9788 9.681
15.9940 9.880
16.0091 9.763
16.0243 9.825
16.0395 9.725
16.0547 9.794
16.0698 10.017
16.0850 9.870
16.1002 9.919
16.1154 9.540
16.1305 9.408
16.1457 9.616
16.1609 9.761
16.1761 9.767
16.1912 9.549
16.2064 9.857
16.2216 9.729
16.2368 9.761
16.2519 9.923
16.2671 10.217
16.2823 10.098
16.2975 9.906
16.3126 10.110
16.3278 9.997
16.3430 9.904
16.3582 9.937
16.3733 9.946
16.3885 10.056
16.4037 10.190
16.4189 10.292
16.4340 9.898
16.4492 9.936
16.4644 10.138
16.4796 10.061
16.4947 10.123
16.5099 9.930
16.5251 9.799
16.5403 9.737
16.5554 9.751
16.5706 9.564
16.5858 9.718
16.6010 9.836
16.6161 9.599
16.6313 9.717
16.6465 9.781
16.6617 9.794
16.6768 9.785
16.6920 9.725
16.7072 9.683
16.7224 10.004
16.7375 10.158
16.7527 9.973
16.7679 9.928
16.7831 9.805
16.7982 9.801
16.8134 9.962
16.8286 9.857
16.8438 9.632
16.8589 9.655
16.8741 9.822
16.8893 9.941
16.9045 9.866
16.9196 9.691
16.9348 9.870
16.9500 9.775
16.9652 9.752
16.9803 9.906
16.9955 10.025
17.0107 10.174
17.0259 10.042
17.0410 10.009
17.0562 10.114
17.0714 10.105
17.0866 10.209
17.1017 10.534
17.1169 10.722
17.1321 11.116
17.1473 11.531
17.1624 11.724
17.1776 12.133
17.1928 13.088
17.2080 14.103
17.2231 15.209
17.2383 16.291
17.2535 17.466
17.2687 18.442
17.2838 18.886
17.2990 18.376
17.3142 17.090
17.3294 16.204
17.3445 16.050
17.3597 15.954
17.3749 15.654
17.3901 15.248
17.4052 14.467
17.4204 13.307
17.4356 12.271
17.4508 11.870
17.4659 11.795
17.4811 11.905
17.4963 11.659
17.5115 11.347
17.5266 11.424
17.5418 11.268
17.5570 11.192
17.5722 11.481
17.5873 11.447
17.6025 11.359
17.6177 11.309
17.6329 10.955
17.6480 10.898
17.6632 10.789
17.6784 10.672
17.6936 10.627
17.7087 10.403
17.7239 10.469
17.7391 10.347
17.7543 10.064
17.7694 10.378
17.7846 10.314
17.7998 10.163
17.8150 10.389
17.8301 10.144
17.8453 10.129
17.8605 10.166
17.8757 10.255
17.8908 10.668
17.9060 10.467
17.9212 10.062
17.9364 10.013
17.9515 10.154
17.9667 10.310
17.9819 10.404
17.9971 10.392
18.0122 10.314
18.0274 10.281
18.0426 10.087
18.0578 10.045
18.0729 10.251
18.0881 10.007
18.1033 9.967
18.1185 9.872
18.1336 9.790
18.1488 9.919
18.1640 9.800
18.1792 9.795
18.1943 9.846
18.2095 9.763
18.2247 9.940
18.2399 9.918
18.2550 9.685
18.2702 9.825
18.2854 9.960
18.3006 9.845
18.3157 9.792
18.3309 9.752
18.3461 9.693
18.3613 9.551
18.3764 9.628
18.3916 9.731
18.4068 9.874
18.4220 9.953
18.4371 9.637
18.4523 9.759
18.4675 10.095
18.4827 10.094
18.4978 9.901
18.5130 9.708
18.5282 9.757
18.5434 9.754
18.5585 9.788
18.5737 9.885
18.5889 9.759
18.6041 9.796
18.6192 10.095
18.6344 9.953
18.6496 9.667
18.6648 9.676
18.6799 9.604
18.6951 9.628
18.7103 9.655
18.7255 9.697
18.7406 9.934
18.7558 9.659
18.7710 9.720
18.7862 9.870
18.8013 9.680
18.8165 9.738
18.8317 9.705
18.8469 9.489
18.8620 9.724
18.8772 9.906
18.8924 9.966
18.9076 9.938
18.9227 9.870
18.9379 9.933
18.9531 10.076
18.9683 10.162
18.9834 10.259
18.9986 10.223
19.0138 10.311
19.0290 10.348
19.0441 10.043
19.0593 10.134
19.0745 10.206
19.0897 10.252
19.1048 10.396
19.1200 10.317
19.1352 10.317
19.1504 10.541
19.1655 10.590
19.1807 10.469
19.1959 10.458
19.2111 10.514
19.2262 10.633
19.2414 10.781
19.2566 10.754
19.2718 10.403
19.2869 10.507
19.3021 10.924
19.3173 10.967
19.3325 10.921
19.3476 11.180
19.3628 11.251
19.3780 11.235
19.3932 11.271
19.4083 11.270
19.4235 11.237
19.4387 11.310
19.4539 11.433
19.4690 11.528
19.4842 11.464
19.4994 11.615
19.5146 11.683
19.5297 11.449
19.5449 11.463
19.5601 11.446
19.5753 11.165
19.5904 11.474
19.6056 11.834
19.6208 11.711
19.6360 11.694
19.6511 11.713
19.6663 11.781
19.6815 11.736
19.6967 11.740
19.7118 11.688
19.7270 11.582
19.7422 11.668
19.7574 11.818
19.7725 11.807
19.7877 11.853
19.8029 11.914
19.8180 11.753
19.8332 11.840
19.8484 12.023
19.8636 12.155
19.8787 12.362
19.8939 12.576
19.9091 12.933
19.9243 13.545
19.9394 13.639
19.9546 13.933
19.9698 14.289
19.9850 14.439
20.0001 14.330
20.0153 13.944
20.0305 13.947
20.0457 13.819
20.0608 13.652
20.0760 13.840
20.0912 13.890
20.1064 13.708
20.1215 13.675
20.1367 13.330
20.1519 12.818
20.1671 12.810
20.1822 13.067
20.1974 12.976
20.2126 12.789
20.2278 12.833
20.2429 12.656
20.2581 12.379
20.2733 11.996
20.2885 11.799
20.3036 11.650
20.3188 11.694
20.3340 11.731
20.3492 11.815
20.3643 11.660
20.3795 11.358
20.3947 11.092
20.4099 10.889
20.4250 10.780
20.4402 10.674
20.4554 10.759
20.4706 10.918
20.4857 10.628
20.5009 10.446
20.5161 10.890
20.5313 10.888
20.5464 10.700
20.5616 10.705
20.5768 10.635
20.5920 10.627
20.6071 10.652
20.6223 10.755
20.6375 10.978
20.6527 10.726
20.6678 10.599
20.6830 10.432
20.6982 10.547
20.7134 10.734
20.7285 10.403
20.7437 10.208
20.7589 10.424
20.7741 10.647
20.7892 10.231
20.8044 10.448
20.8196 10.153
20.8348 10.100
20.8499 10.233
20.8651 10.283
20.8803 10.160
20.8955 9.937
20.9106 10.105
20.9258 10.299
20.9410 9.969
20.9562 10.299
20.9713 10.208
20.9865 10.125
21.0017 9.854
21.0169 10.216
21.0320 10.329
21.0472 9.878
21.0624 9.900
21.0776 9.929
21.0927 10.195
21.1079 9.957
21.1231 9.853
21.1383 9.737
21.1534 9.779
21.1686 9.841
21.1838 9.523
21.1990 10.090
21.2141 9.717
21.2293 9.730
21.2445 9.293
21.2597 9.901
21.2748 9.752
21.2900 9.285
21.3052 9.620
21.3204 9.652
21.3355 9.614
21.3507 9.742
21.3659 9.737
21.3811 9.820
21.3962 9.555
21.4114 9.480
21.4266 9.448
21.4418 9.381
21.4569 9.441
21.4721 9.525
21.4873 9.269
21.5025 9.453
21.5176 9.272
21.5328 9.531
21.5480 9.279
21.5632 9.348
21.5783 9.630
21.5935 9.603
21.6087 9.271
21.6239 9.514
21.6390 9.241
21.6542 9.470
21.6694 9.200
21.6846 9.161
21.6997 9.161
21.7149 9.121
21.7301 9.236
21.7453 9.012
21.7604 9.096
21.7756 9.194
21.7908 9.186
21.8060 8.906
21.8211 8.990
21.8363 9.076
21.8515 8.916
21.8667 8.895
21.8818 8.925
21.8970 8.988
21.9122 8.999
21.9274 8.829
21.9425 8.871
21.9577 8.912
21.9729 8.828
21.9881 8.883
22.0032 8.755
22.0184 8.728
22.0336 8.920
22.0488 8.960
22.0639 8.674
22.0791 8.644
22.0943 8.746
22.1095 8.674
22.1246 8.699
22.1398 8.764
22.1550 8.578
22.1702 8.463
22.1853 8.645
22.2005 8.610
22.2157 8.619
22.2309 8.599
22.2460 8.680
22.2612 8.521
22.2764 8.512
22.2916 8.602
22.3067 8.668
22.3219 8.568
22.3371 8.583
22.3523 8.587
22.3674 8.473
22.3826 8.381
22.3978 8.584
22.4130 8.280
22.4281 8.620
22.4433 8.549
22.4585 8.373
22.4737 8.318
22.4888 8.426
22.5040 8.499
22.5192 8.605
22.5344 8.497
22.5495 8.382
22.5647 8.637
22.5799 8.346
22.5951 8.496
22.6102 8.503
22.6254 8.645
22.6406 8.535
22.6558 8.597
22.6709 8.380
22.6861 8.359
22.7013 8.140
22.7165 8.111
22.7316 6.631
