'Id: "" Comment: "" Operator: "Lab Manager" Anode: "Mo" Scantype: "Still (Eiger2R_500K (1D mode))" TimePerStep: "300" X: "11.8" Y: "9.4" Z: "11.284" 
7.2532 18.551
7.2684 18.648
7.2836 18.750
7.2987 18.816
7.3139 19.041
7.3291 18.819
7.3443 18.848
7.3594 19.224
7.3746 19.431
7.3898 19.300
7.4050 19.193
7.4201 19.061
7.4353 19.299
7.4505 19.188
7.4657 19.294
7.4808 19.682
7.4960 19.360
7.5112 19.597
7.5264 19.583
7.5415 19.609
7.5567 19.893
7.5719 19.763
7.5871 20.081
7.6022 19.941
7.6174 20.002
7.6326 20.079
7.6478 19.976
7.6629 20.062
7.6781 19.726
7.6933 19.657
7.7085 20.000
7.7236 20.284
7.7388 19.881
7.7540 19.932
7.7692 20.258
7.7843 20.382
7.7995 20.287
7.8147 20.123
7.8299 20.453
7.8450 20.464
7.8602 20.349
7.8754 20.458
7.8905 20.455
7.9057 20.563
7.9209 20.800
7.9361 20.612
7.9512 20.777
7.9664 20.706
7.9816 20.729
7.9968 20.916
8.0119 20.800
8.0271 20.636
8.0423 20.618
8.0575 20.885
8.0726 20.761
8.0878 21.265
8.1030 21.363
8.1182 21.280
8.1333 21.043
8.1485 21.233
8.1637 21.364
8.1789 21.178
8.1940 21.206
8.2092 21.084
8.2244 21.093
8.2396 21.083
8.2547 21.122
8.2699 21.203
8.2851 21.797
8.3003 21.645
8.3154 21.294
8.3306 21.568
8.3458 22.016
8.3610 21.460
8.3761 21.550
8.3913 21.292
8.4065 22.129
8.4217 21.743
8.4368 21.667
8.4520 21.489
8.4672 21.968
8.4824 22.038
8.4975 21.878
8.5127 21.474
8.5279 22.208
8.5431 21.900
8.5582 22.063
8.5734 22.003
8.5886 21.863
8.6038 21.748
8.6189 22.230
8.6341 22.414
8.6493 21.994
8.6645 21.740
8.6796 21.700
8.6948 22.095
8.7100 21.909
8.7252 22.244
8.7403 22.362
8.7555 21.847
8.7707 22.610
8.7859 22.321
8.8010 22.094
8.8162 22.182
8.8314 22.187
8.8466 22.324
8.8617 22.194
8.8769 22.354
8.8921 22.701
8.9073 22.191
8.9224 22.283
8.9376 22.150
8.9528 22.183
8.9680 22.762
8.9831 22.683
8.9983 22.241
9.0135 22.627
9.0287 22.660
9.0438 22.846
9.0590 22.626
9.0742 22.512
9.0894 22.410
9.1045 22.705
9.1197 22.612
9.1349 22.757
9.1501 22.517
9.1652 22.619
9.1804 22.563
9.1956 22.368
9.2108 22.486
9.2259 22.994
9.2411 22.555
9.2563 22.068
9.2715 22.552
9.2866 22.825
9.3018 22.709
9.3170 22.869
9.3322 22.720
9.3473 22.568
9.3625 22.925
9.3777 23.234
9.3929 22.650
9.4080 22.560
9.4232 22.464
9.4384 22.713
9.4536 23.123
9.4687 23.087
9.4839 23.093
9.4991 22.827
9.5143 23.017
9.5294 23.123
9.5446 22.628
9.5598 22.578
9.5750 22.949
9.5901 23.002
9.6053 22.733
9.6205 22.953
9.6357 23.268
9.6508 23.189
9.6660 23.453
9.6812 23.925
9.6964 23.666
9.7115 23.453
9.7267 23.732
9.7419 23.959
9.7571 23.768
9.7722 23.683
9.7874 23.532
9.8026 23.463
9.8178 23.379
9.8329 23.155
9.8481 23.345
9.8633 23.723
9.8785 23.514
9.8936 23.273
9.9088 23.328
9.9240 22.884
9.9392 22.746
9.9543 22.787
9.9695 22.924
9.9847 22.970
9.9999 22.966
10.0150 23.145
10.0302 23.344
10.0454 23.338
10.0606 22.889
10.0757 22.696
10.0909 22.868
10.1061 23.155
10.1213 23.167
10.1364 23.262
10.1516 23.324
10.1668 23.415
10.1820 23.400
10.1971 23.217
10.2123 23.025
10.2275 22.973
10.2427 22.646
10.2578 22.932
10.2730 22.792
10.2882 22.641
10.3034 23.095
10.3185 22.766
10.3337 22.700
10.3489 22.943
10.3641 22.490
10.3792 22.546
10.3944 22.688
10.4096 22.856
10.4248 22.657
10.4399 22.614
10.4551 22.432
10.4703 22.482
10.4855 22.423
10.5006 22.457
10.5158 22.641
10.5310 22.819
10.5462 22.881
10.5613 22.181
10.5765 22.338
10.5917 22.598
10.6069 22.649
10.6220 22.570
10.6372 22.269
10.6524 22.316
10.6676 22.367
10.6827 22.278
10.6979 22.287
10.7131 22.141
10.7283 21.699
10.7434 21.908
10.7586 22.343
10.7738 22.243
10.7890 22.209
10.8041 22.232
10.8193 21.690
10.8345 22.243
10.8497 22.084
10.8648 21.893
10.8800 22.155
10.8952 22.056
10.9104 21.898
10.9255 21.762
10.9407 21.733
10.9559 21.680
10.9711 21.859
10.9862 22.313
11.0014 22.061
11.0166 22.136
11.0318 22.021
11.0469 21.699
11.0621 22.095
11.0773 21.891
11.0925 21.854
11.1076 21.900
11.1228 21.903
11.1380 21.877
11.1532 21.827
11.1683 21.537
11.1835 21.468
11.1987 21.695
11.2139 21.495
11.2290 21.651
11.2442 21.511
11.2594 21.554
11.2746 21.339
11.2897 21.590
11.3049 21.321
11.3201 21.635
11.3353 21.580
11.3504 21.159
11.3656 21.116
11.3808 21.187
11.3960 21.211
11.4111 21.143
11.4263 21.310
11.4415 21.085
11.4567 20.992
11.4718 20.847
11.4870 20.953
11.5022 20.992
11.5174 21.322
11.5325 21.209
11.5477 21.040
11.5629 20.775
11.5781 20.599
11.5932 20.378
11.6084 20.562
11.6236 20.628
11.6388 21.028
11.6539 20.797
11.6691 20.462
11.6843 20.191
11.6995 20.358
11.7146 20.670
11.7298 20.208
11.7450 19.943
11.7602 19.913
11.7753 19.830
11.7905 20.015
11.8057 20.150
11.8209 20.150
11.8360 19.674
11.8512 19.809
11.8664 20.033
11.8816 19.737
11.8967 19.504
11.9119 19.547
11.9271 19.800
11.9423 19.459
11.9574 19.093
11.9726 19.345
11.9878 19.457
12.0030 19.175
12.0181 19.221
12.0333 19.125
12.0485 19.016
12.0637 19.151
12.0788 18.918
12.0940 18.700
12.1092 18.613
12.1244 18.687
12.1395 18.549
12.1547 18.350
12.1699 18.420
12.1851 18.494
12.2002 18.386
12.2154 17.944
12.2306 17.870
12.2458 18.008
12.2609 18.021
12.2761 17.985
12.2913 17.836
12.3065 17.734
12.3216 17.654
12.3368 17.164
12.3520 17.114
12.3672 17.325
12.3823 17.401
12.3975 17.405
12.4127 17.113
12.4279 17.022
12.4430 17.141
12.4582 16.719
12.4734 16.417
12.4886 16.555
12.5037 16.692
12.5189 16.792
12.5341 16.747
12.5493 16.767
12.5644 16.483
12.5796 16.399
12.5948 16.043
12.6100 15.893
12.6251 15.940
12.6403 15.870
12.6555 15.946
12.6707 15.760
12.6858 15.433
12.7010 15.538
12.7162 15.609
12.7314 15.371
12.7465 15.309
12.7617 15.408
12.7769 15.443
12.7921 15.354
12.8072 15.061
12.8224 15.022
12.8376 15.043
12.8528 14.697
12.8679 14.569
12.8831 14.615
12.8983 14.655
12.9135 14.549
12.9286 14.551
12.9438 14.491
12.9590 14.192
12.9742 14.187
12.9893 14.231
13.0045 14.139
13.0197 14.062
13.0349 14.014
13.0500 13.969
13.0652 14.005
13.0804 14.006
13.0956 13.817
13.1107 13.892
13.1259 14.094
13.1411 13.837
13.1563 13.533
13.1714 13.518
13.1866 13.637
13.2018 13.587
13.2170 13.391
13.2321 13.321
13.2473 13.334
13.2625 13.294
13.2777 13.347
13.2928 13.234
13.3080 13.077
13.3232 13.278
13.3384 13.182
13.3535 12.915
13.3687 12.827
13.3839 12.909
13.3991 13.000
13.4142 13.110
13.4294 13.211
13.4446 13.105
13.4598 12.721
13.4749 12.721
13.4901 12.692
13.5053 12.646
13.5205 12.555
13.5356 12.452
13.5508 12.502
13.5660 12.307
13.5812 12.333
13.5963 12.409
13.6115 12.456
13.6267 12.222
13.6419 12.217
13.6570 12.336
13.6722 12.467
13.6874 12.426
13.7026 12.329
13.7177 11.918
13.7329 11.862
13.7481 12.011
13.7633 12.132
13.7784 12.042
13.7936 11.916
13.8088 12.093
13.8239 12.114
13.8391 12.293
13.8543 12.485
13.8695 12.468
13.8846 12.301
13.8998 12.319
13.9150 12.065
13.9302 12.196
13.9453 12.082
13.9605 12.047
13.9757 11.806
13.9909 11.584
14.0060 11.479
14.0212 11.871
14.0364 11.856
14.0516 11.801
14.0667 11.840
14.0819 11.753
14.0971 11.686
14.1123 11.814
14.1274 11.553
14.1426 11.548
14.1578 11.463
14.1730 11.494
14.1881 11.584
14.2033 11.705
14.2185 11.774
14.2337 11.674
14.2488 11.833
14.2640 11.804
14.2792 11.606
14.2944 11.899
14.3095 11.977
14.3247 11.893
14.3399 12.048
14.3551 12.476
14.3702 12.691
14.3854 12.985
14.4006 13.041
14.4158 12.763
14.4309 12.819
14.4461 12.781
14.4613 12.612
14.4765 12.314
14.4916 12.367
14.5068 11.946
14.5220 11.633
14.5372 11.525
14.5523 11.190
14.5675 10.928
14.5827 10.977
14.5979 10.853
14.6130 10.876
14.6282 10.591
14.6434 11.125
14.6586 10.619
14.6737 10.717
14.6889 10.515
14.7041 10.607
14.7193 10.724
14.7344 10.515
14.7496 10.495
14.7648 10.292
14.7800 10.602
14.7951 10.420
14.8103 10.483
14.8255 10.696
14.8407 10.630
14.8558 10.553
14.8710 10.459
14.8862 10.870
14.9014 10.406
14.9165 10.485
14.9317 10.850
14.9469 10.627
14.9621 10.492
14.9772 10.478
14.9924 10.012
15.0076 10.030
15.0228 10.328
15.0379 10.509
15.0531 10.225
15.0683 10.147
15.0835 10.242
15.0986 10.392
15.1138 9.971
15.1290 9.628
15.1442 10.403
15.1593 10.323
15.1745 10.088
15.1897 10.126
15.2049 9.854
15.2200 10.143
15.2352 10.092
15.2504 10.196
15.2656 10.379
15.2807 10.027
15.2959 10.049
15.3111 10.463
15.3263 9.826
15.3414 10.088
15.3566 9.986
15.3718 10.108
15.3870 10.305
15.4021 9.894
15.4173 9.839
15.4325 10.269
15.4477 9.941
15.4628 10.071
15.4780 10.182
15.4932 9.915
15.5084 10.080
15.5235 9.968
15.5387 9.940
15.5539 9.895
15.5691 9.945
15.5842 9.645
15.5994 9.599
15.6146 10.116
15.6298 9.966
15.6449 9.906
15.6601 9.810
15.6753 9.584
15.6905 9.656
15.7056 9.861
15.7208 9.487
15.7360 9.522
15.7512 9.767
15.7663 9.728
15.7815 9.363
15.7967 9.414
15.8119 9.529
15.8270 9.611
15.8422 9.806
15.8574 9.564
15.8726 9.437
15.8877 9.574
15.9029 9.665
15.9181 9.693
15.9333 9.648
15.9484 9.397
15.9636 9.523
15.9788 9.754
15.9940 9.763
16.0091 9.691
16.0243 9.566
16.0395 9.687
16.0547 9.767
16.0698 9.590
16.0850 9.651
16.1002 9.692
16.1154 9.469
16.1305 9.532
16.1457 9.615
16.1609 9.481
16.1761 9.558
16.1912 9.278
16.2064 9.384
16.2216 9.533
16.2368 9.872
16.2519 9.615
16.2671 9.458
16.2823 9.357
16.2975 10.008
16.3126 9.872
16.3278 9.730
16.3430 9.809
16.3582 9.798
16.3733 9.820
16.3885 9.731
16.4037 9.585
16.4189 9.813
16.4340 9.574
16.4492 9.552
16.4644 9.659
16.4796 9.821
16.4947 9.767
16.5099 9.477
16.5251 9.445
16.5403 9.457
16.5554 9.671
16.5706 9.470
16.5858 9.479
16.6010 9.483
16.6161 9.566
16.6313 9.627
16.6465 9.536
16.6617 9.302
16.6768 9.433
16.6920 9.693
16.7072 9.923
16.7224 9.912
16.7375 9.840
16.7527 9.839
16.7679 9.821
16.7831 9.734
16.7982 9.932
16.8134 9.848
16.8286 9.628
16.8438 9.695
16.8589 9.815
16.8741 9.769
16.8893 9.799
16.9045 9.716
16.9196 9.702
16.9348 9.780
16.9500 9.774
16.9652 9.569
16.9803 9.576
16.9955 9.877
17.0107 9.975
17.0259 9.972
17.0410 10.086
17.0562 10.098
17.0714 10.250
17.0866 10.372
17.1017 10.378
17.1169 10.811
17.1321 11.048
17.1473 11.064
17.1624 11.618
17.1776 12.597
17.1928 12.969
17.2080 13.720
17.2231 15.052
17.2383 16.200
17.2535 17.575
17.2687 18.491
17.2838 18.714
17.2990 17.870
17.3142 16.808
17.3294 16.435
17.3445 16.122
17.3597 16.091
17.3749 15.951
17.3901 15.359
17.4052 14.378
17.4204 13.541
17.4356 12.844
17.4508 12.091
17.4659 11.740
17.4811 11.653
17.4963 11.549
17.5115 11.439
17.5266 11.198
17.5418 10.895
17.5570 10.943
17.5722 10.999
17.5873 11.044
17.6025 11.004
17.6177 11.223
17.6329 11.386
17.6480 11.282
17.6632 11.478
17.6784 11.429
17.6936 11.341
17.7087 11.405
17.7239 11.230
17.7391 11.137
17.7543 11.152
17.7694 10.934
17.7846 10.873
17.7998 10.741
17.8150 10.562
17.8301 10.511
17.8453 10.327
17.8605 10.278
17.8757 10.263
17.8908 10.276
17.9060 10.378
17.9212 10.546
17.9364 10.257
17.9515 9.899
17.9667 10.055
17.9819 10.215
17.9971 10.130
18.0122 10.169
18.0274 10.130
18.0426 10.125
18.0578 9.898
18.0729 9.893
18.0881 9.894
18.1033 9.876
18.1185 9.949
18.1336 9.975
18.1488 10.026
18.1640 10.029
18.1792 9.974
18.1943 9.720
18.2095 9.560
18.2247 9.961
18.2399 10.073
18.2550 9.731
18.2702 9.709
18.2854 9.649
18.3006 9.717
18.3157 9.848
18.3309 9.949
18.3461 9.785
18.3613 9.806
18.3764 9.900
18.3916 9.791
18.4068 9.786
18.4220 9.652
18.4371 9.514
18.4523 9.770
18.4675 9.768
18.4827 9.577
18.4978 9.559
18.5130 9.618
18.5282 9.682
18.5434 9.685
18.5585 9.617
18.5737 9.791
18.5889 9.822
18.6041 9.686
18.6192 9.697
18.6344 9.850
18.6496 9.838
18.6648 9.797
18.6799 9.926
18.6951 9.791
18.7103 9.781
18.7255 9.623
18.7406 9.448
18.7558 9.569
18.7710 9.802
18.7862 9.823
18.8013 9.705
18.8165 9.613
18.8317 9.758
18.8469 9.781
18.8620 9.925
18.8772 10.082
18.8924 9.840
18.9076 9.926
18.9227 9.942
18.9379 9.946
18.9531 10.129
18.9683 10.142
18.9834 9.880
18.9986 9.943
19.0138 10.297
19.0290 10.283
19.0441 10.158
19.0593 10.233
19.0745 10.295
19.0897 10.209
19.1048 10.241
19.1200 10.372
19.1352 10.423
19.1504 10.472
19.1655 10.786
19.1807 10.821
19.1959 10.729
19.2111 10.657
19.2262 10.747
19.2414 10.835
19.2566 10.894
19.2718 10.790
19.2869 10.803
19.3021 10.880
19.3173 10.878
19.3325 10.983
19.3476 10.903
19.3628 11.084
19.3780 11.127
19.3932 11.051
19.4083 11.162
19.4235 11.223
19.4387 11.113
19.4539 10.889
19.4690 11.287
19.4842 11.427
19.4994 11.335
19.5146 11.497
19.5297 11.605
19.5449 11.705
19.5601 11.486
19.5753 11.337
19.5904 11.562
19.6056 11.827
19.6208 11.606
19.6360 11.357
19.6511 11.465
19.6663 11.635
19.6815 11.728
19.6967 11.619
19.7118 11.761
19.7270 11.846
19.7422 11.798
19.7574 11.698
19.7725 11.614
19.7877 11.741
19.8029 11.856
19.8180 12.036
19.8332 12.223
19.8484 12.432
19.8636 12.681
19.8787 12.649
19.8939 12.680
19.9091 12.951
19.9243 13.386
19.9394 13.740
19.9546 14.237
19.9698 14.682
19.9850 14.498
20.0001 14.173
20.0153 14.030
20.0305 13.949
20.0457 13.975
20.0608 13.994
20.0760 13.968
20.0912 13.871
20.1064 13.534
20.1215 13.400
20.1367 13.533
20.1519 13.374
20.1671 13.190
20.1822 12.909
20.1974 12.702
20.2126 12.681
20.2278 12.781
20.2429 12.832
20.2581 12.341
20.2733 12.255
20.2885 11.908
20.3036 11.828
20.3188 11.750
20.3340 11.994
20.3492 12.275
20.3643 12.110
20.3795 11.920
20.3947 11.592
20.4099 11.743
20.4250 11.767
20.4402 11.842
20.4554 11.735
20.4706 11.932
20.4857 11.730
20.5009 11.606
20.5161 11.548
20.5313 11.448
20.5464 11.311
20.5616 11.088
20.5768 11.220
20.5920 11.284
20.6071 11.032
20.6223 10.838
20.6375 10.829
20.6527 10.769
20.6678 10.742
20.6830 10.718
20.6982 10.491
20.7134 10.493
20.7285 10.572
20.7437 10.475
20.7589 10.601
20.7741 10.406
20.7892 10.459
20.8044 10.475
20.8196 10.342
20.8348 10.388
20.8499 10.010
20.8651 10.371
20.8803 10.275
20.8955 10.125
20.9106 10.288
20.9258 10.262
20.9410 10.036
20.9562 10.191
20.9713 10.158
20.9865 10.006
21.0017 10.125
21.0169 10.161
21.0320 10.029
21.0472 9.904
21.0624 9.893
21.0776 10.234
21.0927 9.789
21.1079 9.754
21.1231 9.658
21.1383 9.778
21.1534 9.964
21.1686 9.930
21.1838 9.813
21.1990 9.629
21.2141 9.718
21.2293 9.741
21.2445 9.807
21.2597 9.637
21.2748 9.528
21.2900 9.741
21.3052 9.866
21.3204 9.717
21.3355 9.290
21.3507 9.389
21.3659 9.542
21.3811 9.291
21.3962 9.454
21.4114 9.566
21.4266 9.416
21.4418 9.583
21.4569 9.714
21.4721 9.347
21.4873 9.435
21.5025 9.002
21.5176 9.299
21.5328 9.463
21.5480 9.554
21.5632 9.271
21.5783 9.299
21.5935 9.448
21.6087 9.252
21.6239 9.422
21.6390 9.312
21.6542 9.502
21.6694 9.333
21.6846 9.198
21.6997 9.168
21.7149 9.034
21.7301 9.005
21.7453 9.092
21.7604 9.119
21.7756 9.161
21.7908 8.999
21.8060 8.961
21.8211 8.976
21.8363 8.993
21.8515 9.030
21.8667 8.914
21.8818 8.947
21.8970 8.908
21.9122 8.948
21.9274 8.980
21.9425 8.833
21.9577 8.890
21.9729 8.820
21.9881 8.789
22.0032 8.729
22.0184 8.527
22.0336 8.705
22.0488 8.782
22.0639 8.850
22.0791 8.781
22.0943 8.663
22.1095 8.850
22.1246 8.838
22.1398 8.542
22.1550 8.519
22.1702 8.613
22.1853 8.756
22.2005 8.591
22.2157 8.548
22.2309 8.629
22.2460 8.513
22.2612 8.461
22.2764 8.552
22.2916 8.592
22.3067 8.668
22.3219 8.661
22.3371 8.668
22.3523 8.504
22.3674 8.455
22.3826 8.245
22.3978 8.591
22.4130 8.559
22.4281 8.587
22.4433 8.525
22.4585 8.483
22.4737 8.217
22.4888 8.401
22.5040 8.431
22.5192 8.448
22.5344 8.273
22.5495 8.464
22.5647 8.751
22.5799 8.388
22.5951 8.322
22.6102 8.379
22.6254 8.229
22.6406 8.375
22.6558 8.385
22.6709 8.098
22.6861 8.370
22.7013 8.462
22.7165 7.881
22.7316 6.402
