'Id: "" Comment: "" Operator: "Lab Manager" Anode: "Mo" Scantype: "Still (Eiger2R_500K (1D mode))" TimePerStep: "300" X: "11.8" Y: "9.4" Z: "11.284" 
7.2532 18.848
7.2684 18.530
7.2836 18.894
7.2987 19.146
7.3139 19.002
7.3291 18.649
7.3443 18.707
7.3594 18.809
7.3746 19.270
7.3898 19.260
7.4050 19.165
7.4201 19.144
7.4353 19.546
7.4505 19.213
7.4657 19.588
7.4808 19.493
7.4960 19.620
7.5112 19.666
7.5264 19.594
7.5415 19.677
7.5567 19.731
7.5719 19.933
7.5871 19.907
7.6022 19.912
7.6174 19.852
7.6326 20.072
7.6478 19.937
7.6629 19.857
7.6781 20.284
7.6933 20.466
7.7085 20.445
7.7236 20.167
7.7388 20.514
7.7540 20.589
7.7692 20.262
7.7843 20.404
7.7995 20.468
7.8147 20.816
7.8299 21.109
7.8450 20.721
7.8602 20.706
7.8754 20.770
7.8905 20.673
7.9057 20.766
7.9209 20.613
7.9361 20.837
7.9512 20.873
7.9664 20.905
7.9816 20.855
7.9968 20.902
8.0119 20.837
8.0271 20.938
8.0423 20.882
8.0575 21.228
8.0726 20.897
8.0878 20.933
8.1030 21.057
8.1182 21.473
8.1333 21.304
8.1485 21.123
8.1637 21.205
8.1789 21.302
8.1940 21.195
8.2092 21.198
8.2244 21.162
8.2396 21.684
8.2547 21.660
8.2699 21.167
8.2851 22.215
8.3003 21.164
8.3154 21.511
8.3306 21.284
8.3458 21.563
8.3610 21.701
8.3761 21.289
8.3913 21.374
8.4065 21.950
8.4217 21.434
8.4368 21.888
8.4520 21.844
8.4672 22.041
8.4824 21.457
8.4975 21.793
8.5127 21.890
8.5279 21.913
8.5431 22.147
8.5582 22.285
8.5734 22.128
8.5886 21.947
8.6038 22.189
8.6189 22.464
8.6341 22.118
8.6493 21.891
8.6645 21.792
8.6796 22.178
8.6948 22.108
8.7100 22.188
8.7252 23.102
8.7403 22.630
8.7555 22.274
8.7707 21.907
8.7859 21.625
8.8010 22.141
8.8162 22.432
8.8314 22.278
8.8466 22.865
8.8617 22.461
8.8769 22.757
8.8921 22.605
8.9073 22.669
8.9224 22.538
8.9376 22.440
8.9528 22.263
8.9680 22.233
8.9831 22.443
8.9983 22.764
9.0135 22.624
9.0287 22.962
9.0438 22.601
9.0590 22.831
9.0742 22.455
9.0894 22.916
9.1045 22.804
9.1197 22.497
9.1349 22.014
9.1501 22.282
9.1652 22.509
9.1804 23.001
9.1956 22.494
9.2108 22.622
9.2259 22.643
9.2411 22.900
9.2563 22.801
9.2715 22.794
9.2866 22.829
9.3018 23.058
9.3170 23.047
9.3322 22.778
9.3473 22.916
9.3625 23.047
9.3777 23.232
9.3929 22.940
9.4080 22.955
9.4232 23.098
9.4384 22.740
9.4536 22.630
9.4687 22.870
9.4839 22.875
9.4991 22.929
9.5143 22.953
9.5294 23.165
9.5446 23.250
9.5598 22.961
9.5750 23.414
9.5901 23.441
9.6053 23.174
9.6205 23.146
9.6357 23.086
9.6508 23.249
9.6660 23.309
9.6812 23.588
9.6964 23.819
9.7115 23.854
9.7267 23.748
9.7419 23.747
9.7571 23.889
9.7722 24.024
9.7874 23.954
9.8026 23.596
9.8178 23.402
9.8329 23.271
9.8481 23.440
9.8633 23.515
9.8785 23.265
9.8936 23.125
9.9088 23.173
9.9240 23.321
9.9392 23.534
9.9543 23.513
9.9695 22.871
9.9847 22.949
9.9999 23.198
10.0150 22.950
10.0302 23.153
10.0454 23.256
10.0606 23.126
10.0757 23.281
10.0909 23.285
10.1061 23.482
10.1213 23.617
10.1364 23.357
10.1516 23.401
10.1668 23.365
10.1820 23.346
10.1971 23.608
10.2123 23.486
10.2275 23.029
10.2427 22.805
10.2578 22.898
10.2730 23.124
10.2882 22.778
10.3034 23.004
10.3185 22.967
10.3337 23.132
10.3489 22.978
10.3641 22.758
10.3792 22.746
10.3944 22.678
10.4096 22.733
10.4248 22.626
10.4399 22.719
10.4551 22.863
10.4703 22.727
10.4855 22.708
10.5006 22.528
10.5158 22.266
10.5310 22.374
10.5462 22.581
10.5613 22.589
10.5765 22.603
10.5917 22.727
10.6069 22.591
10.6220 22.480
10.6372 22.403
10.6524 22.769
10.6676 22.906
10.6827 22.831
10.6979 22.575
10.7131 22.403
10.7283 22.325
10.7434 22.427
10.7586 22.343
10.7738 22.128
10.7890 22.205
10.8041 22.175
10.8193 22.272
10.8345 22.359
10.8497 22.023
10.8648 22.418
10.8800 22.307
10.8952 22.057
10.9104 22.219
10.9255 22.340
10.9407 22.014
10.9559 22.140
10.9711 21.921
10.9862 22.170
11.0014 21.893
11.0166 21.973
11.0318 22.057
11.0469 21.910
11.0621 22.115
11.0773 21.793
11.0925 22.037
11.1076 22.035
11.1228 21.591
11.1380 21.373
11.1532 21.454
11.1683 21.670
11.1835 21.618
11.1987 21.577
11.2139 21.319
11.2290 21.601
11.2442 21.974
11.2594 21.486
11.2746 21.566
11.2897 21.698
11.3049 21.619
11.3201 21.534
11.3353 21.609
11.3504 21.603
11.3656 21.431
11.3808 21.856
11.3960 21.452
11.4111 21.291
11.4263 21.150
11.4415 21.381
11.4567 21.119
11.4718 20.968
11.4870 20.861
11.5022 20.876
11.5174 21.232
11.5325 20.935
11.5477 20.974
11.5629 21.043
11.5781 21.074
11.5932 20.917
11.6084 20.784
11.6236 20.651
11.6388 20.755
11.6539 20.696
11.6691 20.449
11.6843 20.269
11.6995 20.267
11.7146 20.386
11.7298 20.546
11.7450 20.073
11.7602 20.115
11.7753 20.242
11.7905 20.269
11.8057 20.147
11.8209 20.003
11.8360 20.071
11.8512 19.829
11.8664 19.620
11.8816 19.786
11.8967 19.472
11.9119 19.417
11.9271 19.485
11.9423 19.371
11.9574 19.182
11.9726 19.150
11.9878 19.364
12.0030 19.502
12.0181 18.957
12.0333 18.857
12.0485 18.880
12.0637 18.952
12.0788 18.991
12.0940 18.677
12.1092 18.413
12.1244 18.476
12.1395 18.542
12.1547 18.386
12.1699 18.283
12.1851 18.441
12.2002 17.998
12.2154 17.651
12.2306 18.143
12.2458 18.084
12.2609 18.109
12.2761 17.901
12.2913 17.926
12.3065 17.948
12.3216 17.651
12.3368 17.599
12.3520 17.735
12.3672 17.519
12.3823 17.332
12.3975 17.318
12.4127 17.281
12.4279 17.024
12.4430 17.015
12.4582 16.924
12.4734 16.822
12.4886 16.768
12.5037 16.509
12.5189 16.366
12.5341 16.376
12.5493 16.546
12.5644 16.401
12.5796 16.109
12.5948 15.992
12.6100 16.020
12.6251 15.948
12.6403 16.020
12.6555 15.696
12.6707 15.530
12.6858 15.806
12.7010 15.756
12.7162 15.515
12.7314 15.329
12.7465 15.329
12.7617 15.257
12.7769 15.281
12.7921 15.378
12.8072 15.203
12.8224 14.994
12.8376 14.751
12.8528 14.762
12.8679 14.720
12.8831 14.698
12.8983 14.712
12.9135 14.510
12.9286 14.358
12.9438 14.430
12.9590 14.511
12.9742 14.297
12.9893 14.092
13.0045 14.112
13.0197 14.171
13.0349 14.175
13.0500 14.038
13.0652 13.682
13.0804 13.622
13.0956 13.755
13.1107 13.721
13.1259 13.566
13.1411 13.474
13.1563 13.676
13.1714 13.734
13.1866 13.555
13.2018 13.605
13.2170 13.590
13.2321 13.390
13.2473 13.379
13.2625 13.230
13.2777 13.213
13.2928 13.313
13.3080 13.174
13.3232 12.863
13.3384 12.714
13.3535 12.910
13.3687 12.992
13.3839 13.231
13.3991 13.145
13.4142 12.827
13.4294 12.801
13.4446 12.760
13.4598 12.605
13.4749 12.435
13.4901 12.605
13.5053 12.765
13.5205 12.586
13.5356 12.375
13.5508 12.327
13.5660 12.180
13.5812 12.132
13.5963 12.183
13.6115 11.941
13.6267 11.651
13.6419 11.939
13.6570 12.195
13.6722 11.958
13.6874 12.075
13.7026 12.229
13.7177 12.315
13.7329 12.036
13.7481 11.921
13.7633 11.977
13.7784 12.082
13.7936 12.047
13.8088 12.077
13.8239 12.372
13.8391 12.467
13.8543 12.347
13.8695 12.294
13.8846 12.235
13.8998 12.069
13.9150 11.940
13.9302 12.015
13.9453 11.578
13.9605 11.684
13.9757 11.947
13.9909 11.727
14.0060 11.694
14.0212 11.844
14.0364 11.608
14.0516 11.324
14.0667 11.453
14.0819 11.520
14.0971 11.394
14.1123 11.268
14.1274 11.396
14.1426 11.458
14.1578 11.216
14.1730 11.360
14.1881 11.394
14.2033 11.495
14.2185 11.397
14.2337 11.490
14.2488 11.508
14.2640 11.918
14.2792 12.067
14.2944 12.118
14.3095 12.083
14.3247 12.069
14.3399 12.278
14.3551 12.518
14.3702 12.434
14.3854 13.263
14.4006 13.349
14.4158 13.687
14.4309 13.865
14.4461 12.978
14.4613 12.851
14.4765 12.660
14.4916 12.384
14.5068 11.970
14.5220 11.924
14.5372 11.293
14.5523 11.571
14.5675 11.245
14.5827 11.205
14.5979 11.033
14.6130 10.734
14.6282 10.752
14.6434 10.792
14.6586 10.798
14.6737 10.514
14.6889 10.757
14.7041 10.952
14.7193 10.878
14.7344 10.477
14.7496 10.667
14.7648 10.404
14.7800 10.457
14.7951 10.562
14.8103 10.544
14.8255 10.402
14.8407 10.132
14.8558 10.212
14.8710 10.399
14.8862 10.421
14.9014 10.653
14.9165 10.644
14.9317 11.031
14.9469 10.210
14.9621 10.319
14.9772 10.110
14.9924 10.265
15.0076 10.278
15.0228 10.468
15.0379 10.456
15.0531 10.595
15.0683 10.049
15.0835 10.404
15.0986 10.332
15.1138 9.941
15.1290 10.139
15.1442 10.298
15.1593 9.811
15.1745 10.220
15.1897 9.957
15.2049 10.161
15.2200 10.070
15.2352 10.054
15.2504 10.030
15.2656 10.121
15.2807 10.332
15.2959 10.185
15.3111 10.139
15.3263 9.971
15.3414 9.964
15.3566 10.059
15.3718 10.302
15.3870 10.479
15.4021 10.540
15.4173 10.259
15.4325 10.193
15.4477 10.309
15.4628 10.156
15.4780 10.154
15.4932 9.975
15.5084 10.031
15.5235 10.008
15.5387 10.012
15.5539 9.810
15.5691 9.927
15.5842 9.880
15.5994 10.094
15.6146 9.759
15.6298 9.765
15.6449 9.742
15.6601 9.771
15.6753 9.293
15.6905 9.518
15.7056 9.693
15.7208 9.621
15.7360 9.516
15.7512 9.421
15.7663 9.512
15.7815 9.532
15.7967 9.648
15.8119 9.786
15.8270 9.706
15.8422 9.479
15.8574 9.644
15.8726 9.364
15.8877 9.340
15.9029 9.444
15.9181 9.279
15.9333 9.654
15.9484 9.613
15.9636 9.480
15.9788 9.374
15.9940 9.548
16.0091 9.715
16.0243 9.653
16.0395 9.512
16.0547 9.461
16.0698 9.838
16.0850 9.704
16.1002 9.628
16.1154 9.604
16.1305 9.447
16.1457 9.559
16.1609 9.536
16.1761 9.689
16.1912 10.009
16.2064 9.648
16.2216 9.700
16.2368 9.898
16.2519 9.973
16.2671 9.895
16.2823 9.778
16.2975 9.769
16.3126 9.757
16.3278 10.015
16.3430 9.766
16.3582 9.671
16.3733 9.712
16.3885 9.934
16.4037 10.031
16.4189 9.990
16.4340 9.894
16.4492 9.943
16.4644 9.801
16.4796 9.531
16.4947 9.491
16.5099 9.520
16.5251 9.393
16.5403 9.535
16.5554 9.589
16.5706 9.618
16.5858 9.565
16.6010 9.547
16.6161 9.617
16.6313 9.551
16.6465 9.418
16.6617 9.714
16.6768 9.869
16.6920 9.792
16.7072 9.822
16.7224 10.172
16.7375 10.173
16.7527 9.963
16.7679 9.859
16.7831 9.751
16.7982 9.913
16.8134 9.994
16.8286 9.843
16.8438 9.620
16.8589 9.654
16.8741 9.916
16.8893 9.883
16.9045 9.837
16.9196 9.618
16.9348 9.499
16.9500 9.691
16.9652 9.790
16.9803 9.834
16.9955 9.929
17.0107 10.031
17.0259 9.974
17.0410 9.840
17.0562 9.864
17.0714 10.102
17.0866 10.374
17.1017 10.530
17.1169 10.721
17.1321 10.936
17.1473 11.180
17.1624 11.598
17.1776 12.142
17.1928 12.674
17.2080 13.639
17.2231 14.985
17.2383 16.138
17.2535 17.449
17.2687 18.437
17.2838 18.253
17.2990 17.734
17.3142 17.024
17.3294 16.313
17.3445 15.986
17.3597 15.987
17.3749 15.874
17.3901 15.135
17.4052 14.340
17.4204 13.457
17.4356 12.500
17.4508 11.947
17.4659 11.691
17.4811 11.527
17.4963 11.517
17.5115 11.457
17.5266 11.233
17.5418 10.739
17.5570 10.655
17.5722 10.957
17.5873 10.737
17.6025 10.954
17.6177 11.374
17.6329 11.233
17.6480 11.210
17.6632 11.564
17.6784 11.753
17.6936 11.828
17.7087 12.024
17.7239 11.870
17.7391 11.613
17.7543 11.477
17.7694 11.157
17.7846 11.217
17.7998 11.439
17.8150 11.211
17.8301 10.884
17.8453 10.752
17.8605 10.871
17.8757 10.672
17.8908 10.384
17.9060 10.490
17.9212 10.455
17.9364 10.332
17.9515 10.181
17.9667 10.153
17.9819 10.064
17.9971 10.314
18.0122 10.468
18.0274 10.175
18.0426 10.084
18.0578 9.952
18.0729 9.893
18.0881 10.278
18.1033 10.254
18.1185 10.062
18.1336 10.063
18.1488 9.985
18.1640 9.927
18.1792 9.970
18.1943 9.838
18.2095 9.638
18.2247 9.764
18.2399 9.843
18.2550 9.928
18.2702 9.996
18.2854 10.127
18.3006 10.017
18.3157 9.949
18.3309 9.954
18.3461 9.822
18.3613 9.684
18.3764 9.596
18.3916 9.786
18.4068 9.988
18.4220 9.803
18.4371 9.999
18.4523 9.936
18.4675 10.095
18.4827 10.008
18.4978 9.708
18.5130 9.616
18.5282 9.604
18.5434 9.872
18.5585 9.896
18.5737 9.869
18.5889 9.767
18.6041 9.866
18.6192 9.783
18.6344 9.503
18.6496 9.979
18.6648 9.995
18.6799 9.636
18.6951 9.729
18.7103 9.897
18.7255 9.728
18.7406 9.643
18.7558 9.773
18.7710 9.968
18.7862 9.918
18.8013 9.884
18.8165 9.893
18.8317 10.028
18.8469 9.928
18.8620 9.927
18.8772 10.101
18.8924 10.206
18.9076 10.151
18.9227 9.980
18.9379 10.262
18.9531 10.136
18.9683 9.874
18.9834 10.004
18.9986 10.213
19.0138 10.210
19.0290 10.086
19.0441 10.131
19.0593 10.239
19.0745 10.281
19.0897 10.269
19.1048 10.250
19.1200 10.450
19.1352 10.463
19.1504 10.426
19.1655 10.462
19.1807 10.443
19.1959 10.639
19.2111 10.725
19.2262 10.879
19.2414 10.950
19.2566 10.766
19.2718 10.848
19.2869 11.058
19.3021 10.932
19.3173 10.876
19.3325 11.102
19.3476 11.264
19.3628 11.184
19.3780 11.084
19.3932 11.092
19.4083 11.110
19.4235 11.322
19.4387 11.392
19.4539 11.258
19.4690 11.270
19.4842 11.310
19.4994 11.389
19.5146 11.422
19.5297 11.382
19.5449 11.505
19.5601 11.606
19.5753 11.577
19.5904 11.610
19.6056 11.540
19.6208 11.265
19.6360 11.192
19.6511 11.552
19.6663 11.682
19.6815 11.613
19.6967 11.880
19.7118 12.052
19.7270 11.922
19.7422 11.725
19.7574 11.596
19.7725 11.384
19.7877 11.723
19.8029 12.031
19.8180 11.895
19.8332 12.055
19.8484 12.162
19.8636 12.204
19.8787 12.409
19.8939 12.649
19.9091 13.285
19.9243 13.711
19.9394 13.899
19.9546 13.921
19.9698 14.120
19.9850 14.366
20.0001 14.200
20.0153 14.035
20.0305 13.759
20.0457 13.598
20.0608 13.508
20.0760 13.464
20.0912 13.607
20.1064 13.540
20.1215 13.502
20.1367 13.406
20.1519 13.023
20.1671 12.615
20.1822 12.565
20.1974 12.551
20.2126 12.818
20.2278 12.682
20.2429 12.714
20.2581 12.618
20.2733 12.338
20.2885 12.167
20.3036 12.086
20.3188 12.022
20.3340 11.638
20.3492 11.666
20.3643 11.643
20.3795 11.609
20.3947 11.687
20.4099 11.777
20.4250 11.748
20.4402 12.043
20.4554 12.022
20.4706 12.280
20.4857 12.396
20.5009 12.354
20.5161 11.934
20.5313 11.534
20.5464 11.689
20.5616 11.582
20.5768 11.462
20.5920 11.558
20.6071 11.535
20.6223 11.486
20.6375 11.172
20.6527 10.907
20.6678 10.771
20.6830 10.854
20.6982 10.715
20.7134 10.321
20.7285 10.312
20.7437 10.710
20.7589 10.583
20.7741 10.463
20.7892 10.186
20.8044 10.110
20.8196 10.269
20.8348 10.194
20.8499 10.296
20.8651 10.404
20.8803 10.395
20.8955 10.337
20.9106 10.124
20.9258 10.233
20.9410 10.543
20.9562 10.071
20.9713 10.294
20.9865 10.237
21.0017 10.171
21.0169 9.832
21.0320 9.961
21.0472 10.130
21.0624 9.979
21.0776 9.909
21.0927 10.003
21.1079 9.570
21.1231 9.635
21.1383 9.780
21.1534 9.657
21.1686 9.677
21.1838 9.425
21.1990 10.100
21.2141 9.736
21.2293 9.865
21.2445 9.813
21.2597 9.787
21.2748 9.672
21.2900 9.510
21.3052 9.821
21.3204 9.444
21.3355 9.732
21.3507 9.596
21.3659 9.565
21.3811 9.640
21.3962 9.710
21.4114 9.347
21.4266 9.437
21.4418 9.532
21.4569 9.502
21.4721 9.270
21.4873 9.235
21.5025 9.533
21.5176 9.476
21.5328 9.377
21.5480 9.361
21.5632 8.986
21.5783 9.272
21.5935 9.143
21.6087 9.247
21.6239 9.360
21.6390 9.285
21.6542 9.209
21.6694 9.022
21.6846 9.209
21.6997 9.126
21.7149 9.161
21.7301 9.143
21.7453 8.940
21.7604 8.850
21.7756 8.960
21.7908 9.027
21.8060 9.084
21.8211 9.044
21.8363 9.000
21.8515 8.973
21.8667 8.913
21.8818 9.066
21.8970 9.065
21.9122 8.914
21.9274 8.849
21.9425 8.852
21.9577 8.810
21.9729 8.711
21.9881 8.844
22.0032 9.000
22.0184 8.861
22.0336 8.719
22.0488 8.800
22.0639 8.727
22.0791 8.732
22.0943 8.759
22.1095 8.658
22.1246 8.598
22.1398 8.798
22.1550 8.802
22.1702 8.692
22.1853 8.561
22.2005 8.484
22.2157 8.644
22.2309 8.493
22.2460 8.448
22.2612 8.538
22.2764 8.704
22.2916 8.454
22.3067 8.415
22.3219 8.626
22.3371 8.432
22.3523 8.208
22.3674 8.406
22.3826 8.695
22.3978 8.364
22.4130 8.303
22.4281 8.300
22.4433 8.571
22.4585 8.103
22.4737 8.428
22.4888 8.599
22.5040 8.252
22.5192 8.257
22.5344 8.194
22.5495 8.281
22.5647 8.143
22.5799 8.198
22.5951 8.313
22.6102 8.400
22.6254 8.125
22.6406 8.428
22.6558 8.425
22.6709 8.630
22.6861 8.413
22.7013 8.072
22.7165 8.012
22.7316 6.367
