'Id: "" Comment: "" Operator: "Lab Manager" Anode: "Mo" Scantype: "Still (Eiger2R_500K (1D mode))" TimePerStep: "300" X: "11.8" Y: "9.4" Z: "11.284" 
7.2532 18.881
7.2684 18.852
7.2836 18.734
7.2987 18.965
7.3139 18.605
7.3291 19.186
7.3443 19.186
7.3594 19.341
7.3746 19.470
7.3898 19.188
7.4050 19.207
7.4201 19.494
7.4353 19.450
7.4505 19.833
7.4657 19.867
7.4808 19.843
7.4960 19.902
7.5112 19.319
7.5264 19.650
7.5415 19.789
7.5567 19.776
7.5719 19.964
7.5871 19.687
7.6022 19.971
7.6174 20.083
7.6326 19.912
7.6478 19.954
7.6629 19.835
7.6781 19.954
7.6933 20.327
7.7085 20.496
7.7236 20.439
7.7388 20.271
7.7540 20.508
7.7692 20.599
7.7843 20.604
7.7995 20.627
7.8147 20.481
7.8299 20.663
7.8450 20.490
7.8602 20.306
7.8754 20.547
7.8905 20.433
7.9057 20.589
7.9209 20.942
7.9361 21.037
7.9512 20.877
7.9664 20.805
7.9816 20.840
7.9968 20.981
8.0119 21.202
8.0271 21.230
8.0423 21.096
8.0575 21.157
8.0726 21.078
8.0878 21.205
8.1030 21.229
8.1182 21.357
8.1333 21.306
8.1485 21.362
8.1637 21.121
8.1789 21.214
8.1940 21.609
8.2092 21.714
8.2244 21.691
8.2396 21.914
8.2547 21.839
8.2699 21.523
8.2851 21.561
8.3003 21.515
8.3154 21.447
8.3306 21.898
8.3458 21.629
8.3610 21.386
8.3761 22.094
8.3913 21.678
8.4065 21.469
8.4217 21.440
8.4368 21.784
8.4520 21.882
8.4672 21.634
8.4824 22.088
8.4975 22.011
8.5127 22.017
8.5279 21.731
8.5431 21.906
8.5582 22.319
8.5734 22.512
8.5886 22.218
8.6038 22.170
8.6189 22.378
8.6341 22.124
8.6493 22.193
8.6645 22.001
8.6796 22.552
8.6948 22.455
8.7100 22.436
8.7252 22.247
8.7403 22.708
8.7555 22.517
8.7707 22.515
8.7859 22.703
8.8010 22.424
8.8162 22.463
8.8314 22.484
8.8466 22.093
8.8617 22.525
8.8769 22.516
8.8921 22.475
8.9073 22.338
8.9224 22.387
8.9376 22.701
8.9528 22.616
8.9680 22.502
8.9831 22.960
8.9983 22.931
9.0135 23.240
9.0287 22.973
9.0438 22.712
9.0590 22.913
9.0742 22.840
9.0894 22.779
9.1045 22.717
9.1197 22.654
9.1349 22.786
9.1501 22.743
9.1652 22.358
9.1804 22.743
9.1956 22.741
9.2108 22.864
9.2259 22.868
9.2411 22.831
9.2563 22.965
9.2715 22.896
9.2866 23.129
9.3018 23.166
9.3170 23.004
9.3322 23.190
9.3473 23.403
9.3625 23.156
9.3777 23.155
9.3929 23.126
9.4080 22.934
9.4232 23.140
9.4384 23.433
9.4536 23.166
9.4687 22.866
9.4839 23.188
9.4991 23.022
9.5143 22.805
9.5294 23.195
9.5446 23.323
9.5598 23.123
9.5750 23.435
9.5901 23.558
9.6053 23.418
9.6205 23.474
9.6357 23.756
9.6508 23.632
9.6660 23.464
9.6812 23.623
9.6964 23.536
9.7115 23.772
9.7267 23.887
9.7419 24.064
9.7571 24.080
9.7722 23.746
9.7874 23.833
9.8026 23.847
9.8178 23.553
9.8329 23.377
9.8481 23.389
9.8633 23.546
9.8785 23.575
9.8936 23.278
9.9088 23.381
9.9240 23.221
9.9392 22.951
9.9543 23.279
9.9695 23.269
9.9847 23.140
9.9999 23.359
10.0150 23.272
10.0302 23.224
10.0454 23.465
10.0606 23.341
10.0757 23.295
10.0909 23.658
10.1061 23.698
10.1213 23.733
10.1364 23.396
10.1516 23.436
10.1668 23.396
10.1820 23.212
10.1971 23.196
10.2123 23.437
10.2275 23.585
10.2427 23.441
10.2578 23.337
10.2730 23.171
10.2882 22.899
10.3034 22.632
10.3185 22.830
10.3337 23.007
10.3489 22.847
10.3641 22.695
10.3792 23.022
10.3944 23.143
10.4096 23.011
10.4248 22.819
10.4399 22.603
10.4551 22.642
10.4703 22.878
10.4855 22.595
10.5006 22.800
10.5158 22.608
10.5310 22.638
10.5462 22.769
10.5613 22.594
10.5765 22.758
10.5917 22.859
10.6069 22.494
10.6220 22.359
10.6372 22.136
10.6524 22.427
10.6676 22.551
10.6827 22.438
10.6979 22.589
10.7131 22.684
10.7283 22.378
10.7434 22.244
10.7586 22.386
10.7738 21.917
10.7890 22.151
10.8041 22.400
10.8193 22.132
10.8345 22.299
10.8497 22.206
10.8648 22.253
10.8800 22.691
10.8952 22.637
10.9104 22.056
10.9255 21.918
10.9407 22.128
10.9559 21.847
10.9711 21.978
10.9862 22.337
11.0014 22.181
11.0166 21.705
11.0318 22.199
11.0469 22.143
11.0621 22.209
11.0773 21.692
11.0925 22.036
11.1076 21.954
11.1228 21.833
11.1380 21.555
11.1532 21.939
11.1683 22.026
11.1835 21.662
11.1987 21.429
11.2139 21.306
11.2290 21.839
11.2442 21.608
11.2594 21.804
11.2746 21.872
11.2897 21.519
11.3049 21.559
11.3201 21.410
11.3353 21.627
11.3504 21.458
11.3656 21.362
11.3808 21.205
11.3960 21.269
11.4111 21.248
11.4263 21.182
11.4415 21.228
11.4567 21.430
11.4718 21.164
11.4870 21.277
11.5022 21.313
11.5174 21.008
11.5325 20.998
11.5477 20.935
11.5629 21.002
11.5781 20.741
11.5932 20.421
11.6084 20.687
11.6236 21.073
11.6388 20.698
11.6539 20.392
11.6691 20.904
11.6843 20.534
11.6995 20.547
11.7146 20.879
11.7298 20.732
11.7450 20.525
11.7602 20.812
11.7753 20.320
11.7905 19.810
11.8057 19.920
11.8209 19.843
11.8360 19.981
11.8512 20.054
11.8664 19.913
11.8816 19.820
11.8967 19.630
11.9119 19.688
11.9271 19.548
11.9423 19.516
11.9574 19.540
11.9726 19.436
11.9878 19.564
12.0030 19.191
12.0181 19.312
12.0333 19.525
12.0485 18.904
12.0637 18.764
12.0788 18.812
12.0940 18.886
12.1092 18.812
12.1244 18.703
12.1395 18.461
12.1547 18.104
12.1699 18.276
12.1851 18.445
12.2002 18.386
12.2154 18.241
12.2306 18.368
12.2458 18.143
12.2609 17.845
12.2761 17.525
12.2913 17.624
12.3065 17.809
12.3216 17.840
12.3368 17.940
12.3520 17.760
12.3672 17.544
12.3823 17.602
12.3975 17.050
12.4127 16.970
12.4279 16.964
12.4430 16.767
12.4582 16.908
12.4734 17.177
12.4886 16.924
12.5037 16.735
12.5189 16.961
12.5341 16.574
12.5493 16.159
12.5644 16.093
12.5796 16.261
12.5948 16.186
12.6100 16.070
12.6251 16.109
12.6403 16.128
12.6555 16.014
12.6707 15.670
12.6858 15.802
12.7010 15.837
12.7162 15.744
12.7314 15.683
12.7465 15.562
12.7617 15.515
12.7769 15.310
12.7921 15.060
12.8072 15.069
12.8224 15.174
12.8376 15.303
12.8528 15.316
12.8679 14.755
12.8831 14.386
12.8983 14.647
12.9135 14.601
12.9286 14.540
12.9438 14.587
12.9590 14.399
12.9742 14.310
12.9893 14.408
13.0045 14.383
13.0197 14.200
13.0349 14.002
13.0500 13.969
13.0652 13.899
13.0804 13.934
13.0956 13.855
13.1107 13.930
13.1259 13.980
13.1411 13.665
13.1563 13.654
13.1714 13.581
13.1866 13.585
13.2018 13.603
13.2170 13.529
13.2321 13.567
13.2473 13.337
13.2625 13.134
13.2777 13.257
13.2928 13.433
13.3080 13.368
13.3232 13.216
13.3384 13.226
13.3535 13.188
13.3687 13.130
13.3839 13.349
13.3991 13.310
13.4142 13.000
13.4294 13.156
13.4446 13.063
13.4598 12.661
13.4749 12.672
13.4901 12.726
13.5053 12.762
13.5205 12.646
13.5356 12.484
13.5508 12.688
13.5660 12.446
13.5812 12.326
13.5963 12.343
13.6115 12.242
13.6267 12.160
13.6419 12.286
13.6570 12.138
13.6722 12.087
13.6874 12.002
13.7026 12.020
13.7177 11.998
13.7329 11.922
13.7481 12.456
13.7633 12.182
13.7784 11.986
13.7936 12.050
13.8088 12.094
13.8239 12.288
13.8391 12.072
13.8543 12.130
13.8695 12.262
13.8846 12.185
13.8998 11.818
13.9150 12.046
13.9302 12.148
13.9453 12.051
13.9605 12.086
13.9757 12.128
13.9909 11.665
14.0060 11.370
14.0212 11.395
14.0364 11.171
14.0516 11.499
14.0667 11.666
14.0819 11.619
14.0971 11.306
14.1123 11.738
14.1274 11.383
14.1426 11.393
14.1578 11.377
14.1730 11.718
14.1881 11.597
14.2033 11.801
14.2185 11.732
14.2337 11.723
14.2488 11.959
14.2640 12.106
14.2792 12.149
14.2944 12.314
14.3095 12.401
14.3247 12.553
14.3399 12.735
14.3551 12.962
14.3702 13.129
14.3854 13.677
14.4006 13.485
14.4158 13.453
14.4309 13.107
14.4461 12.921
14.4613 13.049
14.4765 12.774
14.4916 12.453
14.5068 12.183
14.5220 11.866
14.5372 11.446
14.5523 10.956
14.5675 11.315
14.5827 11.017
14.5979 11.057
14.6130 10.689
14.6282 10.845
14.6434 10.696
14.6586 10.849
14.6737 10.912
14.6889 10.916
14.7041 10.829
14.7193 10.551
14.7344 10.796
14.7496 10.817
14.7648 10.778
14.7800 10.571
14.7951 10.691
14.8103 10.537
14.8255 10.231
14.8407 10.747
14.8558 10.500
14.8710 10.472
14.8862 10.416
14.9014 10.708
14.9165 11.004
14.9317 10.874
14.9469 10.309
14.9621 10.363
14.9772 10.534
14.9924 10.584
15.0076 10.216
15.0228 10.328
15.0379 10.451
15.0531 10.597
15.0683 10.453
15.0835 10.516
15.0986 10.330
15.1138 10.360
15.1290 10.268
15.1442 10.393
15.1593 10.510
15.1745 10.291
15.1897 10.081
15.2049 10.362
15.2200 9.950
15.2352 10.022
15.2504 10.405
15.2656 10.715
15.2807 10.142
15.2959 10.244
15.3111 10.187
15.3263 10.354
15.3414 9.803
15.3566 10.122
15.3718 10.321
15.3870 10.127
15.4021 10.268
15.4173 10.307
15.4325 10.311
15.4477 10.126
15.4628 10.210
15.4780 10.437
15.4932 10.319
15.5084 10.248
15.5235 9.894
15.5387 10.416
15.5539 10.405
15.5691 10.135
15.5842 10.195
15.5994 9.858
15.6146 9.994
15.6298 9.763
15.6449 10.047
15.6601 10.162
15.6753 9.974
15.6905 9.931
15.7056 9.839
15.7208 9.922
15.7360 9.785
15.7512 9.503
15.7663 9.740
15.7815 9.678
15.7967 9.931
15.8119 9.762
15.8270 9.838
15.8422 9.706
15.8574 9.608
15.8726 9.645
15.8877 9.859
15.9029 9.756
15.9181 9.701
15.9333 9.532
15.9484 9.775
15.9636 9.897
15.9788 9.612
15.9940 9.499
16.0091 9.751
16.0243 9.869
16.0395 9.691
16.0547 9.441
16.0698 9.675
16.0850 9.660
16.1002 9.608
16.1154 9.443
16.1305 9.416
16.1457 9.471
16.1609 9.534
16.1761 9.673
16.1912 9.572
16.2064 9.832
16.2216 9.990
16.2368 9.781
16.2519 9.684
16.2671 9.610
16.2823 9.574
16.2975 9.842
16.3126 9.891
16.3278 9.793
16.3430 9.945
16.3582 9.910
16.3733 10.054
16.3885 9.914
16.4037 9.751
16.4189 9.821
16.4340 9.885
16.4492 9.743
16.4644 9.780
16.4796 9.733
16.4947 9.747
16.5099 10.026
16.5251 9.808
16.5403 9.857
16.5554 9.752
16.5706 9.767
16.5858 9.752
16.6010 9.705
16.6161 9.857
16.6313 9.795
16.6465 9.704
16.6617 9.712
16.6768 9.792
16.6920 9.658
16.7072 9.762
16.7224 9.974
16.7375 9.931
16.7527 10.130
16.7679 10.078
16.7831 9.852
16.7982 10.009
16.8134 10.042
16.8286 9.760
16.8438 9.972
16.8589 9.945
16.8741 9.714
16.8893 9.518
16.9045 9.625
16.9196 9.756
16.9348 9.868
16.9500 9.938
16.9652 9.889
16.9803 9.790
16.9955 9.898
17.0107 10.034
17.0259 10.126
17.0410 10.044
17.0562 10.227
17.0714 10.443
17.0866 10.377
17.1017 10.423
17.1169 10.566
17.1321 10.927
17.1473 11.443
17.1624 11.683
17.1776 12.272
17.1928 13.109
17.2080 13.751
17.2231 15.003
17.2383 16.432
17.2535 17.432
17.2687 18.510
17.2838 18.712
17.2990 18.087
17.3142 17.171
17.3294 16.497
17.3445 16.330
17.3597 15.995
17.3749 15.776
17.3901 15.213
17.4052 14.224
17.4204 13.257
17.4356 12.500
17.4508 12.212
17.4659 11.835
17.4811 11.404
17.4963 11.238
17.5115 10.969
17.5266 10.909
17.5418 10.982
17.5570 11.022
17.5722 11.134
17.5873 11.299
17.6025 11.412
17.6177 11.310
17.6329 11.428
17.6480 11.562
17.6632 11.767
17.6784 11.784
17.6936 11.581
17.7087 11.556
17.7239 11.439
17.7391 11.140
17.7543 11.029
17.7694 11.087
17.7846 10.915
17.7998 10.852
17.8150 10.899
17.8301 10.698
17.8453 10.306
17.8605 10.302
17.8757 10.348
17.8908 10.300
17.9060 10.264
17.9212 10.138
17.9364 10.017
17.9515 9.776
17.9667 9.770
17.9819 10.126
17.9971 10.292
18.0122 10.250
18.0274 10.199
18.0426 10.149
18.0578 9.963
18.0729 9.987
18.0881 10.102
18.1033 10.126
18.1185 10.116
18.1336 9.880
18.1488 9.841
18.1640 9.939
18.1792 9.772
18.1943 9.889
18.2095 9.952
18.2247 9.591
18.2399 9.788
18.2550 10.039
18.2702 9.912
18.2854 9.762
18.3006 9.965
18.3157 10.036
18.3309 10.031
18.3461 9.911
18.3613 9.709
18.3764 9.841
18.3916 9.776
18.4068 9.525
18.4220 9.657
18.4371 9.866
18.4523 9.713
18.4675 9.733
18.4827 9.880
18.4978 9.731
18.5130 9.650
18.5282 9.723
18.5434 9.782
18.5585 9.847
18.5737 9.689
18.5889 9.597
18.6041 9.448
18.6192 9.492
18.6344 9.728
18.6496 9.863
18.6648 9.822
18.6799 9.699
18.6951 9.758
18.7103 10.054
18.7255 9.849
18.7406 9.660
18.7558 9.741
18.7710 9.786
18.7862 9.772
18.8013 9.801
18.8165 9.746
18.8317 9.950
18.8469 10.103
18.8620 9.978
18.8772 10.001
18.8924 9.804
18.9076 9.796
18.9227 9.829
18.9379 9.687
18.9531 9.816
18.9683 9.988
18.9834 10.135
18.9986 10.235
19.0138 10.096
19.0290 9.970
19.0441 9.928
19.0593 9.954
19.0745 10.091
19.0897 10.265
19.1048 10.204
19.1200 10.195
19.1352 10.539
19.1504 10.462
19.1655 10.405
19.1807 10.763
19.1959 10.870
19.2111 10.708
19.2262 10.757
19.2414 10.601
19.2566 10.791
19.2718 10.827
19.2869 10.910
19.3021 11.058
19.3173 11.011
19.3325 11.202
19.3476 11.066
19.3628 10.957
19.3780 10.906
19.3932 11.141
19.4083 11.265
19.4235 11.218
19.4387 11.192
19.4539 11.161
19.4690 11.379
19.4842 11.287
19.4994 11.128
19.5146 11.438
19.5297 11.482
19.5449 11.341
19.5601 11.450
19.5753 11.451
19.5904 11.508
19.6056 11.581
19.6208 11.597
19.6360 11.757
19.6511 11.652
19.6663 11.652
19.6815 11.705
19.6967 11.570
19.7118 11.628
19.7270 11.681
19.7422 11.753
19.7574 11.897
19.7725 12.147
19.7877 11.990
19.8029 11.834
19.8180 12.023
19.8332 12.358
19.8484 12.389
19.8636 12.290
19.8787 12.541
19.8939 12.731
19.9091 13.114
19.9243 13.509
19.9394 13.619
19.9546 13.835
19.9698 14.061
19.9850 14.100
20.0001 14.208
20.0153 14.186
20.0305 14.007
20.0457 13.487
20.0608 13.458
20.0760 13.758
20.0912 13.718
20.1064 13.535
20.1215 13.334
20.1367 13.127
20.1519 12.995
20.1671 12.727
20.1822 12.797
20.1974 12.793
20.2126 12.256
20.2278 12.389
20.2429 12.648
20.2581 12.426
20.2733 12.222
20.2885 12.167
20.3036 12.169
20.3188 12.098
20.3340 11.882
20.3492 12.006
20.3643 12.018
20.3795 11.970
20.3947 11.747
20.4099 11.765
20.4250 11.874
20.4402 11.912
20.4554 12.084
20.4706 11.985
20.4857 11.860
20.5009 11.451
20.5161 11.588
20.5313 11.326
20.5464 11.497
20.5616 11.114
20.5768 11.323
20.5920 11.341
20.6071 11.236
20.6223 10.920
20.6375 10.736
20.6527 10.630
20.6678 10.487
20.6830 10.538
20.6982 10.626
20.7134 10.882
20.7285 10.460
20.7437 10.433
20.7589 10.406
20.7741 10.060
20.7892 10.452
20.8044 10.164
20.8196 10.255
20.8348 10.504
20.8499 10.319
20.8651 10.184
20.8803 9.962
20.8955 9.798
20.9106 10.374
20.9258 10.072
20.9410 9.982
20.9562 10.250
20.9713 10.261
20.9865 10.359
21.0017 10.140
21.0169 9.921
21.0320 9.901
21.0472 9.756
21.0624 9.886
21.0776 9.751
21.0927 9.942
21.1079 10.048
21.1231 10.037
21.1383 9.425
21.1534 9.846
21.1686 9.745
21.1838 9.746
21.1990 9.614
21.2141 9.935
21.2293 9.681
21.2445 9.762
21.2597 9.415
21.2748 9.585
21.2900 9.603
21.3052 9.643
21.3204 9.784
21.3355 9.589
21.3507 9.725
21.3659 9.341
21.3811 9.584
21.3962 9.969
21.4114 9.572
21.4266 9.618
21.4418 9.527
21.4569 9.659
21.4721 9.220
21.4873 9.414
21.5025 9.534
21.5176 9.410
21.5328 9.474
21.5480 9.192
21.5632 8.991
21.5783 9.141
21.5935 9.168
21.6087 9.284
21.6239 9.212
21.6390 9.400
21.6542 9.280
21.6694 9.262
21.6846 9.190
21.6997 9.255
21.7149 9.133
21.7301 8.930
21.7453 9.129
21.7604 9.070
21.7756 8.859
21.7908 8.933
21.8060 9.098
21.8211 9.119
21.8363 8.973
21.8515 8.964
21.8667 9.145
21.8818 9.102
21.8970 9.049
21.9122 9.137
21.9274 9.071
21.9425 9.023
21.9577 8.967
21.9729 8.772
21.9881 8.699
22.0032 8.936
22.0184 9.108
22.0336 8.931
22.0488 8.712
22.0639 8.749
22.0791 8.772
22.0943 8.751
22.1095 8.800
22.1246 8.701
22.1398 8.477
22.1550 8.599
22.1702 8.832
22.1853 8.952
22.2005 8.735
22.2157 8.790
22.2309 8.704
22.2460 8.444
22.2612 8.551
22.2764 8.702
22.2916 8.778
22.3067 8.614
22.3219 8.617
22.3371 8.668
22.3523 8.550
22.3674 8.597
22.3826 8.651
22.3978 8.445
22.4130 8.465
22.4281 8.453
22.4433 8.462
22.4585 8.532
22.4737 8.623
22.4888 8.315
22.5040 8.359
22.5192 8.438
22.5344 8.497
22.5495 8.327
22.5647 8.351
22.5799 8.610
22.5951 8.279
22.6102 8.489
22.6254 8.553
22.6406 8.187
22.6558 8.066
22.6709 8.288
22.6861 8.182
22.7013 8.427
22.7165 7.929
22.7316 6.414
