'Id: "" Comment: "" Operator: "Lab Manager" Anode: "Mo" Scantype: "Still (Eiger2R_500K (1D mode))" TimePerStep: "300" X: "11.8" Y: "9.4" Z: "11.284" 
7.2532 18.306
7.2684 18.869
7.2836 19.129
7.2987 18.767
7.3139 18.877
7.3291 19.208
7.3443 18.796
7.3594 18.841
7.3746 19.223
7.3898 19.574
7.4050 19.141
7.4201 19.174
7.4353 19.328
7.4505 19.464
7.4657 19.523
7.4808 19.693
7.4960 19.393
7.5112 19.830
7.5264 19.539
7.5415 19.615
7.5567 19.918
7.5719 19.856
7.5871 19.871
7.6022 19.813
7.6174 19.678
7.6326 19.822
7.6478 20.155
7.6629 20.301
7.6781 20.343
7.6933 19.974
7.7085 20.180
7.7236 20.431
7.7388 20.315
7.7540 20.375
7.7692 20.499
7.7843 20.367
7.7995 20.270
7.8147 20.247
7.8299 20.555
7.8450 20.618
7.8602 20.734
7.8754 20.893
7.8905 20.676
7.9057 20.584
7.9209 20.517
7.9361 20.722
7.9512 20.769
7.9664 20.972
7.9816 21.290
7.9968 20.927
8.0119 21.011
8.0271 21.287
8.0423 21.222
8.0575 21.215
8.0726 21.172
8.0878 21.244
8.1030 20.746
8.1182 20.806
8.1333 21.200
8.1485 21.456
8.1637 21.320
8.1789 21.322
8.1940 21.135
8.2092 21.347
8.2244 21.422
8.2396 21.229
8.2547 21.136
8.2699 21.494
8.2851 21.539
8.3003 21.498
8.3154 21.745
8.3306 21.422
8.3458 21.764
8.3610 21.703
8.3761 21.612
8.3913 22.037
8.4065 21.991
8.4217 21.582
8.4368 21.910
8.4520 22.248
8.4672 21.698
8.4824 21.678
8.4975 21.379
8.5127 22.121
8.5279 21.843
8.5431 21.895
8.5582 22.148
8.5734 21.866
8.5886 21.903
8.6038 21.713
8.6189 21.869
8.6341 21.801
8.6493 21.989
8.6645 22.050
8.6796 22.641
8.6948 22.325
8.7100 22.252
8.7252 22.239
8.7403 22.095
8.7555 22.232
8.7707 22.466
8.7859 22.466
8.8010 22.444
8.8162 22.542
8.8314 22.413
8.8466 22.510
8.8617 22.241
8.8769 22.944
8.8921 22.708
8.9073 22.427
8.9224 22.404
8.9376 22.262
8.9528 22.478
8.9680 22.527
8.9831 22.408
8.9983 22.521
9.0135 22.944
9.0287 22.590
9.0438 23.190
9.0590 23.045
9.0742 22.634
9.0894 22.413
9.1045 22.371
9.1197 22.425
9.1349 22.598
9.1501 22.543
9.1652 22.648
9.1804 22.884
9.1956 22.884
9.2108 22.878
9.2259 22.841
9.2411 22.765
9.2563 22.776
9.2715 22.713
9.2866 23.162
9.3018 23.300
9.3170 23.028
9.3322 22.897
9.3473 22.645
9.3625 22.812
9.3777 22.965
9.3929 22.955
9.4080 22.631
9.4232 23.022
9.4384 23.219
9.4536 22.990
9.4687 22.995
9.4839 22.959
9.4991 22.655
9.5143 22.822
9.5294 23.021
9.5446 23.124
9.5598 23.204
9.5750 23.041
9.5901 22.806
9.6053 23.028
9.6205 23.177
9.6357 23.122
9.6508 23.377
9.6660 23.683
9.6812 23.612
9.6964 23.585
9.7115 23.713
9.7267 23.865
9.7419 23.709
9.7571 23.429
9.7722 23.350
9.7874 23.294
9.8026 23.040
9.8178 23.195
9.8329 23.432
9.8481 22.962
9.8633 22.738
9.8785 22.895
9.8936 23.038
9.9088 23.336
9.9240 23.192
9.9392 23.076
9.9543 23.182
9.9695 23.610
9.9847 23.509
9.9999 23.166
10.0150 23.296
10.0302 23.522
10.0454 23.466
10.0606 23.198
10.0757 23.246
10.0909 23.191
10.1061 23.625
10.1213 23.613
10.1364 23.334
10.1516 22.940
10.1668 22.917
10.1820 23.233
10.1971 23.067
10.2123 23.121
10.2275 23.258
10.2427 23.053
10.2578 22.856
10.2730 22.893
10.2882 22.817
10.3034 22.881
10.3185 22.811
10.3337 23.046
10.3489 23.051
10.3641 22.585
10.3792 22.718
10.3944 22.675
10.4096 22.562
10.4248 22.575
10.4399 22.698
10.4551 22.559
10.4703 22.484
10.4855 22.761
10.5006 22.615
10.5158 22.356
10.5310 22.334
10.5462 22.284
10.5613 22.524
10.5765 22.805
10.5917 22.586
10.6069 22.573
10.6220 22.049
10.6372 22.115
10.6524 22.198
10.6676 22.314
10.6827 22.763
10.6979 22.935
10.7131 22.186
10.7283 22.133
10.7434 22.631
10.7586 22.541
10.7738 22.427
10.7890 22.372
10.8041 22.581
10.8193 22.450
10.8345 22.031
10.8497 22.324
10.8648 22.592
10.8800 22.027
10.8952 21.784
10.9104 22.141
10.9255 22.034
10.9407 21.588
10.9559 21.811
10.9711 22.050
10.9862 21.991
11.0014 21.944
11.0166 22.324
11.0318 22.610
11.0469 22.102
11.0621 22.080
11.0773 21.943
11.0925 21.772
11.1076 21.761
11.1228 21.542
11.1380 21.484
11.1532 21.719
11.1683 21.637
11.1835 21.726
11.1987 21.593
11.2139 21.561
11.2290 21.616
11.2442 21.451
11.2594 21.318
11.2746 21.229
11.2897 21.184
11.3049 21.537
11.3201 21.368
11.3353 21.446
11.3504 21.705
11.3656 21.522
11.3808 21.270
11.3960 21.265
11.4111 21.593
11.4263 21.571
11.4415 21.108
11.4567 21.365
11.4718 20.931
11.4870 20.945
11.5022 21.170
11.5174 20.803
11.5325 21.008
11.5477 20.925
11.5629 20.710
11.5781 20.660
11.5932 20.653
11.6084 20.632
11.6236 20.971
11.6388 21.205
11.6539 21.038
11.6691 20.677
11.6843 20.797
11.6995 20.431
11.7146 20.551
11.7298 20.521
11.7450 20.326
11.7602 20.520
11.7753 20.222
11.7905 20.121
11.8057 19.999
11.8209 20.126
11.8360 20.088
11.8512 19.788
11.8664 19.758
11.8816 19.396
11.8967 19.160
11.9119 19.151
11.9271 19.506
11.9423 19.560
11.9574 19.707
11.9726 19.265
11.9878 19.015
12.0030 18.954
12.0181 19.206
12.0333 19.124
12.0485 18.929
12.0637 18.797
12.0788 19.137
12.0940 18.544
12.1092 18.325
12.1244 18.592
12.1395 18.867
12.1547 18.752
12.1699 18.450
12.1851 18.260
12.2002 18.065
12.2154 18.244
12.2306 18.212
12.2458 17.831
12.2609 17.893
12.2761 17.710
12.2913 17.659
12.3065 17.911
12.3216 17.824
12.3368 17.613
12.3520 17.510
12.3672 17.256
12.3823 17.422
12.3975 17.208
12.4127 17.094
12.4279 17.069
12.4430 16.882
12.4582 16.914
12.4734 17.069
12.4886 16.700
12.5037 16.576
12.5189 16.650
12.5341 16.507
12.5493 16.683
12.5644 16.579
12.5796 16.219
12.5948 16.117
12.6100 15.732
12.6251 15.913
12.6403 16.083
12.6555 15.924
12.6707 15.504
12.6858 15.443
12.7010 15.567
12.7162 15.863
12.7314 15.593
12.7465 15.605
12.7617 15.654
12.7769 15.314
12.7921 14.944
12.8072 14.891
12.8224 14.964
12.8376 14.872
12.8528 14.752
12.8679 14.902
12.8831 14.761
12.8983 14.492
12.9135 14.590
12.9286 14.594
12.9438 14.415
12.9590 14.395
12.9742 14.461
12.9893 14.186
13.0045 14.229
13.0197 14.357
13.0349 14.135
13.0500 14.048
13.0652 14.059
13.0804 13.828
13.0956 13.696
13.1107 13.813
13.1259 13.948
13.1411 13.870
13.1563 13.714
13.1714 13.742
13.1866 13.583
13.2018 13.420
13.2170 13.400
13.2321 13.434
13.2473 13.358
13.2625 13.231
13.2777 13.109
13.2928 13.153
13.3080 13.136
13.3232 12.835
13.3384 13.085
13.3535 12.996
13.3687 12.826
13.3839 13.131
13.3991 12.971
13.4142 12.831
13.4294 12.782
13.4446 12.730
13.4598 12.692
13.4749 12.737
13.4901 12.718
13.5053 12.438
13.5205 12.233
13.5356 12.397
13.5508 12.529
13.5660 12.411
13.5812 12.225
13.5963 12.118
13.6115 12.203
13.6267 12.170
13.6419 11.856
13.6570 11.896
13.6722 12.209
13.6874 12.075
13.7026 11.994
13.7177 12.200
13.7329 12.213
13.7481 11.993
13.7633 12.036
13.7784 12.237
13.7936 12.364
13.8088 12.426
13.8239 12.220
13.8391 12.254
13.8543 12.326
13.8695 12.585
13.8846 12.505
13.8998 12.044
13.9150 12.058
13.9302 12.384
13.9453 12.108
13.9605 12.007
13.9757 11.889
13.9909 12.030
14.0060 11.812
14.0212 11.565
14.0364 11.861
14.0516 11.683
14.0667 11.853
14.0819 11.652
14.0971 11.698
14.1123 11.864
14.1274 12.026
14.1426 11.753
14.1578 11.701
14.1730 11.961
14.1881 11.898
14.2033 12.000
14.2185 11.828
14.2337 11.989
14.2488 11.883
14.2640 11.946
14.2792 11.897
14.2944 11.965
14.3095 11.962
14.3247 12.066
14.3399 12.157
14.3551 12.601
14.3702 13.010
14.3854 13.404
14.4006 13.319
14.4158 13.426
14.4309 13.241
14.4461 13.060
14.4613 12.586
14.4765 12.655
14.4916 12.447
14.5068 12.187
14.5220 12.216
14.5372 11.789
14.5523 11.498
14.5675 11.239
14.5827 11.477
14.5979 11.009
14.6130 10.882
14.6282 10.999
14.6434 10.946
14.6586 10.687
14.6737 10.692
14.6889 10.572
14.7041 10.837
14.7193 10.381
14.7344 10.306
14.7496 10.983
14.7648 10.654
14.7800 10.905
14.7951 10.627
14.8103 10.699
14.8255 10.620
14.8407 10.644
14.8558 10.433
14.8710 10.338
14.8862 10.050
14.9014 10.457
14.9165 10.892
14.9317 10.563
14.9469 10.712
14.9621 10.177
14.9772 10.135
14.9924 10.170
15.0076 10.311
15.0228 10.241
15.0379 10.553
15.0531 10.155
15.0683 10.269
15.0835 10.176
15.0986 10.427
15.1138 10.260
15.1290 10.395
15.1442 9.903
15.1593 10.697
15.1745 10.340
15.1897 10.333
15.2049 10.280
15.2200 10.086
15.2352 9.926
15.2504 10.025
15.2656 10.010
15.2807 9.948
15.2959 9.999
15.3111 10.268
15.3263 10.267
15.3414 9.996
15.3566 9.882
15.3718 10.028
15.3870 10.315
15.4021 10.442
15.4173 10.372
15.4325 10.228
15.4477 10.081
15.4628 10.065
15.4780 10.377
15.4932 9.969
15.5084 10.273
15.5235 10.278
15.5387 10.166
15.5539 9.992
15.5691 10.062
15.5842 10.136
15.5994 9.924
15.6146 9.786
15.6298 9.749
15.6449 9.955
15.6601 9.688
15.6753 9.904
15.6905 9.847
15.7056 9.899
15.7208 9.761
15.7360 9.842
15.7512 9.879
15.7663 9.626
15.7815 9.753
15.7967 9.582
15.8119 9.780
15.8270 9.757
15.8422 9.629
15.8574 9.774
15.8726 9.636
15.8877 9.817
15.9029 9.548
15.9181 9.900
15.9333 9.668
15.9484 9.731
15.9636 9.567
15.9788 9.634
15.9940 9.645
16.0091 9.460
16.0243 9.440
16.0395 9.767
16.0547 9.636
16.0698 9.778
16.0850 9.747
16.1002 9.661
16.1154 9.717
16.1305 9.725
16.1457 9.695
16.1609 9.830
16.1761 9.717
16.1912 9.579
16.2064 9.668
16.2216 9.768
16.2368 9.735
16.2519 9.673
16.2671 9.725
16.2823 9.542
16.2975 9.814
16.3126 9.891
16.3278 9.897
16.3430 9.887
16.3582 9.912
16.3733 9.919
16.3885 9.769
16.4037 9.774
16.4189 9.946
16.4340 9.948
16.4492 9.902
16.4644 9.930
16.4796 9.953
16.4947 9.860
16.5099 9.630
16.5251 9.900
16.5403 9.836
16.5554 9.561
16.5706 9.480
16.5858 9.646
16.6010 9.726
16.6161 9.908
16.6313 9.708
16.6465 9.568
16.6617 9.682
16.6768 9.904
16.6920 9.981
16.7072 10.008
16.7224 9.980
16.7375 10.065
16.7527 10.239
16.7679 10.159
16.7831 10.089
16.7982 10.070
16.8134 9.793
16.8286 9.867
16.8438 9.904
16.8589 9.893
16.8741 9.722
16.8893 9.659
16.9045 9.962
16.9196 9.848
16.9348 9.723
16.9500 9.658
16.9652 9.474
16.9803 9.732
16.9955 9.804
17.0107 9.751
17.0259 9.879
17.0410 9.921
17.0562 9.866
17.0714 10.080
17.0866 10.562
17.1017 10.730
17.1169 10.587
17.1321 10.808
17.1473 11.231
17.1624 11.822
17.1776 12.461
17.1928 12.892
17.2080 13.622
17.2231 15.049
17.2383 16.637
17.2535 17.664
17.2687 18.357
17.2838 18.412
17.2990 17.692
17.3142 16.946
17.3294 16.440
17.3445 16.322
17.3597 16.302
17.3749 16.170
17.3901 15.401
17.4052 14.024
17.4204 13.214
17.4356 12.684
17.4508 12.112
17.4659 11.763
17.4811 11.618
17.4963 11.751
17.5115 11.453
17.5266 11.033
17.5418 11.057
17.5570 11.166
17.5722 11.226
17.5873 11.195
17.6025 11.327
17.6177 11.193
17.6329 11.095
17.6480 11.252
17.6632 11.326
17.6784 11.516
17.6936 11.338
17.7087 11.125
17.7239 11.282
17.7391 11.055
17.7543 11.119
17.7694 11.180
17.7846 10.804
17.7998 10.919
17.8150 10.824
17.8301 10.426
17.8453 10.456
17.8605 10.290
17.8757 10.127
17.8908 10.356
17.9060 10.550
17.9212 10.123
17.9364 9.839
17.9515 10.031
17.9667 10.147
17.9819 10.335
17.9971 10.471
18.0122 10.095
18.0274 10.098
18.0426 10.180
18.0578 10.122
18.0729 10.156
18.0881 9.969
18.1033 10.066
18.1185 10.135
18.1336 10.037
18.1488 9.997
18.1640 9.761
18.1792 9.807
18.1943 9.845
18.2095 9.948
18.2247 9.969
18.2399 9.803
18.2550 9.885
18.2702 10.017
18.2854 9.881
18.3006 9.796
18.3157 9.924
18.3309 9.884
18.3461 9.793
18.3613 9.990
18.3764 9.826
18.3916 9.676
18.4068 9.905
18.4220 9.995
18.4371 9.813
18.4523 9.780
18.4675 9.845
18.4827 9.742
18.4978 9.780
18.5130 9.914
18.5282 9.738
18.5434 9.654
18.5585 9.910
18.5737 9.838
18.5889 9.810
18.6041 9.677
18.6192 9.756
18.6344 9.984
18.6496 9.809
18.6648 9.603
18.6799 9.558
18.6951 9.600
18.7103 9.912
18.7255 9.746
18.7406 9.728
18.7558 9.740
18.7710 9.675
18.7862 9.950
18.8013 9.994
18.8165 9.729
18.8317 9.787
18.8469 9.779
18.8620 9.850
18.8772 10.026
18.8924 10.029
18.9076 10.014
18.9227 9.962
18.9379 9.956
18.9531 9.964
18.9683 9.982
18.9834 9.893
18.9986 9.783
19.0138 9.677
19.0290 9.944
19.0441 10.069
19.0593 10.328
19.0745 10.323
19.0897 10.138
19.1048 10.218
19.1200 10.390
19.1352 10.382
19.1504 10.468
19.1655 10.753
19.1807 10.654
19.1959 10.551
19.2111 10.358
19.2262 10.591
19.2414 10.995
19.2566 11.053
19.2718 10.984
19.2869 10.903
19.3021 10.832
19.3173 10.878
19.3325 10.907
19.3476 10.923
19.3628 11.093
19.3780 11.020
19.3932 10.996
19.4083 11.136
19.4235 11.026
19.4387 10.954
19.4539 11.235
19.4690 11.475
19.4842 11.397
19.4994 11.234
19.5146 11.201
19.5297 11.328
19.5449 11.512
19.5601 11.632
19.5753 11.747
19.5904 11.684
19.6056 11.499
19.6208 11.610
19.6360 11.461
19.6511 11.599
19.6663 11.757
19.6815 11.704
19.6967 11.713
19.7118 11.737
19.7270 11.683
19.7422 11.837
19.7574 12.034
19.7725 11.937
19.7877 11.869
19.8029 11.908
19.8180 11.947
19.8332 12.192
19.8484 12.231
19.8636 12.225
19.8787 12.527
19.8939 12.731
19.9091 13.001
19.9243 13.378
19.9394 13.733
19.9546 13.935
19.9698 14.043
19.9850 14.240
20.0001 14.229
20.0153 13.995
20.0305 13.993
20.0457 13.845
20.0608 13.640
20.0760 13.679
20.0912 13.643
20.1064 13.726
20.1215 13.747
20.1367 13.635
20.1519 13.286
20.1671 12.827
20.1822 12.584
20.1974 12.540
20.2126 12.568
20.2278 12.586
20.2429 12.732
20.2581 12.460
20.2733 11.931
20.2885 11.832
20.3036 11.958
20.3188 12.176
20.3340 11.877
20.3492 11.944
20.3643 12.175
20.3795 11.931
20.3947 11.633
20.4099 11.735
20.4250 11.937
20.4402 12.134
20.4554 11.813
20.4706 11.855
20.4857 11.854
20.5009 11.601
20.5161 11.406
20.5313 11.719
20.5464 11.635
20.5616 11.427
20.5768 11.447
20.5920 11.276
20.6071 11.025
20.6223 10.953
20.6375 10.864
20.6527 10.763
20.6678 10.717
20.6830 10.813
20.6982 10.671
20.7134 10.588
20.7285 10.288
20.7437 10.094
20.7589 10.222
20.7741 10.479
20.7892 10.139
20.8044 10.115
20.8196 10.289
20.8348 9.963
20.8499 10.116
20.8651 10.256
20.8803 10.165
20.8955 10.140
20.9106 10.350
20.9258 10.281
20.9410 10.096
20.9562 9.927
20.9713 10.190
20.9865 10.200
21.0017 10.012
21.0169 9.622
21.0320 9.881
21.0472 9.955
21.0624 10.051
21.0776 10.105
21.0927 9.908
21.1079 9.871
21.1231 9.693
21.1383 9.702
21.1534 10.003
21.1686 9.695
21.1838 9.853
21.1990 9.778
21.2141 9.661
21.2293 9.773
21.2445 9.884
21.2597 9.742
21.2748 9.655
21.2900 9.522
21.3052 9.177
21.3204 9.337
21.3355 9.646
21.3507 9.351
21.3659 9.601
21.3811 9.719
21.3962 9.390
21.4114 9.318
21.4266 9.344
21.4418 9.430
21.4569 9.172
21.4721 9.548
21.4873 9.743
21.5025 9.600
21.5176 9.632
21.5328 9.333
21.5480 8.964
21.5632 9.230
21.5783 9.233
21.5935 9.076
21.6087 9.128
21.6239 9.210
21.6390 9.086
21.6542 9.129
21.6694 9.278
21.6846 9.027
21.6997 9.277
21.7149 9.234
21.7301 8.935
21.7453 9.006
21.7604 8.890
21.7756 8.800
21.7908 9.040
21.8060 9.188
21.8211 9.139
21.8363 9.191
21.8515 9.339
21.8667 9.395
21.8818 9.194
21.8970 8.927
21.9122 8.812
21.9274 8.922
21.9425 9.070
21.9577 9.097
21.9729 9.018
21.9881 8.917
22.0032 8.856
22.0184 8.736
22.0336 8.958
22.0488 8.995
22.0639 8.801
22.0791 8.969
22.0943 9.091
22.1095 8.953
22.1246 8.776
22.1398 8.866
22.1550 8.677
22.1702 8.522
22.1853 8.323
22.2005 8.457
22.2157 8.617
22.2309 8.622
22.2460 8.414
22.2612 8.375
22.2764 8.454
22.2916 8.543
22.3067 8.545
22.3219 8.486
22.3371 8.511
22.3523 8.496
22.3674 8.535
22.3826 8.410
22.3978 8.622
22.4130 8.713
22.4281 8.568
22.4433 8.632
22.4585 8.490
22.4737 8.439
22.4888 8.412
22.5040 8.395
22.5192 8.301
22.5344 8.655
22.5495 8.379
22.5647 8.357
22.5799 8.544
22.5951 8.232
22.6102 8.486
22.6254 8.323
22.6406 8.425
22.6558 8.537
22.6709 8.593
22.6861 8.378
22.7013 8.174
22.7165 7.964
22.7316 6.351
