'Id: "" Comment: "" Operator: "Lab Manager" Anode: "Mo" Scantype: "Still (Eiger2R_500K (1D mode))" TimePerStep: "300" X: "11.8" Y: "9.4" Z: "11.284" 
7.2532 18.824
7.2684 18.820
7.2836 18.491
7.2987 19.291
7.3139 19.551
7.3291 19.114
7.3443 18.957
7.3594 19.131
7.3746 19.621
7.3898 19.622
7.4050 19.115
7.4201 19.389
7.4353 19.451
7.4505 19.662
7.4657 19.611
7.4808 19.683
7.4960 19.792
7.5112 19.079
7.5264 19.703
7.5415 19.742
7.5567 19.869
7.5719 20.035
7.5871 20.138
7.6022 20.007
7.6174 19.850
7.6326 19.798
7.6478 20.069
7.6629 20.124
7.6781 20.464
7.6933 20.415
7.7085 20.518
7.7236 20.337
7.7388 20.374
7.7540 20.373
7.7692 20.597
7.7843 20.550
7.7995 20.269
7.8147 20.716
7.8299 20.944
7.8450 20.536
7.8602 20.786
7.8754 20.948
7.8905 20.872
7.9057 20.950
7.9209 20.960
7.9361 20.846
7.9512 21.110
7.9664 20.938
7.9816 20.997
7.9968 21.410
8.0119 21.012
8.0271 21.033
8.0423 21.083
8.0575 21.021
8.0726 20.951
8.0878 21.238
8.1030 20.956
8.1182 20.396
8.1333 21.295
8.1485 21.205
8.1637 21.095
8.1789 21.371
8.1940 21.205
8.2092 21.302
8.2244 21.473
8.2396 21.878
8.2547 21.601
8.2699 21.355
8.2851 21.412
8.3003 21.763
8.3154 21.746
8.3306 21.524
8.3458 21.870
8.3610 21.505
8.3761 21.905
8.3913 21.659
8.4065 22.235
8.4217 22.065
8.4368 21.854
8.4520 22.068
8.4672 21.877
8.4824 21.666
8.4975 22.042
8.5127 22.069
8.5279 22.071
8.5431 21.863
8.5582 22.122
8.5734 22.088
8.5886 22.564
8.6038 22.473
8.6189 22.324
8.6341 22.003
8.6493 22.151
8.6645 22.162
8.6796 22.712
8.6948 22.419
8.7100 22.438
8.7252 22.499
8.7403 22.504
8.7555 22.177
8.7707 22.295
8.7859 22.068
8.8010 22.448
8.8162 22.089
8.8314 22.736
8.8466 22.668
8.8617 22.758
8.8769 22.853
8.8921 22.509
8.9073 22.595
8.9224 22.526
8.9376 22.774
8.9528 23.057
8.9680 23.040
8.9831 22.721
8.9983 22.751
9.0135 22.884
9.0287 22.697
9.0438 22.802
9.0590 23.068
9.0742 22.739
9.0894 22.711
9.1045 22.765
9.1197 22.660
9.1349 22.440
9.1501 23.013
9.1652 22.680
9.1804 22.769
9.1956 22.687
9.2108 22.445
9.2259 23.057
9.2411 23.116
9.2563 23.174
9.2715 22.739
9.2866 22.794
9.3018 22.892
9.3170 23.131
9.3322 22.949
9.3473 23.233
9.3625 23.000
9.3777 23.091
9.3929 22.987
9.4080 23.053
9.4232 23.039
9.4384 23.094
9.4536 22.889
9.4687 23.075
9.4839 23.102
9.4991 23.037
9.5143 23.152
9.5294 23.132
9.5446 23.206
9.5598 23.413
9.5750 23.535
9.5901 23.335
9.6053 22.987
9.6205 22.992
9.6357 23.503
9.6508 23.317
9.6660 23.157
9.6812 23.605
9.6964 23.817
9.7115 24.014
9.7267 24.186
9.7419 24.254
9.7571 24.110
9.7722 23.833
9.7874 23.538
9.8026 23.289
9.8178 23.400
9.8329 23.216
9.8481 23.222
9.8633 23.332
9.8785 23.219
9.8936 23.471
9.9088 23.146
9.9240 23.100
9.9392 23.240
9.9543 23.147
9.9695 23.197
9.9847 23.377
9.9999 23.677
10.0150 23.492
10.0302 23.485
10.0454 23.304
10.0606 22.944
10.0757 22.980
10.0909 23.272
10.1061 23.233
10.1213 23.426
10.1364 23.588
10.1516 23.179
10.1668 23.342
10.1820 23.248
10.1971 22.890
10.2123 23.054
10.2275 22.974
10.2427 22.861
10.2578 22.994
10.2730 22.805
10.2882 22.718
10.3034 22.638
10.3185 22.566
10.3337 22.745
10.3489 22.776
10.3641 22.792
10.3792 22.812
10.3944 22.989
10.4096 23.007
10.4248 23.162
10.4399 22.797
10.4551 22.843
10.4703 22.510
10.4855 22.202
10.5006 22.560
10.5158 23.028
10.5310 22.799
10.5462 22.245
10.5613 22.440
10.5765 22.450
10.5917 22.413
10.6069 22.474
10.6220 22.347
10.6372 22.432
10.6524 22.160
10.6676 22.516
10.6827 22.530
10.6979 22.622
10.7131 22.526
10.7283 22.579
10.7434 22.487
10.7586 22.818
10.7738 22.834
10.7890 22.197
10.8041 22.120
10.8193 22.012
10.8345 21.811
10.8497 22.108
10.8648 22.142
10.8800 21.978
10.8952 22.263
10.9104 22.060
10.9255 21.990
10.9407 22.170
10.9559 22.241
10.9711 22.218
10.9862 22.137
11.0014 21.635
11.0166 21.622
11.0318 21.931
11.0469 21.944
11.0621 21.641
11.0773 21.474
11.0925 21.484
11.1076 21.782
11.1228 21.784
11.1380 21.696
11.1532 21.789
11.1683 21.859
11.1835 21.327
11.1987 21.585
11.2139 21.856
11.2290 21.709
11.2442 21.701
11.2594 21.682
11.2746 21.686
11.2897 21.461
11.3049 21.291
11.3201 21.210
11.3353 21.365
11.3504 21.367
11.3656 21.488
11.3808 21.249
11.3960 21.389
11.4111 21.336
11.4263 21.189
11.4415 20.864
11.4567 21.089
11.4718 21.318
11.4870 21.238
11.5022 21.177
11.5174 21.037
11.5325 21.287
11.5477 20.897
11.5629 20.683
11.5781 20.586
11.5932 20.157
11.6084 20.273
11.6236 20.671
11.6388 20.948
11.6539 20.781
11.6691 20.652
11.6843 20.526
11.6995 20.590
11.7146 20.405
11.7298 20.305
11.7450 20.403
11.7602 20.289
11.7753 20.322
11.7905 20.273
11.8057 20.405
11.8209 20.135
11.8360 19.914
11.8512 19.823
11.8664 20.060
11.8816 20.044
11.8967 19.895
11.9119 19.889
11.9271 19.666
11.9423 19.552
11.9574 19.532
11.9726 19.399
11.9878 19.480
12.0030 19.122
12.0181 19.216
12.0333 19.067
12.0485 18.744
12.0637 18.855
12.0788 18.672
12.0940 18.457
12.1092 18.509
12.1244 18.804
12.1395 18.528
12.1547 18.470
12.1699 18.631
12.1851 18.359
12.2002 18.261
12.2154 17.942
12.2306 17.884
12.2458 18.071
12.2609 17.924
12.2761 18.029
12.2913 18.257
12.3065 18.033
12.3216 17.710
12.3368 17.569
12.3520 17.451
12.3672 17.193
12.3823 17.062
12.3975 17.512
12.4127 17.426
12.4279 17.349
12.4430 17.178
12.4582 16.775
12.4734 16.683
12.4886 16.795
12.5037 16.746
12.5189 16.827
12.5341 16.645
12.5493 16.341
12.5644 16.301
12.5796 16.216
12.5948 16.202
12.6100 16.081
12.6251 16.068
12.6403 16.034
12.6555 15.896
12.6707 15.935
12.6858 15.886
12.7010 16.093
12.7162 16.112
12.7314 15.647
12.7465 15.388
12.7617 15.333
12.7769 15.407
12.7921 15.212
12.8072 15.200
12.8224 15.251
12.8376 15.173
12.8528 15.055
12.8679 14.801
12.8831 14.799
12.8983 14.744
12.9135 14.701
12.9286 14.681
12.9438 14.562
12.9590 14.586
12.9742 14.526
12.9893 14.384
13.0045 14.451
13.0197 14.316
13.0349 14.063
13.0500 14.060
13.0652 14.280
13.0804 14.278
13.0956 13.978
13.1107 13.801
13.1259 13.778
13.1411 14.002
13.1563 14.035
13.1714 13.776
13.1866 13.644
13.2018 13.590
13.2170 13.375
13.2321 13.060
13.2473 13.188
13.2625 13.252
13.2777 13.158
13.2928 13.243
13.3080 13.142
13.3232 12.986
13.3384 12.969
13.3535 12.995
13.3687 13.011
13.3839 13.302
13.3991 13.306
13.4142 12.966
13.4294 12.847
13.4446 12.896
13.4598 12.783
13.4749 12.505
13.4901 12.345
13.5053 12.628
13.5205 12.722
13.5356 12.383
13.5508 12.318
13.5660 12.309
13.5812 12.206
13.5963 12.377
13.6115 12.302
13.6267 11.975
13.6419 12.138
13.6570 12.493
13.6722 12.351
13.6874 12.209
13.7026 12.119
13.7177 11.885
13.7329 12.054
13.7481 11.965
13.7633 12.103
13.7784 12.056
13.7936 12.106
13.8088 12.087
13.8239 12.193
13.8391 12.396
13.8543 12.342
13.8695 12.062
13.8846 11.953
13.8998 12.072
13.9150 11.758
13.9302 11.902
13.9453 12.232
13.9605 12.003
13.9757 11.683
13.9909 11.645
14.0060 11.569
14.0212 11.517
14.0364 11.702
14.0516 11.297
14.0667 11.375
14.0819 11.323
14.0971 11.430
14.1123 11.601
14.1274 11.616
14.1426 11.697
14.1578 11.841
14.1730 11.484
14.1881 11.673
14.2033 11.701
14.2185 12.048
14.2337 11.995
14.2488 11.986
14.2640 12.021
14.2792 11.869
14.2944 11.860
14.3095 12.221
14.3247 12.486
14.3399 12.372
14.3551 12.430
14.3702 12.611
14.3854 12.842
14.4006 12.878
14.4158 13.391
14.4309 13.209
14.4461 12.924
14.4613 12.726
14.4765 12.452
14.4916 12.300
14.5068 12.339
14.5220 11.756
14.5372 11.398
14.5523 11.140
14.5675 11.093
14.5827 10.896
14.5979 11.038
14.6130 10.897
14.6282 10.673
14.6434 10.757
14.6586 10.626
14.6737 11.001
14.6889 11.084
14.7041 10.747
14.7193 10.774
14.7344 10.767
14.7496 10.781
14.7648 10.863
14.7800 10.654
14.7951 10.407
14.8103 10.881
14.8255 10.738
14.8407 11.119
14.8558 10.187
14.8710 10.737
14.8862 10.390
14.9014 10.656
14.9165 10.778
14.9317 10.516
14.9469 10.551
14.9621 10.272
14.9772 10.135
14.9924 10.334
15.0076 10.342
15.0228 10.181
15.0379 10.423
15.0531 10.422
15.0683 10.170
15.0835 10.447
15.0986 10.215
15.1138 10.358
15.1290 10.214
15.1442 10.449
15.1593 10.326
15.1745 10.025
15.1897 10.218
15.2049 10.256
15.2200 10.140
15.2352 10.289
15.2504 9.847
15.2656 10.369
15.2807 10.024
15.2959 10.667
15.3111 10.036
15.3263 10.289
15.3414 10.096
15.3566 10.249
15.3718 10.053
15.3870 10.015
15.4021 10.153
15.4173 10.177
15.4325 10.268
15.4477 10.520
15.4628 10.345
15.4780 10.502
15.4932 10.269
15.5084 9.971
15.5235 10.105
15.5387 10.208
15.5539 10.074
15.5691 9.915
15.5842 9.954
15.5994 10.147
15.6146 9.867
15.6298 9.840
15.6449 10.315
15.6601 9.910
15.6753 9.800
15.6905 9.883
15.7056 9.465
15.7208 9.629
15.7360 9.355
15.7512 9.502
15.7663 9.748
15.7815 9.707
15.7967 9.767
15.8119 9.720
15.8270 9.634
15.8422 9.578
15.8574 9.583
15.8726 9.654
15.8877 9.523
15.9029 9.335
15.9181 9.527
15.9333 9.830
15.9484 9.955
15.9636 9.748
15.9788 9.711
15.9940 9.798
16.0091 9.487
16.0243 9.696
16.0395 9.665
16.0547 9.570
16.0698 9.571
16.0850 9.440
16.1002 9.444
16.1154 9.412
16.1305 9.524
16.1457 9.504
16.1609 9.938
16.1761 9.687
16.1912 9.664
16.2064 9.574
16.2216 9.685
16.2368 9.829
16.2519 9.454
16.2671 9.747
16.2823 9.975
16.2975 10.084
16.3126 10.065
16.3278 9.794
16.3430 9.736
16.3582 9.663
16.3733 9.838
16.3885 9.975
16.4037 9.869
16.4189 9.533
16.4340 9.598
16.4492 9.706
16.4644 9.703
16.4796 9.604
16.4947 9.723
16.5099 9.893
16.5251 9.635
16.5403 9.537
16.5554 9.745
16.5706 9.865
16.5858 9.539
16.6010 9.508
16.6161 9.732
16.6313 9.846
16.6465 9.834
16.6617 9.775
16.6768 9.794
16.6920 9.839
16.7072 9.925
16.7224 10.144
16.7375 9.973
16.7527 10.036
16.7679 9.937
16.7831 9.851
16.7982 9.817
16.8134 9.891
16.8286 9.962
16.8438 10.061
16.8589 9.894
16.8741 9.746
16.8893 9.768
16.9045 9.673
16.9196 9.658
16.9348 9.638
16.9500 9.668
16.9652 9.565
16.9803 9.597
16.9955 9.805
17.0107 9.825
17.0259 9.940
17.0410 10.306
17.0562 10.206
17.0714 10.208
17.0866 10.350
17.1017 10.292
17.1169 10.694
17.1321 10.877
17.1473 11.363
17.1624 12.079
17.1776 12.483
17.1928 13.155
17.2080 13.866
17.2231 14.900
17.2383 16.306
17.2535 17.608
17.2687 18.295
17.2838 18.475
17.2990 18.108
17.3142 17.130
17.3294 16.274
17.3445 16.155
17.3597 16.096
17.3749 15.653
17.3901 15.276
17.4052 14.460
17.4204 13.556
17.4356 13.018
17.4508 12.323
17.4659 11.857
17.4811 11.651
17.4963 11.609
17.5115 11.372
17.5266 11.183
17.5418 11.244
17.5570 10.963
17.5722 10.939
17.5873 10.852
17.6025 10.690
17.6177 10.797
17.6329 11.118
17.6480 11.342
17.6632 11.241
17.6784 11.337
17.6936 11.425
17.7087 11.158
17.7239 11.093
17.7391 11.128
17.7543 10.993
17.7694 10.801
17.7846 10.826
17.7998 10.838
17.8150 10.666
17.8301 10.368
17.8453 10.352
17.8605 10.330
17.8757 10.257
17.8908 10.336
17.9060 10.235
17.9212 10.029
17.9364 10.092
17.9515 10.120
17.9667 10.092
17.9819 10.101
17.9971 10.238
18.0122 10.218
18.0274 10.143
18.0426 10.154
18.0578 10.205
18.0729 9.968
18.0881 9.961
18.1033 10.238
18.1185 10.158
18.1336 9.922
18.1488 9.955
18.1640 9.905
18.1792 9.936
18.1943 9.988
18.2095 9.786
18.2247 9.698
18.2399 9.919
18.2550 10.014
18.2702 9.907
18.2854 9.895
18.3006 9.970
18.3157 9.841
18.3309 9.849
18.3461 10.070
18.3613 9.903
18.3764 9.862
18.3916 9.663
18.4068 9.737
18.4220 10.024
18.4371 9.985
18.4523 9.833
18.4675 9.624
18.4827 9.594
18.4978 9.683
18.5130 9.737
18.5282 9.762
18.5434 9.868
18.5585 9.753
18.5737 9.767
18.5889 9.744
18.6041 9.742
18.6192 9.590
18.6344 9.545
18.6496 9.758
18.6648 9.853
18.6799 9.857
18.6951 9.709
18.7103 9.513
18.7255 9.642
18.7406 9.878
18.7558 9.843
18.7710 9.637
18.7862 9.534
18.8013 9.529
18.8165 9.706
18.8317 9.932
18.8469 9.954
18.8620 10.043
18.8772 10.154
18.8924 10.056
18.9076 10.099
18.9227 10.163
18.9379 9.974
18.9531 9.956
18.9683 10.089
18.9834 10.019
18.9986 10.134
19.0138 10.275
19.0290 10.305
19.0441 10.351
19.0593 10.296
19.0745 10.172
19.0897 10.217
19.1048 10.584
19.1200 10.706
19.1352 10.535
19.1504 10.545
19.1655 10.700
19.1807 10.690
19.1959 10.399
19.2111 10.486
19.2262 10.607
19.2414 10.550
19.2566 10.573
19.2718 10.650
19.2869 10.702
19.3021 10.878
19.3173 10.819
19.3325 10.924
19.3476 11.079
19.3628 11.141
19.3780 11.205
19.3932 10.991
19.4083 11.239
19.4235 11.373
19.4387 11.250
19.4539 11.290
19.4690 11.351
19.4842 11.330
19.4994 11.263
19.5146 11.248
19.5297 11.509
19.5449 11.422
19.5601 11.395
19.5753 11.633
19.5904 11.606
19.6056 11.524
19.6208 11.751
19.6360 11.749
19.6511 11.627
19.6663 11.585
19.6815 11.533
19.6967 11.542
19.7118 11.678
19.7270 11.934
19.7422 11.934
19.7574 11.807
19.7725 11.972
19.7877 11.957
19.8029 12.047
19.8180 12.281
19.8332 12.023
19.8484 12.013
19.8636 12.288
19.8787 12.670
19.8939 13.050
19.9091 13.070
19.9243 13.317
19.9394 13.826
19.9546 14.079
19.9698 14.333
19.9850 14.303
20.0001 14.198
20.0153 14.147
20.0305 13.908
20.0457 13.733
20.0608 13.755
20.0760 13.874
20.0912 13.715
20.1064 13.578
20.1215 13.464
20.1367 13.279
20.1519 12.921
20.1671 12.869
20.1822 12.864
20.1974 12.589
20.2126 12.659
20.2278 12.783
20.2429 12.676
20.2581 12.464
20.2733 12.156
20.2885 11.909
20.3036 11.805
20.3188 11.822
20.3340 12.050
20.3492 12.096
20.3643 12.071
20.3795 11.717
20.3947 11.801
20.4099 11.755
20.4250 11.737
20.4402 11.589
20.4554 11.780
20.4706 12.028
20.4857 12.042
20.5009 12.028
20.5161 11.753
20.5313 11.152
20.5464 11.031
20.5616 11.103
20.5768 11.233
20.5920 11.174
20.6071 10.914
20.6223 10.822
20.6375 10.945
20.6527 10.681
20.6678 10.386
20.6830 10.401
20.6982 10.307
20.7134 10.467
20.7285 10.517
20.7437 10.466
20.7589 10.577
20.7741 10.726
20.7892 10.650
20.8044 10.445
20.8196 10.359
20.8348 10.379
20.8499 10.290
20.8651 10.217
20.8803 10.302
20.8955 9.828
20.9106 9.991
20.9258 10.093
20.9410 10.360
20.9562 10.293
20.9713 10.356
20.9865 10.160
21.0017 9.827
21.0169 10.070
21.0320 10.204
21.0472 9.789
21.0624 9.891
21.0776 10.008
21.0927 10.143
21.1079 10.166
21.1231 9.929
21.1383 9.865
21.1534 9.535
21.1686 10.010
21.1838 9.938
21.1990 9.807
21.2141 9.391
21.2293 9.879
21.2445 9.583
21.2597 9.943
21.2748 9.736
21.2900 9.737
21.3052 9.973
21.3204 9.654
21.3355 9.776
21.3507 9.679
21.3659 9.678
21.3811 9.651
21.3962 9.642
21.4114 9.603
21.4266 9.420
21.4418 9.393
21.4569 9.592
21.4721 9.453
21.4873 9.684
21.5025 9.418
21.5176 9.231
21.5328 9.284
21.5480 9.447
21.5632 9.183
21.5783 9.437
21.5935 9.478
21.6087 9.252
21.6239 9.223
21.6390 9.340
21.6542 9.313
21.6694 9.184
21.6846 9.018
21.6997 9.180
21.7149 9.083
21.7301 9.296
21.7453 9.236
21.7604 8.866
21.7756 9.036
21.7908 9.007
21.8060 9.016
21.8211 8.954
21.8363 8.980
21.8515 8.868
21.8667 8.838
21.8818 9.080
21.8970 8.989
21.9122 8.814
21.9274 8.959
21.9425 9.002
21.9577 8.907
21.9729 8.893
21.9881 8.979
22.0032 8.943
22.0184 8.875
22.0336 8.910
22.0488 8.815
22.0639 8.675
22.0791 8.878
22.0943 8.728
22.1095 8.468
22.1246 8.576
22.1398 8.551
22.1550 8.591
22.1702 8.744
22.1853 8.585
22.2005 8.490
22.2157 8.751
22.2309 8.595
22.2460 8.393
22.2612 8.308
22.2764 8.415
22.2916 8.444
22.3067 8.517
22.3219 8.542
22.3371 8.456
22.3523 8.564
22.3674 8.477
22.3826 8.301
22.3978 8.399
22.4130 8.557
22.4281 8.492
22.4433 8.357
22.4585 8.539
22.4737 8.537
22.4888 8.715
22.5040 8.503
22.5192 8.332
22.5344 8.462
22.5495 8.501
22.5647 8.553
22.5799 8.669
22.5951 8.547
22.6102 8.563
22.6254 8.536
22.6406 8.196
22.6558 8.224
22.6709 8.541
22.6861 8.161
22.7013 8.307
22.7165 7.840
22.7316 6.404
