'Id: "" Comment: "" Operator: "Lab Manager" Anode: "Mo" Scantype: "Still (Eiger2R_500K (1D mode))" TimePerStep: "300" X: "11.8" Y: "9.4" Z: "11.284" 
7.2532 18.584
7.2684 19.122
7.2836 18.848
7.2987 19.033
7.3139 19.031
7.3291 19.645
7.3443 19.303
7.3594 19.600
7.3746 19.364
7.3898 19.366
7.4050 19.108
7.4201 19.344
7.4353 19.447
7.4505 19.295
7.4657 19.333
7.4808 19.687
7.4960 19.644
7.5112 19.742
7.5264 19.776
7.5415 19.912
7.5567 20.271
7.5719 20.140
7.5871 20.027
7.6022 19.937
7.6174 20.148
7.6326 20.181
7.6478 20.010
7.6629 20.156
7.6781 20.303
7.6933 20.297
7.7085 20.321
7.7236 20.456
7.7388 20.611
7.7540 20.567
7.7692 20.486
7.7843 20.205
7.7995 20.473
7.8147 20.855
7.8299 20.742
7.8450 20.845
7.8602 20.859
7.8754 20.993
7.8905 21.327
7.9057 21.063
7.9209 20.894
7.9361 21.012
7.9512 21.097
7.9664 21.151
7.9816 21.331
7.9968 21.157
8.0119 20.996
8.0271 21.176
8.0423 21.116
8.0575 21.238
8.0726 21.054
8.0878 21.100
8.1030 21.455
8.1182 21.448
8.1333 21.384
8.1485 21.664
8.1637 22.093
8.1789 21.311
8.1940 21.475
8.2092 21.713
8.2244 21.455
8.2396 21.702
8.2547 21.936
8.2699 21.934
8.2851 21.739
8.3003 22.300
8.3154 22.263
8.3306 21.814
8.3458 22.072
8.3610 22.027
8.3761 21.726
8.3913 21.868
8.4065 22.482
8.4217 21.925
8.4368 22.023
8.4520 22.074
8.4672 21.906
8.4824 21.892
8.4975 21.737
8.5127 22.299
8.5279 22.262
8.5431 22.220
8.5582 22.247
8.5734 22.479
8.5886 22.492
8.6038 22.242
8.6189 22.223
8.6341 22.437
8.6493 22.504
8.6645 22.172
8.6796 22.356
8.6948 22.764
8.7100 22.904
8.7252 22.416
8.7403 22.478
8.7555 22.611
8.7707 22.425
8.7859 22.574
8.8010 22.910
8.8162 22.620
8.8314 22.597
8.8466 22.618
8.8617 22.946
8.8769 22.551
8.8921 22.746
8.9073 22.433
8.9224 22.593
8.9376 22.662
8.9528 22.919
8.9680 22.525
8.9831 23.242
8.9983 22.845
9.0135 22.818
9.0287 22.569
9.0438 22.686
9.0590 22.454
9.0742 22.768
9.0894 23.549
9.1045 23.172
9.1197 23.281
9.1349 23.394
9.1501 23.395
9.1652 23.437
9.1804 23.339
9.1956 22.997
9.2108 22.894
9.2259 23.320
9.2411 23.044
9.2563 23.413
9.2715 22.747
9.2866 22.647
9.3018 23.240
9.3170 23.398
9.3322 23.124
9.3473 23.376
9.3625 23.529
9.3777 23.277
9.3929 23.034
9.4080 22.932
9.4232 23.086
9.4384 23.333
9.4536 23.191
9.4687 23.302
9.4839 23.373
9.4991 23.336
9.5143 23.371
9.5294 23.109
9.5446 23.010
9.5598 23.572
9.5750 23.639
9.5901 23.659
9.6053 23.604
9.6205 23.314
9.6357 23.546
9.6508 23.557
9.6660 23.595
9.6812 23.341
9.6964 23.403
9.7115 24.015
9.7267 24.149
9.7419 24.396
9.7571 24.414
9.7722 24.053
9.7874 24.018
9.8026 24.117
9.8178 23.876
9.8329 23.356
9.8481 23.257
9.8633 23.404
9.8785 23.488
9.8936 23.371
9.9088 23.375
9.9240 23.611
9.9392 23.401
9.9543 23.241
9.9695 23.404
9.9847 23.604
9.9999 23.679
10.0150 23.568
10.0302 23.788
10.0454 23.716
10.0606 23.210
10.0757 23.466
10.0909 23.358
10.1061 23.053
10.1213 23.221
10.1364 23.453
10.1516 23.534
10.1668 23.073
10.1820 23.099
10.1971 23.760
10.2123 23.708
10.2275 23.374
10.2427 23.459
10.2578 23.471
10.2730 23.347
10.2882 23.501
10.3034 23.554
10.3185 23.349
10.3337 23.093
10.3489 22.891
10.3641 23.072
10.3792 22.870
10.3944 23.096
10.4096 23.219
10.4248 22.951
10.4399 22.754
10.4551 22.679
10.4703 22.915
10.4855 22.974
10.5006 22.954
10.5158 22.866
10.5310 23.136
10.5462 22.900
10.5613 22.510
10.5765 22.262
10.5917 22.237
10.6069 22.789
10.6220 22.740
10.6372 22.810
10.6524 23.040
10.6676 22.709
10.6827 22.582
10.6979 22.852
10.7131 22.690
10.7283 22.302
10.7434 22.384
10.7586 22.454
10.7738 22.105
10.7890 22.123
10.8041 22.344
10.8193 22.204
10.8345 22.393
10.8497 22.299
10.8648 22.094
10.8800 22.322
10.8952 22.644
10.9104 22.573
10.9255 22.418
10.9407 22.043
10.9559 22.126
10.9711 22.192
10.9862 22.046
11.0014 21.875
11.0166 22.066
11.0318 22.315
11.0469 21.933
11.0621 22.010
11.0773 21.930
11.0925 21.864
11.1076 21.501
11.1228 21.520
11.1380 21.993
11.1532 22.052
11.1683 22.307
11.1835 22.133
11.1987 21.840
11.2139 22.323
11.2290 22.359
11.2442 21.706
11.2594 21.530
11.2746 22.030
11.2897 22.149
11.3049 21.646
11.3201 21.963
11.3353 21.733
11.3504 21.530
11.3656 21.350
11.3808 21.318
11.3960 21.513
11.4111 21.689
11.4263 21.419
11.4415 21.298
11.4567 21.345
11.4718 21.430
11.4870 21.094
11.5022 21.255
11.5174 21.171
11.5325 21.036
11.5477 20.979
11.5629 20.896
11.5781 20.909
11.5932 20.774
11.6084 20.913
11.6236 20.744
11.6388 21.001
11.6539 20.371
11.6691 20.377
11.6843 20.739
11.6995 20.427
11.7146 20.588
11.7298 20.018
11.7450 20.188
11.7602 20.381
11.7753 20.110
11.7905 20.075
11.8057 20.255
11.8209 20.090
11.8360 20.205
11.8512 19.877
11.8664 19.870
11.8816 20.008
11.8967 19.866
11.9119 20.038
11.9271 19.878
11.9423 19.991
11.9574 19.663
11.9726 19.573
11.9878 19.508
12.0030 19.221
12.0181 19.048
12.0333 18.959
12.0485 19.096
12.0637 18.935
12.0788 18.959
12.0940 18.966
12.1092 18.822
12.1244 18.677
12.1395 18.730
12.1547 18.886
12.1699 18.656
12.1851 18.623
12.2002 18.283
12.2154 18.199
12.2306 18.522
12.2458 18.387
12.2609 18.109
12.2761 18.044
12.2913 17.930
12.3065 18.047
12.3216 17.844
12.3368 17.981
12.3520 17.704
12.3672 17.328
12.3823 17.143
12.3975 17.155
12.4127 17.331
12.4279 17.520
12.4430 17.339
12.4582 17.197
12.4734 17.145
12.4886 16.780
12.5037 16.730
12.5189 16.933
12.5341 16.781
12.5493 16.429
12.5644 16.207
12.5796 16.517
12.5948 16.710
12.6100 16.530
12.6251 16.242
12.6403 16.162
12.6555 16.172
12.6707 16.015
12.6858 15.948
12.7010 15.731
12.7162 15.841
12.7314 15.844
12.7465 15.594
12.7617 15.316
12.7769 15.409
12.7921 15.493
12.8072 15.493
12.8224 15.492
12.8376 15.427
12.8528 15.191
12.8679 14.882
12.8831 14.714
12.8983 14.783
12.9135 14.717
12.9286 14.495
12.9438 14.541
12.9590 14.651
12.9742 14.736
12.9893 14.764
13.0045 14.464
13.0197 14.468
13.0349 14.549
13.0500 14.252
13.0652 13.933
13.0804 14.000
13.0956 14.052
13.1107 13.970
13.1259 14.085
13.1411 14.051
13.1563 13.932
13.1714 13.933
13.1866 13.940
13.2018 13.615
13.2170 13.455
13.2321 13.543
13.2473 13.645
13.2625 13.578
13.2777 13.242
13.2928 13.300
13.3080 13.499
13.3232 13.408
13.3384 13.195
13.3535 13.305
13.3687 13.217
13.3839 12.879
13.3991 12.929
13.4142 13.074
13.4294 12.928
13.4446 12.964
13.4598 13.299
13.4749 13.179
13.4901 12.994
13.5053 12.948
13.5205 12.844
13.5356 12.542
13.5508 12.524
13.5660 12.613
13.5812 12.494
13.5963 12.415
13.6115 12.341
13.6267 12.304
13.6419 12.354
13.6570 12.338
13.6722 12.273
13.6874 12.060
13.7026 12.216
13.7177 12.237
13.7329 12.177
13.7481 12.042
13.7633 12.301
13.7784 12.619
13.7936 12.427
13.8088 12.352
13.8239 12.592
13.8391 12.603
13.8543 12.217
13.8695 12.051
13.8846 12.303
13.8998 12.343
13.9150 12.208
13.9302 12.212
13.9453 11.916
13.9605 11.794
13.9757 11.957
13.9909 11.751
14.0060 11.810
14.0212 11.819
14.0364 11.797
14.0516 11.301
14.0667 11.566
14.0819 11.601
14.0971 11.370
14.1123 11.446
14.1274 11.730
14.1426 11.445
14.1578 11.537
14.1730 11.740
14.1881 11.634
14.2033 11.616
14.2185 11.788
14.2337 11.701
14.2488 11.797
14.2640 11.752
14.2792 11.854
14.2944 11.802
14.3095 11.976
14.3247 12.077
14.3399 12.098
14.3551 12.214
14.3702 12.391
14.3854 12.422
14.4006 12.536
14.4158 12.725
14.4309 12.498
14.4461 12.319
14.4613 12.041
14.4765 12.079
14.4916 11.646
14.5068 11.809
14.5220 11.769
14.5372 11.654
14.5523 11.334
14.5675 11.363
14.5827 10.983
14.5979 11.090
14.6130 10.763
14.6282 10.763
14.6434 10.971
14.6586 10.899
14.6737 11.204
14.6889 11.105
14.7041 10.998
14.7193 10.985
14.7344 10.852
14.7496 10.766
14.7648 10.893
14.7800 10.466
14.7951 10.676
14.8103 10.967
14.8255 10.841
14.8407 10.899
14.8558 10.935
14.8710 10.659
14.8862 10.516
14.9014 10.529
14.9165 10.844
14.9317 10.707
14.9469 10.631
14.9621 10.507
14.9772 10.734
14.9924 10.473
15.0076 10.780
15.0228 10.554
15.0379 10.718
15.0531 10.678
15.0683 10.648
15.0835 10.291
15.0986 10.761
15.1138 10.619
15.1290 10.588
15.1442 10.500
15.1593 10.449
15.1745 10.321
15.1897 10.265
15.2049 10.195
15.2200 10.396
15.2352 10.168
15.2504 10.477
15.2656 10.711
15.2807 10.070
15.2959 10.139
15.3111 10.425
15.3263 10.537
15.3414 10.435
15.3566 10.100
15.3718 10.493
15.3870 10.451
15.4021 10.518
15.4173 10.373
15.4325 10.756
15.4477 10.437
15.4628 10.719
15.4780 10.626
15.4932 10.186
15.5084 10.479
15.5235 10.297
15.5387 10.318
15.5539 10.485
15.5691 10.153
15.5842 10.377
15.5994 10.103
15.6146 9.912
15.6298 10.104
15.6449 10.297
15.6601 9.856
15.6753 9.571
15.6905 9.981
15.7056 10.198
15.7208 9.893
15.7360 9.860
15.7512 9.921
15.7663 9.925
15.7815 9.693
15.7967 9.994
15.8119 9.724
15.8270 10.016
15.8422 10.094
15.8574 9.671
15.8726 9.782
15.8877 9.922
15.9029 9.661
15.9181 9.732
15.9333 9.782
15.9484 9.855
15.9636 9.906
15.9788 9.703
15.9940 9.534
16.0091 10.027
16.0243 9.955
16.0395 9.921
16.0547 9.572
16.0698 9.801
16.0850 9.752
16.1002 9.486
16.1154 9.738
16.1305 10.052
16.1457 9.878
16.1609 9.851
16.1761 9.909
16.1912 9.704
16.2064 9.832
16.2216 9.861
16.2368 9.867
16.2519 10.062
16.2671 10.219
16.2823 10.033
16.2975 10.040
16.3126 9.835
16.3278 9.895
16.3430 9.979
16.3582 10.163
16.3733 9.947
16.3885 9.858
16.4037 10.066
16.4189 9.886
16.4340 9.762
16.4492 9.923
16.4644 9.970
16.4796 9.799
16.4947 9.814
16.5099 10.056
16.5251 9.955
16.5403 9.714
16.5554 9.616
16.5706 9.544
16.5858 9.821
16.6010 9.883
16.6161 9.634
16.6313 9.582
16.6465 9.827
16.6617 9.936
16.6768 9.920
16.6920 9.881
16.7072 10.017
16.7224 10.119
16.7375 10.083
16.7527 10.240
16.7679 10.132
16.7831 10.004
16.7982 9.719
16.8134 10.035
16.8286 10.120
16.8438 9.974
16.8589 10.026
16.8741 9.996
16.8893 9.902
16.9045 9.927
16.9196 10.073
16.9348 9.986
16.9500 9.866
16.9652 9.991
16.9803 10.144
16.9955 10.039
17.0107 10.054
17.0259 10.034
17.0410 9.989
17.0562 10.112
17.0714 10.371
17.0866 10.508
17.1017 10.500
17.1169 10.588
17.1321 10.881
17.1473 11.340
17.1624 11.959
17.1776 12.781
17.1928 13.572
17.2080 14.412
17.2231 15.257
17.2383 16.178
17.2535 17.489
17.2687 18.571
17.2838 18.827
17.2990 18.138
17.3142 17.155
17.3294 16.489
17.3445 16.230
17.3597 16.146
17.3749 15.797
17.3901 15.185
17.4052 14.168
17.4204 13.136
17.4356 12.492
17.4508 12.186
17.4659 11.694
17.4811 11.470
17.4963 11.596
17.5115 11.380
17.5266 10.993
17.5418 10.786
17.5570 11.078
17.5722 11.049
17.5873 11.093
17.6025 11.304
17.6177 11.212
17.6329 10.952
17.6480 10.688
17.6632 10.682
17.6784 10.579
17.6936 10.499
17.7087 10.433
17.7239 10.374
17.7391 10.387
17.7543 10.237
17.7694 10.107
17.7846 10.120
17.7998 10.129
17.8150 9.958
17.8301 10.029
17.8453 9.833
17.8605 9.882
17.8757 10.147
17.8908 10.100
17.9060 10.297
17.9212 10.251
17.9364 10.153
17.9515 10.243
17.9667 10.364
17.9819 10.344
17.9971 10.278
18.0122 10.481
18.0274 10.534
18.0426 10.564
18.0578 10.188
18.0729 9.967
18.0881 10.316
18.1033 10.351
18.1185 9.905
18.1336 10.056
18.1488 10.201
18.1640 10.010
18.1792 9.947
18.1943 9.840
18.2095 10.062
18.2247 10.125
18.2399 9.825
18.2550 9.902
18.2702 9.953
18.2854 9.835
18.3006 9.800
18.3157 9.926
18.3309 9.983
18.3461 9.956
18.3613 9.871
18.3764 9.832
18.3916 9.643
18.4068 9.866
18.4220 9.871
18.4371 9.914
18.4523 9.888
18.4675 9.879
18.4827 9.992
18.4978 9.786
18.5130 9.726
18.5282 9.627
18.5434 9.518
18.5585 9.761
18.5737 9.704
18.5889 9.828
18.6041 9.958
18.6192 9.810
18.6344 9.682
18.6496 9.468
18.6648 9.599
18.6799 9.769
18.6951 9.971
18.7103 9.963
18.7255 9.822
18.7406 9.897
18.7558 9.975
18.7710 10.103
18.7862 9.849
18.8013 9.665
18.8165 9.621
18.8317 9.634
18.8469 10.065
18.8620 9.930
18.8772 9.743
18.8924 9.772
18.9076 9.729
18.9227 9.963
18.9379 9.665
18.9531 9.926
18.9683 10.046
18.9834 9.893
18.9986 10.080
19.0138 10.080
19.0290 10.141
19.0441 10.166
19.0593 10.236
19.0745 10.327
19.0897 10.484
19.1048 10.632
19.1200 10.498
19.1352 10.615
19.1504 10.553
19.1655 10.413
19.1807 10.440
19.1959 10.657
19.2111 10.870
19.2262 10.559
19.2414 10.794
19.2566 10.953
19.2718 10.888
19.2869 11.042
19.3021 11.281
19.3173 11.399
19.3325 11.089
19.3476 10.855
19.3628 10.960
19.3780 11.164
19.3932 11.224
19.4083 11.190
19.4235 11.142
19.4387 10.965
19.4539 11.311
19.4690 11.374
19.4842 11.133
19.4994 11.360
19.5146 11.424
19.5297 11.418
19.5449 11.679
19.5601 11.766
19.5753 11.578
19.5904 11.582
19.6056 11.679
19.6208 11.644
19.6360 11.737
19.6511 11.645
19.6663 11.639
19.6815 11.754
19.6967 11.793
19.7118 11.855
19.7270 11.759
19.7422 11.772
19.7574 11.825
19.7725 11.974
19.7877 12.072
19.8029 11.896
19.8180 11.992
19.8332 12.060
19.8484 12.101
19.8636 12.226
19.8787 12.227
19.8939 12.728
19.9091 13.264
19.9243 13.276
19.9394 13.618
19.9546 14.454
19.9698 14.737
19.9850 14.617
20.0001 14.351
20.0153 14.133
20.0305 14.126
20.0457 13.809
20.0608 13.695
20.0760 13.969
20.0912 13.529
20.1064 13.215
20.1215 13.379
20.1367 13.376
20.1519 13.159
20.1671 12.735
20.1822 12.650
20.1974 12.706
20.2126 12.765
20.2278 12.703
20.2429 12.662
20.2581 12.756
20.2733 12.422
20.2885 11.999
20.3036 11.635
20.3188 11.586
20.3340 11.425
20.3492 11.651
20.3643 11.607
20.3795 11.432
20.3947 11.360
20.4099 11.103
20.4250 11.305
20.4402 11.090
20.4554 10.861
20.4706 10.691
20.4857 10.693
20.5009 10.721
20.5161 10.809
20.5313 10.461
20.5464 10.443
20.5616 10.553
20.5768 10.755
20.5920 10.793
20.6071 10.724
20.6223 10.896
20.6375 10.580
20.6527 10.702
20.6678 10.430
20.6830 10.650
20.6982 10.681
20.7134 10.667
20.7285 10.480
20.7437 10.341
20.7589 10.382
20.7741 10.267
20.7892 10.144
20.8044 10.559
20.8196 10.703
20.8348 10.215
20.8499 10.087
20.8651 10.218
20.8803 10.252
20.8955 10.084
20.9106 9.963
20.9258 10.165
20.9410 9.989
20.9562 9.759
20.9713 10.253
20.9865 10.392
21.0017 10.042
21.0169 10.042
21.0320 9.897
21.0472 10.037
21.0624 10.109
21.0776 10.202
21.0927 10.274
21.1079 9.920
21.1231 9.907
21.1383 9.924
21.1534 9.248
21.1686 10.070
21.1838 9.269
21.1990 10.182
21.2141 9.940
21.2293 9.770
21.2445 9.282
21.2597 9.645
21.2748 9.489
21.2900 9.470
21.3052 9.583
21.3204 9.748
21.3355 9.494
21.3507 9.313
21.3659 9.394
21.3811 9.738
21.3962 9.521
21.4114 9.478
21.4266 9.591
21.4418 9.277
21.4569 9.284
21.4721 9.614
21.4873 9.764
21.5025 9.347
21.5176 9.293
21.5328 9.347
21.5480 9.393
21.5632 9.392
21.5783 9.463
21.5935 9.250
21.6087 9.320
21.6239 9.330
21.6390 8.981
21.6542 8.907
21.6694 8.932
21.6846 8.858
21.6997 9.033
21.7149 8.944
21.7301 9.245
21.7453 9.216
21.7604 9.105
21.7756 9.143
21.7908 9.078
21.8060 9.028
21.8211 9.294
21.8363 8.960
21.8515 8.923
21.8667 8.998
21.8818 8.987
21.8970 9.024
21.9122 9.102
21.9274 9.089
21.9425 9.044
21.9577 8.986
21.9729 9.014
21.9881 9.100
22.0032 8.905
22.0184 8.830
22.0336 9.073
22.0488 9.028
22.0639 9.092
22.0791 9.104
22.0943 8.839
22.1095 8.674
22.1246 8.626
22.1398 8.677
22.1550 8.631
22.1702 8.674
22.1853 8.825
22.2005 8.725
22.2157 8.638
22.2309 8.799
22.2460 8.612
22.2612 8.683
22.2764 8.717
22.2916 8.477
22.3067 8.591
22.3219 8.694
22.3371 8.702
22.3523 8.453
22.3674 8.631
22.3826 8.483
22.3978 8.493
22.4130 8.550
22.4281 8.574
22.4433 8.754
22.4585 8.790
22.4737 8.426
22.4888 8.614
22.5040 8.676
22.5192 8.734
22.5344 8.479
22.5495 8.469
22.5647 8.449
22.5799 8.562
22.5951 8.333
22.6102 8.498
22.6254 8.525
22.6406 8.209
22.6558 8.660
22.6709 8.566
22.6861 8.103
22.7013 8.399
22.7165 8.478
22.7316 6.669
