'Id: "" Comment: "" Operator: "Lab Manager" Anode: "Mo" Scantype: "Still (Eiger2R_500K (1D mode))" TimePerStep: "300" X: "11.8" Y: "9.4" Z: "11.284" 
7.2532 18.474
7.2684 18.270
7.2836 18.589
7.2987 18.435
7.3139 18.776
7.3291 18.855
7.3443 18.525
7.3594 18.697
7.3746 19.154
7.3898 19.006
7.4050 18.928
7.4201 18.987
7.4353 19.371
7.4505 19.284
7.4657 19.472
7.4808 19.796
7.4960 19.293
7.5112 19.646
7.5264 19.678
7.5415 19.681
7.5567 19.585
7.5719 19.448
7.5871 19.713
7.6022 20.025
7.6174 20.129
7.6326 20.340
7.6478 19.951
7.6629 19.777
7.6781 20.063
7.6933 20.051
7.7085 20.019
7.7236 20.103
7.7388 20.375
7.7540 20.543
7.7692 20.550
7.7843 20.620
7.7995 20.486
7.8147 20.560
7.8299 20.710
7.8450 20.420
7.8602 20.272
7.8754 20.077
7.8905 20.332
7.9057 20.593
7.9209 20.626
7.9361 20.661
7.9512 20.755
7.9664 20.878
7.9816 20.807
7.9968 21.162
8.0119 21.268
8.0271 21.015
8.0423 21.143
8.0575 21.135
8.0726 21.186
8.0878 20.878
8.1030 20.666
8.1182 21.330
8.1333 21.458
8.1485 21.067
8.1637 21.272
8.1789 21.549
8.1940 21.258
8.2092 21.547
8.2244 21.252
8.2396 21.588
8.2547 21.478
8.2699 21.448
8.2851 21.338
8.3003 21.104
8.3154 21.502
8.3306 21.493
8.3458 21.502
8.3610 21.421
8.3761 20.900
8.3913 22.021
8.4065 22.173
8.4217 22.034
8.4368 21.820
8.4520 22.310
8.4672 21.915
8.4824 21.599
8.4975 21.961
8.5127 22.159
8.5279 21.877
8.5431 22.071
8.5582 22.281
8.5734 21.916
8.5886 21.979
8.6038 22.169
8.6189 21.787
8.6341 22.597
8.6493 21.656
8.6645 21.702
8.6796 22.633
8.6948 21.968
8.7100 22.431
8.7252 21.808
8.7403 22.232
8.7555 22.876
8.7707 22.701
8.7859 22.509
8.8010 22.329
8.8162 22.139
8.8314 22.615
8.8466 22.334
8.8617 22.796
8.8769 22.111
8.8921 22.428
8.9073 22.237
8.9224 22.640
8.9376 22.342
8.9528 22.222
8.9680 22.302
8.9831 22.111
8.9983 22.330
9.0135 22.694
9.0287 22.650
9.0438 22.665
9.0590 22.825
9.0742 22.416
9.0894 22.311
9.1045 22.549
9.1197 22.838
9.1349 22.360
9.1501 22.624
9.1652 22.829
9.1804 22.744
9.1956 22.542
9.2108 23.027
9.2259 22.980
9.2411 22.569
9.2563 22.629
9.2715 22.768
9.2866 22.787
9.3018 22.911
9.3170 23.138
9.3322 22.441
9.3473 22.549
9.3625 22.909
9.3777 22.696
9.3929 22.856
9.4080 22.835
9.4232 22.939
9.4384 22.920
9.4536 22.985
9.4687 22.778
9.4839 22.804
9.4991 23.032
9.5143 22.933
9.5294 22.973
9.5446 23.070
9.5598 23.668
9.5750 23.843
9.5901 23.654
9.6053 23.256
9.6205 23.134
9.6357 23.547
9.6508 23.218
9.6660 23.253
9.6812 23.366
9.6964 23.572
9.7115 23.722
9.7267 23.711
9.7419 23.650
9.7571 23.712
9.7722 23.637
9.7874 23.156
9.8026 23.664
9.8178 23.830
9.8329 23.215
9.8481 23.327
9.8633 23.173
9.8785 22.986
9.8936 22.985
9.9088 23.040
9.9240 22.989
9.9392 22.988
9.9543 22.921
9.9695 22.931
9.9847 22.941
9.9999 23.028
10.0150 23.302
10.0302 23.414
10.0454 22.849
10.0606 23.017
10.0757 23.239
10.0909 23.234
10.1061 23.345
10.1213 23.368
10.1364 23.106
10.1516 22.962
10.1668 23.562
10.1820 23.486
10.1971 23.181
10.2123 23.261
10.2275 23.088
10.2427 22.762
10.2578 22.864
10.2730 23.031
10.2882 22.645
10.3034 22.333
10.3185 22.418
10.3337 22.694
10.3489 22.827
10.3641 22.933
10.3792 22.628
10.3944 22.597
10.4096 22.835
10.4248 22.781
10.4399 22.722
10.4551 22.832
10.4703 22.653
10.4855 22.549
10.5006 22.321
10.5158 22.329
10.5310 22.383
10.5462 22.405
10.5613 22.410
10.5765 22.779
10.5917 22.417
10.6069 22.192
10.6220 22.133
10.6372 22.414
10.6524 22.543
10.6676 22.767
10.6827 22.791
10.6979 22.440
10.7131 22.561
10.7283 22.413
10.7434 22.525
10.7586 22.219
10.7738 22.367
10.7890 22.535
10.8041 22.205
10.8193 22.196
10.8345 21.896
10.8497 21.932
10.8648 21.900
10.8800 21.726
10.8952 22.039
10.9104 21.963
10.9255 21.986
10.9407 21.960
10.9559 22.039
10.9711 21.675
10.9862 21.915
11.0014 21.951
11.0166 21.699
11.0318 21.770
11.0469 22.077
11.0621 21.786
11.0773 21.384
11.0925 21.475
11.1076 22.050
11.1228 21.562
11.1380 21.488
11.1532 21.911
11.1683 21.893
11.1835 21.822
11.1987 21.617
11.2139 21.383
11.2290 21.437
11.2442 21.381
11.2594 21.269
11.2746 21.355
11.2897 21.404
11.3049 21.533
11.3201 21.649
11.3353 21.253
11.3504 21.334
11.3656 21.276
11.3808 20.952
11.3960 20.919
11.4111 21.286
11.4263 20.973
11.4415 21.584
11.4567 21.183
11.4718 21.072
11.4870 20.983
11.5022 21.021
11.5174 20.740
11.5325 21.010
11.5477 21.007
11.5629 21.201
11.5781 20.717
11.5932 20.773
11.6084 20.911
11.6236 20.677
11.6388 20.159
11.6539 20.509
11.6691 20.700
11.6843 20.338
11.6995 20.527
11.7146 20.352
11.7298 20.431
11.7450 20.641
11.7602 20.273
11.7753 20.117
11.7905 19.786
11.8057 19.871
11.8209 20.007
11.8360 20.114
11.8512 19.550
11.8664 19.395
11.8816 19.643
11.8967 19.494
11.9119 19.434
11.9271 19.304
11.9423 19.016
11.9574 19.109
11.9726 19.132
11.9878 19.556
12.0030 19.593
12.0181 19.307
12.0333 18.634
12.0485 18.740
12.0637 18.851
12.0788 18.814
12.0940 18.730
12.1092 18.633
12.1244 18.616
12.1395 18.512
12.1547 18.473
12.1699 18.271
12.1851 17.862
12.2002 17.966
12.2154 18.230
12.2306 18.109
12.2458 18.048
12.2609 17.756
12.2761 17.776
12.2913 17.722
12.3065 17.700
12.3216 17.817
12.3368 17.559
12.3520 17.360
12.3672 17.575
12.3823 17.305
12.3975 16.921
12.4127 17.167
12.4279 17.118
12.4430 16.962
12.4582 16.692
12.4734 16.619
12.4886 16.769
12.5037 16.767
12.5189 16.509
12.5341 16.413
12.5493 16.495
12.5644 16.090
12.5796 16.143
12.5948 16.428
12.6100 16.162
12.6251 15.770
12.6403 15.723
12.6555 16.061
12.6707 16.055
12.6858 15.820
12.7010 15.511
12.7162 15.328
12.7314 15.480
12.7465 15.491
12.7617 15.236
12.7769 15.050
12.7921 15.206
12.8072 14.922
12.8224 14.951
12.8376 15.396
12.8528 15.201
12.8679 14.839
12.8831 14.811
12.8983 14.496
12.9135 14.423
12.9286 14.320
12.9438 14.239
12.9590 14.449
12.9742 14.316
12.9893 14.167
13.0045 14.170
13.0197 14.282
13.0349 14.094
13.0500 13.849
13.0652 13.683
13.0804 13.664
13.0956 13.725
13.1107 13.687
13.1259 13.758
13.1411 13.711
13.1563 13.772
13.1714 13.623
13.1866 13.483
13.2018 13.664
13.2170 13.691
13.2321 13.660
13.2473 13.320
13.2625 13.020
13.2777 13.257
13.2928 13.190
13.3080 12.968
13.3232 13.053
13.3384 12.878
13.3535 12.774
13.3687 13.008
13.3839 13.125
13.3991 13.029
13.4142 12.952
13.4294 12.702
13.4446 12.667
13.4598 12.816
13.4749 12.712
13.4901 12.568
13.5053 12.348
13.5205 12.513
13.5356 12.410
13.5508 12.296
13.5660 12.457
13.5812 12.307
13.5963 12.210
13.6115 12.077
13.6267 12.071
13.6419 12.106
13.6570 12.289
13.6722 12.293
13.6874 11.953
13.7026 12.058
13.7177 12.106
13.7329 12.100
13.7481 12.163
13.7633 12.023
13.7784 12.175
13.7936 12.414
13.8088 12.374
13.8239 12.310
13.8391 12.274
13.8543 12.371
13.8695 12.282
13.8846 12.083
13.8998 12.101
13.9150 12.100
13.9302 12.222
13.9453 11.637
13.9605 11.880
13.9757 11.881
13.9909 11.703
14.0060 11.698
14.0212 11.715
14.0364 11.611
14.0516 11.555
14.0667 11.475
14.0819 11.566
14.0971 11.617
14.1123 11.675
14.1274 11.590
14.1426 11.640
14.1578 11.719
14.1730 11.675
14.1881 11.681
14.2033 11.573
14.2185 11.708
14.2337 11.636
14.2488 11.623
14.2640 11.927
14.2792 11.842
14.2944 12.061
14.3095 12.071
14.3247 11.858
14.3399 12.547
14.3551 12.582
14.3702 12.743
14.3854 13.056
14.4006 13.434
14.4158 13.158
14.4309 13.114
14.4461 12.602
14.4613 12.343
14.4765 12.384
14.4916 12.193
14.5068 11.869
14.5220 11.653
14.5372 11.358
14.5523 11.598
14.5675 11.215
14.5827 11.039
14.5979 10.646
14.6130 10.865
14.6282 10.912
14.6434 10.792
14.6586 10.569
14.6737 10.749
14.6889 10.614
14.7041 10.603
14.7193 10.550
14.7344 10.757
14.7496 10.660
14.7648 10.733
14.7800 10.860
14.7951 10.537
14.8103 10.658
14.8255 10.474
14.8407 10.362
14.8558 10.404
14.8710 10.729
14.8862 10.437
14.9014 10.397
14.9165 10.892
14.9317 10.539
14.9469 10.476
14.9621 10.278
14.9772 10.022
14.9924 10.284
15.0076 10.100
15.0228 10.719
15.0379 10.438
15.0531 10.387
15.0683 10.202
15.0835 10.309
15.0986 10.380
15.1138 9.871
15.1290 10.288
15.1442 10.362
15.1593 10.172
15.1745 10.042
15.1897 10.165
15.2049 10.374
15.2200 10.076
15.2352 9.658
15.2504 10.143
15.2656 10.240
15.2807 10.024
15.2959 9.902
15.3111 9.982
15.3263 10.336
15.3414 9.988
15.3566 10.071
15.3718 10.104
15.3870 10.417
15.4021 10.262
15.4173 10.318
15.4325 10.121
15.4477 10.323
15.4628 10.058
15.4780 10.042
15.4932 10.055
15.5084 10.060
15.5235 9.790
15.5387 10.039
15.5539 9.919
15.5691 10.111
15.5842 10.051
15.5994 9.765
15.6146 9.639
15.6298 9.520
15.6449 9.595
15.6601 9.830
15.6753 9.726
15.6905 9.782
15.7056 9.797
15.7208 9.598
15.7360 9.514
15.7512 9.396
15.7663 9.880
15.7815 9.853
15.7967 9.783
15.8119 9.816
15.8270 9.608
15.8422 9.777
15.8574 9.815
15.8726 9.553
15.8877 9.396
15.9029 9.322
15.9181 9.402
15.9333 9.833
15.9484 9.609
15.9636 9.493
15.9788 9.380
15.9940 9.404
16.0091 9.371
16.0243 9.645
16.0395 9.709
16.0547 9.617
16.0698 9.564
16.0850 9.424
16.1002 9.747
16.1154 9.631
16.1305 9.622
16.1457 9.800
16.1609 9.701
16.1761 9.760
16.1912 9.477
16.2064 9.493
16.2216 9.553
16.2368 9.790
16.2519 9.599
16.2671 9.877
16.2823 9.643
16.2975 9.692
16.3126 9.625
16.3278 9.935
16.3430 9.752
16.3582 9.816
16.3733 9.642
16.3885 9.678
16.4037 9.695
16.4189 9.663
16.4340 9.796
16.4492 9.643
16.4644 9.711
16.4796 9.661
16.4947 9.448
16.5099 9.595
16.5251 9.648
16.5403 9.595
16.5554 9.552
16.5706 9.491
16.5858 9.482
16.6010 9.614
16.6161 9.812
16.6313 9.556
16.6465 9.588
16.6617 9.789
16.6768 9.939
16.6920 9.770
16.7072 9.952
16.7224 10.078
16.7375 9.905
16.7527 9.709
16.7679 9.620
16.7831 9.730
16.7982 9.767
16.8134 9.807
16.8286 9.938
16.8438 9.988
16.8589 9.745
16.8741 9.490
16.8893 9.385
16.9045 9.458
16.9196 9.672
16.9348 9.897
16.9500 9.886
16.9652 9.846
16.9803 9.754
16.9955 9.672
17.0107 9.753
17.0259 9.804
17.0410 9.906
17.0562 9.996
17.0714 10.228
17.0866 10.247
17.1017 10.292
17.1169 10.548
17.1321 10.849
17.1473 11.275
17.1624 11.740
17.1776 12.504
17.1928 13.186
17.2080 14.100
17.2231 15.123
17.2383 16.206
17.2535 17.389
17.2687 18.131
17.2838 18.252
17.2990 17.898
17.3142 17.026
17.3294 16.283
17.3445 16.288
17.3597 16.261
17.3749 16.006
17.3901 15.467
17.4052 14.617
17.4204 13.611
17.4356 12.514
17.4508 11.945
17.4659 11.719
17.4811 11.695
17.4963 11.721
17.5115 11.340
17.5266 11.192
17.5418 11.086
17.5570 10.968
17.5722 11.114
17.5873 10.983
17.6025 11.013
17.6177 11.146
17.6329 11.178
17.6480 11.494
17.6632 11.602
17.6784 11.604
17.6936 11.574
17.7087 11.403
17.7239 11.252
17.7391 11.141
17.7543 10.970
17.7694 11.028
17.7846 10.988
17.7998 10.871
17.8150 10.887
17.8301 10.590
17.8453 10.392
17.8605 10.376
17.8757 10.357
17.8908 10.314
17.9060 10.372
17.9212 10.332
17.9364 10.138
17.9515 9.963
17.9667 9.999
17.9819 10.044
17.9971 10.184
18.0122 10.333
18.0274 10.261
18.0426 10.082
18.0578 10.154
18.0729 10.252
18.0881 9.953
18.1033 9.915
18.1185 9.892
18.1336 9.937
18.1488 10.099
18.1640 9.954
18.1792 9.793
18.1943 9.969
18.2095 9.951
18.2247 9.766
18.2399 9.706
18.2550 9.748
18.2702 9.867
18.2854 9.693
18.3006 9.686
18.3157 9.721
18.3309 9.737
18.3461 9.743
18.3613 9.673
18.3764 9.814
18.3916 9.773
18.4068 9.819
18.4220 9.742
18.4371 9.739
18.4523 9.688
18.4675 9.774
18.4827 9.953
18.4978 9.644
18.5130 9.426
18.5282 9.749
18.5434 9.872
18.5585 9.859
18.5737 9.626
18.5889 9.629
18.6041 9.744
18.6192 9.520
18.6344 9.715
18.6496 9.800
18.6648 9.740
18.6799 9.956
18.6951 9.985
18.7103 9.717
18.7255 9.686
18.7406 9.506
18.7558 9.616
18.7710 9.908
18.7862 9.927
18.8013 9.778
18.8165 9.665
18.8317 9.832
18.8469 9.837
18.8620 9.902
18.8772 9.776
18.8924 9.658
18.9076 9.968
18.9227 10.034
18.9379 9.888
18.9531 9.995
18.9683 10.158
18.9834 10.055
18.9986 10.144
19.0138 10.212
19.0290 9.865
19.0441 9.811
19.0593 9.982
19.0745 10.195
19.0897 10.133
19.1048 10.127
19.1200 10.189
19.1352 10.389
19.1504 10.567
19.1655 10.375
19.1807 10.343
19.1959 10.402
19.2111 10.434
19.2262 10.679
19.2414 10.922
19.2566 10.906
19.2718 11.049
19.2869 10.960
19.3021 10.842
19.3173 10.920
19.3325 11.074
19.3476 11.139
19.3628 11.198
19.3780 10.910
19.3932 10.946
19.4083 11.150
19.4235 11.037
19.4387 11.117
19.4539 11.127
19.4690 11.096
19.4842 11.044
19.4994 10.936
19.5146 11.133
19.5297 11.348
19.5449 11.398
19.5601 11.580
19.5753 11.496
19.5904 11.418
19.6056 11.438
19.6208 11.397
19.6360 11.650
19.6511 11.774
19.6663 11.636
19.6815 11.537
19.6967 11.566
19.7118 11.669
19.7270 11.694
19.7422 11.624
19.7574 11.687
19.7725 11.861
19.7877 11.932
19.8029 12.090
19.8180 12.145
19.8332 11.965
19.8484 12.012
19.8636 12.210
19.8787 12.430
19.8939 12.698
19.9091 13.006
19.9243 13.284
19.9394 13.517
19.9546 13.964
19.9698 14.392
19.9850 14.565
20.0001 14.473
20.0153 13.996
20.0305 13.873
20.0457 13.984
20.0608 13.839
20.0760 13.496
20.0912 13.755
20.1064 13.785
20.1215 13.612
20.1367 13.490
20.1519 13.063
20.1671 12.963
20.1822 12.936
20.1974 12.620
20.2126 12.445
20.2278 12.350
20.2429 12.301
20.2581 12.312
20.2733 12.263
20.2885 12.123
20.3036 12.156
20.3188 11.756
20.3340 11.760
20.3492 11.976
20.3643 12.013
20.3795 11.848
20.3947 11.759
20.4099 11.613
20.4250 11.684
20.4402 11.993
20.4554 12.058
20.4706 11.791
20.4857 11.541
20.5009 11.648
20.5161 11.688
20.5313 11.401
20.5464 11.562
20.5616 11.342
20.5768 11.319
20.5920 11.248
20.6071 11.208
20.6223 10.776
20.6375 10.731
20.6527 10.781
20.6678 10.767
20.6830 10.504
20.6982 10.437
20.7134 10.331
20.7285 10.467
20.7437 10.453
20.7589 10.366
20.7741 10.112
20.7892 10.402
20.8044 10.279
20.8196 10.168
20.8348 10.210
20.8499 10.101
20.8651 10.283
20.8803 9.932
20.8955 10.247
20.9106 10.109
20.9258 10.098
20.9410 10.198
20.9562 10.076
20.9713 10.343
20.9865 9.921
21.0017 9.860
21.0169 10.020
21.0320 9.980
21.0472 9.859
21.0624 9.906
21.0776 10.135
21.0927 9.961
21.1079 9.792
21.1231 9.891
21.1383 9.824
21.1534 9.765
21.1686 9.658
21.1838 9.582
21.1990 9.558
21.2141 9.978
21.2293 9.493
21.2445 9.702
21.2597 9.615
21.2748 9.748
21.2900 9.971
21.3052 9.800
21.3204 9.405
21.3355 9.607
21.3507 9.371
21.3659 9.601
21.3811 9.169
21.3962 9.522
21.4114 9.190
21.4266 9.300
21.4418 9.433
21.4569 9.402
21.4721 9.385
21.4873 9.162
21.5025 9.452
21.5176 9.436
21.5328 9.258
21.5480 9.126
21.5632 9.050
21.5783 9.319
21.5935 9.342
21.6087 9.419
21.6239 9.093
21.6390 8.850
21.6542 9.208
21.6694 9.056
21.6846 9.254
21.6997 9.257
21.7149 9.269
21.7301 9.184
21.7453 8.964
21.7604 8.841
21.7756 8.902
21.7908 9.111
21.8060 9.206
21.8211 9.041
21.8363 8.825
21.8515 8.905
21.8667 9.218
21.8818 9.194
21.8970 8.973
21.9122 9.147
21.9274 9.061
21.9425 8.837
21.9577 8.817
21.9729 8.870
21.9881 8.802
22.0032 8.720
22.0184 8.733
22.0336 8.745
22.0488 8.850
22.0639 8.810
22.0791 8.702
22.0943 8.702
22.1095 8.737
22.1246 8.592
22.1398 8.568
22.1550 8.666
22.1702 8.689
22.1853 8.541
22.2005 8.815
22.2157 8.854
22.2309 8.509
22.2460 8.432
22.2612 8.316
22.2764 8.522
22.2916 8.516
22.3067 8.579
22.3219 8.529
22.3371 8.622
22.3523 8.595
22.3674 8.753
22.3826 8.798
22.3978 8.567
22.4130 8.371
22.4281 8.846
22.4433 8.184
22.4585 8.345
22.4737 8.489
22.4888 8.454
22.5040 8.250
22.5192 8.705
22.5344 8.469
22.5495 8.505
22.5647 8.457
22.5799 8.344
22.5951 8.433
22.6102 8.206
22.6254 8.323
22.6406 8.413
22.6558 8.445
22.6709 8.544
22.6861 8.288
22.7013 8.060
22.7165 7.810
22.7316 6.168
