'Id: "" Comment: "" Operator: "Lab Manager" Anode: "Mo" Scantype: "Still (Eiger2R_500K (1D mode))" TimePerStep: "300" X: "11.8" Y: "9.4" Z: "11.284" 
7.2532 18.786
7.2684 19.094
7.2836 19.085
7.2987 18.164
7.3139 18.984
7.3291 19.378
7.3443 19.506
7.3594 19.084
7.3746 19.257
7.3898 19.153
7.4050 19.336
7.4201 19.335
7.4353 19.511
7.4505 19.946
7.4657 19.192
7.4808 19.470
7.4960 19.598
7.5112 19.463
7.5264 19.556
7.5415 19.886
7.5567 19.722
7.5719 19.728
7.5871 19.780
7.6022 20.092
7.6174 20.235
7.6326 20.134
7.6478 20.263
7.6629 20.051
7.6781 20.208
7.6933 20.407
7.7085 20.360
7.7236 20.137
7.7388 20.172
7.7540 20.566
7.7692 20.863
7.7843 20.730
7.7995 20.936
7.8147 20.829
7.8299 20.609
7.8450 20.836
7.8602 20.736
7.8754 20.736
7.8905 20.776
7.9057 20.859
7.9209 20.722
7.9361 20.775
7.9512 21.195
7.9664 21.176
7.9816 20.877
7.9968 20.867
8.0119 21.064
8.0271 21.172
8.0423 21.270
8.0575 21.680
8.0726 21.080
8.0878 21.493
8.1030 21.273
8.1182 21.290
8.1333 21.612
8.1485 21.633
8.1637 21.734
8.1789 21.462
8.1940 21.423
8.2092 21.824
8.2244 21.484
8.2396 21.278
8.2547 21.474
8.2699 21.520
8.2851 21.875
8.3003 21.975
8.3154 21.779
8.3306 21.731
8.3458 21.538
8.3610 21.900
8.3761 21.917
8.3913 21.819
8.4065 22.009
8.4217 21.752
8.4368 21.634
8.4520 22.200
8.4672 21.612
8.4824 22.451
8.4975 22.196
8.5127 22.207
8.5279 22.290
8.5431 22.424
8.5582 22.320
8.5734 22.281
8.5886 22.516
8.6038 22.347
8.6189 22.364
8.6341 22.177
8.6493 22.621
8.6645 22.375
8.6796 22.427
8.6948 22.577
8.7100 22.363
8.7252 22.480
8.7403 22.359
8.7555 22.809
8.7707 22.778
8.7859 22.677
8.8010 22.568
8.8162 22.775
8.8314 23.042
8.8466 22.593
8.8617 22.459
8.8769 22.488
8.8921 22.705
8.9073 22.626
8.9224 23.079
8.9376 22.934
8.9528 23.055
8.9680 22.621
8.9831 22.890
8.9983 22.806
9.0135 22.806
9.0287 22.675
9.0438 22.558
9.0590 22.781
9.0742 22.907
9.0894 22.919
9.1045 23.098
9.1197 22.650
9.1349 22.865
9.1501 22.911
9.1652 22.849
9.1804 23.418
9.1956 23.255
9.2108 23.099
9.2259 22.936
9.2411 23.101
9.2563 23.072
9.2715 23.201
9.2866 23.214
9.3018 23.149
9.3170 23.145
9.3322 23.047
9.3473 23.153
9.3625 23.211
9.3777 23.313
9.3929 23.162
9.4080 23.170
9.4232 22.928
9.4384 23.254
9.4536 23.651
9.4687 23.229
9.4839 23.297
9.4991 23.574
9.5143 23.440
9.5294 23.036
9.5446 23.151
9.5598 23.403
9.5750 23.364
9.5901 23.151
9.6053 23.405
9.6205 23.420
9.6357 23.302
9.6508 23.553
9.6660 23.820
9.6812 23.956
9.6964 23.870
9.7115 23.927
9.7267 23.977
9.7419 24.272
9.7571 24.248
9.7722 23.712
9.7874 23.718
9.8026 23.686
9.8178 23.234
9.8329 23.358
9.8481 23.543
9.8633 23.466
9.8785 23.513
9.8936 23.538
9.9088 23.707
9.9240 23.856
9.9392 23.671
9.9543 23.649
9.9695 23.631
9.9847 23.591
9.9999 23.711
10.0150 24.082
10.0302 23.896
10.0454 23.431
10.0606 23.076
10.0757 23.382
10.0909 23.721
10.1061 23.259
10.1213 23.178
10.1364 23.100
10.1516 23.144
10.1668 23.134
10.1820 23.119
10.1971 23.227
10.2123 23.160
10.2275 23.364
10.2427 23.518
10.2578 23.302
10.2730 23.082
10.2882 23.564
10.3034 23.344
10.3185 23.070
10.3337 23.119
10.3489 22.976
10.3641 22.991
10.3792 23.188
10.3944 23.317
10.4096 23.042
10.4248 22.889
10.4399 22.861
10.4551 23.104
10.4703 22.999
10.4855 22.933
10.5006 22.539
10.5158 22.485
10.5310 22.650
10.5462 22.649
10.5613 22.893
10.5765 23.088
10.5917 22.834
10.6069 22.847
10.6220 22.314
10.6372 22.482
10.6524 22.724
10.6676 22.848
10.6827 22.672
10.6979 22.715
10.7131 22.635
10.7283 22.574
10.7434 22.693
10.7586 22.540
10.7738 22.462
10.7890 22.369
10.8041 22.594
10.8193 22.103
10.8345 22.235
10.8497 22.192
10.8648 22.184
10.8800 22.243
10.8952 22.332
10.9104 22.213
10.9255 22.486
10.9407 22.526
10.9559 22.475
10.9711 22.248
10.9862 21.862
11.0014 22.118
11.0166 22.550
11.0318 22.322
11.0469 22.059
11.0621 21.869
11.0773 21.865
11.0925 21.714
11.1076 21.960
11.1228 21.967
11.1380 21.770
11.1532 22.012
11.1683 21.928
11.1835 22.007
11.1987 21.817
11.2139 21.725
11.2290 21.885
11.2442 21.972
11.2594 21.915
11.2746 21.700
11.2897 21.653
11.3049 22.012
11.3201 22.141
11.3353 21.761
11.3504 21.346
11.3656 21.105
11.3808 21.856
11.3960 21.554
11.4111 21.105
11.4263 21.185
11.4415 21.188
11.4567 21.274
11.4718 21.191
11.4870 21.448
11.5022 21.028
11.5174 21.301
11.5325 21.241
11.5477 21.039
11.5629 21.044
11.5781 21.106
11.5932 21.061
11.6084 20.789
11.6236 20.530
11.6388 21.006
11.6539 20.937
11.6691 20.938
11.6843 20.667
11.6995 20.706
11.7146 20.552
11.7298 20.515
11.7450 20.411
11.7602 20.384
11.7753 20.262
11.7905 20.627
11.8057 20.329
11.8209 19.930
11.8360 19.970
11.8512 19.860
11.8664 19.626
11.8816 19.624
11.8967 19.631
11.9119 19.911
11.9271 19.696
11.9423 19.787
11.9574 19.539
11.9726 19.577
11.9878 19.432
12.0030 19.119
12.0181 18.960
12.0333 18.933
12.0485 19.007
12.0637 19.289
12.0788 19.033
12.0940 18.631
12.1092 18.560
12.1244 19.020
12.1395 19.142
12.1547 18.695
12.1699 18.495
12.1851 18.330
12.2002 18.155
12.2154 18.232
12.2306 18.312
12.2458 18.224
12.2609 17.877
12.2761 17.772
12.2913 17.844
12.3065 17.854
12.3216 17.677
12.3368 17.494
12.3520 17.479
12.3672 17.279
12.3823 17.335
12.3975 17.168
12.4127 17.119
12.4279 17.284
12.4430 17.334
12.4582 17.346
12.4734 16.932
12.4886 17.045
12.5037 17.114
12.5189 17.058
12.5341 16.682
12.5493 16.754
12.5644 16.726
12.5796 16.471
12.5948 16.227
12.6100 16.329
12.6251 16.290
12.6403 16.052
12.6555 16.122
12.6707 15.885
12.6858 15.977
12.7010 15.809
12.7162 15.608
12.7314 15.539
12.7465 15.421
12.7617 15.839
12.7769 15.696
12.7921 15.248
12.8072 15.313
12.8224 15.084
12.8376 14.814
12.8528 15.002
12.8679 15.146
12.8831 15.073
12.8983 15.025
12.9135 14.983
12.9286 15.077
12.9438 14.929
12.9590 14.880
12.9742 14.795
12.9893 14.407
13.0045 14.475
13.0197 14.528
13.0349 14.297
13.0500 14.187
13.0652 14.123
13.0804 14.130
13.0956 14.020
13.1107 14.062
13.1259 14.096
13.1411 13.978
13.1563 13.875
13.1714 13.704
13.1866 13.589
13.2018 13.570
13.2170 13.605
13.2321 13.546
13.2473 13.617
13.2625 13.394
13.2777 13.254
13.2928 13.492
13.3080 13.403
13.3232 13.243
13.3384 13.102
13.3535 13.069
13.3687 13.206
13.3839 13.363
13.3991 13.324
13.4142 13.284
13.4294 13.197
13.4446 13.131
13.4598 13.035
13.4749 12.756
13.4901 12.602
13.5053 12.389
13.5205 12.582
13.5356 12.726
13.5508 12.658
13.5660 12.497
13.5812 12.281
13.5963 12.125
13.6115 12.141
13.6267 12.206
13.6419 12.439
13.6570 12.276
13.6722 11.902
13.6874 12.173
13.7026 12.203
13.7177 12.113
13.7329 12.097
13.7481 11.970
13.7633 12.064
13.7784 12.348
13.7936 12.265
13.8088 12.031
13.8239 12.275
13.8391 12.375
13.8543 12.342
13.8695 12.392
13.8846 12.297
13.8998 12.065
13.9150 12.129
13.9302 12.149
13.9453 12.116
13.9605 11.892
13.9757 11.790
13.9909 11.874
14.0060 11.783
14.0212 11.671
14.0364 11.634
14.0516 11.555
14.0667 11.429
14.0819 11.371
14.0971 11.524
14.1123 11.570
14.1274 11.465
14.1426 11.506
14.1578 11.427
14.1730 11.372
14.1881 11.703
14.2033 11.752
14.2185 11.621
14.2337 11.612
14.2488 11.524
14.2640 11.662
14.2792 11.810
14.2944 11.623
14.3095 11.832
14.3247 11.846
14.3399 12.047
14.3551 12.109
14.3702 12.263
14.3854 12.453
14.4006 12.507
14.4158 12.726
14.4309 12.576
14.4461 12.370
14.4613 12.066
14.4765 12.331
14.4916 12.104
14.5068 11.819
14.5220 11.775
14.5372 11.357
14.5523 11.500
14.5675 11.198
14.5827 11.119
14.5979 11.272
14.6130 11.182
14.6282 11.136
14.6434 10.878
14.6586 11.196
14.6737 10.928
14.6889 11.140
14.7041 11.101
14.7193 10.890
14.7344 10.913
14.7496 10.943
14.7648 10.897
14.7800 11.020
14.7951 11.117
14.8103 11.057
14.8255 10.829
14.8407 10.672
14.8558 10.903
14.8710 10.960
14.8862 10.574
14.9014 10.811
14.9165 10.596
14.9317 10.869
14.9469 10.985
14.9621 10.471
14.9772 10.523
14.9924 10.236
15.0076 10.647
15.0228 10.656
15.0379 10.612
15.0531 10.481
15.0683 10.615
15.0835 10.162
15.0986 10.685
15.1138 10.541
15.1290 10.340
15.1442 10.309
15.1593 10.503
15.1745 10.415
15.1897 10.890
15.2049 10.175
15.2200 10.405
15.2352 10.764
15.2504 10.514
15.2656 9.844
15.2807 10.575
15.2959 10.092
15.3111 10.485
15.3263 10.193
15.3414 10.213
15.3566 10.338
15.3718 10.265
15.3870 10.150
15.4021 10.391
15.4173 10.581
15.4325 10.679
15.4477 10.380
15.4628 10.400
15.4780 10.512
15.4932 10.241
15.5084 10.364
15.5235 10.561
15.5387 10.291
15.5539 10.477
15.5691 10.145
15.5842 10.136
15.5994 10.445
15.6146 9.943
15.6298 9.824
15.6449 10.058
15.6601 9.837
15.6753 10.286
15.6905 10.099
15.7056 9.708
15.7208 9.772
15.7360 9.887
15.7512 10.011
15.7663 9.870
15.7815 9.845
15.7967 9.874
15.8119 9.803
15.8270 9.965
15.8422 9.870
15.8574 10.037
15.8726 9.693
15.8877 9.801
15.9029 9.923
15.9181 10.120
15.9333 9.762
15.9484 9.728
15.9636 9.633
15.9788 9.793
15.9940 9.961
16.0091 9.874
16.0243 9.791
16.0395 9.916
16.0547 9.799
16.0698 9.751
16.0850 9.932
16.1002 9.958
16.1154 9.578
16.1305 9.820
16.1457 9.793
16.1609 9.687
16.1761 9.613
16.1912 9.716
16.2064 9.676
16.2216 9.868
16.2368 9.742
16.2519 9.957
16.2671 10.002
16.2823 10.060
16.2975 9.955
16.3126 9.907
16.3278 9.881
16.3430 9.882
16.3582 9.955
16.3733 9.953
16.3885 10.047
16.4037 10.313
16.4189 10.126
16.4340 10.026
16.4492 10.061
16.4644 9.956
16.4796 9.891
16.4947 9.901
16.5099 9.915
16.5251 10.026
16.5403 9.833
16.5554 9.758
16.5706 9.830
16.5858 9.881
16.6010 9.544
16.6161 9.760
16.6313 9.826
16.6465 10.022
16.6617 10.071
16.6768 10.146
16.6920 9.980
16.7072 9.856
16.7224 9.927
16.7375 10.012
16.7527 10.004
16.7679 10.011
16.7831 9.906
16.7982 9.966
16.8134 9.927
16.8286 9.958
16.8438 10.166
16.8589 10.041
16.8741 9.934
16.8893 9.866
16.9045 9.777
16.9196 9.843
16.9348 9.809
16.9500 9.851
16.9652 10.018
16.9803 10.128
16.9955 10.115
17.0107 10.008
17.0259 9.925
17.0410 10.009
17.0562 10.256
17.0714 10.517
17.0866 10.620
17.1017 10.638
17.1169 10.965
17.1321 11.370
17.1473 11.759
17.1624 11.958
17.1776 12.352
17.1928 13.242
17.2080 14.149
17.2231 15.161
17.2383 16.536
17.2535 17.776
17.2687 18.817
17.2838 18.788
17.2990 18.069
17.3142 17.359
17.3294 16.710
17.3445 16.404
17.3597 16.070
17.3749 15.771
17.3901 15.058
17.4052 13.965
17.4204 12.906
17.4356 12.239
17.4508 11.868
17.4659 11.627
17.4811 11.350
17.4963 11.343
17.5115 11.277
17.5266 10.783
17.5418 10.763
17.5570 10.784
17.5722 10.637
17.5873 10.580
17.6025 10.571
17.6177 10.486
17.6329 10.636
17.6480 10.771
17.6632 10.672
17.6784 10.552
17.6936 10.430
17.7087 10.350
17.7239 10.454
17.7391 10.478
17.7543 10.219
17.7694 10.186
17.7846 10.355
17.7998 10.331
17.8150 10.291
17.8301 10.402
17.8453 10.251
17.8605 10.200
17.8757 10.380
17.8908 10.434
17.9060 10.455
17.9212 10.342
17.9364 10.101
17.9515 10.203
17.9667 10.354
17.9819 10.567
17.9971 10.600
18.0122 10.241
18.0274 10.235
18.0426 10.360
18.0578 10.236
18.0729 10.130
18.0881 10.107
18.1033 10.122
18.1185 10.000
18.1336 9.992
18.1488 10.097
18.1640 10.132
18.1792 10.129
18.1943 10.139
18.2095 9.981
18.2247 9.818
18.2399 9.850
18.2550 10.007
18.2702 10.049
18.2854 10.158
18.3006 10.143
18.3157 9.955
18.3309 9.690
18.3461 9.513
18.3613 9.811
18.3764 9.748
18.3916 9.663
18.4068 9.715
18.4220 9.622
18.4371 9.764
18.4523 9.831
18.4675 9.767
18.4827 9.725
18.4978 9.537
18.5130 9.529
18.5282 9.733
18.5434 9.835
18.5585 9.880
18.5737 10.082
18.5889 10.010
18.6041 9.883
18.6192 9.628
18.6344 9.873
18.6496 9.853
18.6648 9.785
18.6799 9.913
18.6951 9.829
18.7103 9.873
18.7255 9.751
18.7406 9.645
18.7558 9.928
18.7710 9.881
18.7862 9.861
18.8013 9.703
18.8165 9.509
18.8317 9.719
18.8469 9.728
18.8620 9.858
18.8772 10.123
18.8924 10.181
18.9076 10.107
18.9227 10.099
18.9379 9.978
18.9531 9.768
18.9683 9.819
18.9834 9.848
18.9986 10.081
19.0138 10.204
19.0290 10.088
19.0441 10.048
19.0593 10.050
19.0745 10.274
19.0897 10.267
19.1048 10.310
19.1200 10.311
19.1352 10.464
19.1504 10.395
19.1655 10.232
19.1807 10.441
19.1959 10.524
19.2111 10.418
19.2262 10.463
19.2414 10.670
19.2566 10.949
19.2718 11.066
19.2869 10.932
19.3021 10.772
19.3173 10.828
19.3325 10.998
19.3476 11.111
19.3628 11.138
19.3780 11.017
19.3932 10.978
19.4083 10.979
19.4235 11.030
19.4387 11.503
19.4539 11.483
19.4690 11.189
19.4842 11.409
19.4994 11.365
19.5146 11.507
19.5297 11.522
19.5449 11.262
19.5601 11.490
19.5753 11.756
19.5904 11.740
19.6056 11.619
19.6208 11.587
19.6360 11.612
19.6511 11.593
19.6663 11.568
19.6815 11.702
19.6967 11.697
19.7118 11.611
19.7270 11.584
19.7422 11.888
19.7574 11.942
19.7725 11.841
19.7877 11.879
19.8029 11.771
19.8180 11.865
19.8332 11.957
19.8484 11.951
19.8636 12.361
19.8787 12.653
19.8939 12.578
19.9091 12.926
19.9243 13.440
19.9394 13.870
19.9546 14.136
19.9698 14.357
19.9850 14.448
20.0001 14.431
20.0153 14.406
20.0305 14.088
20.0457 13.932
20.0608 13.998
20.0760 13.974
20.0912 13.703
20.1064 13.644
20.1215 13.433
20.1367 13.128
20.1519 13.032
20.1671 12.901
20.1822 12.795
20.1974 12.714
20.2126 12.734
20.2278 12.539
20.2429 12.518
20.2581 12.212
20.2733 12.200
20.2885 11.983
20.3036 11.829
20.3188 11.612
20.3340 11.528
20.3492 11.514
20.3643 11.431
20.3795 11.456
20.3947 11.170
20.4099 10.961
20.4250 11.017
20.4402 10.779
20.4554 10.737
20.4706 11.012
20.4857 10.749
20.5009 10.643
20.5161 10.703
20.5313 10.587
20.5464 10.900
20.5616 10.950
20.5768 10.457
20.5920 10.369
20.6071 10.651
20.6223 10.468
20.6375 10.242
20.6527 10.515
20.6678 10.538
20.6830 10.703
20.6982 10.709
20.7134 10.301
20.7285 10.708
20.7437 10.450
20.7589 10.377
20.7741 10.210
20.7892 10.049
20.8044 10.234
20.8196 10.394
20.8348 10.145
20.8499 10.189
20.8651 10.183
20.8803 10.310
20.8955 10.168
20.9106 10.402
20.9258 10.547
20.9410 10.056
20.9562 10.137
20.9713 10.033
20.9865 10.166
21.0017 10.202
21.0169 9.972
21.0320 9.936
21.0472 9.671
21.0624 9.763
21.0776 9.968
21.0927 9.718
21.1079 9.738
21.1231 9.756
21.1383 9.789
21.1534 9.987
21.1686 9.832
21.1838 9.872
21.1990 9.769
21.2141 9.784
21.2293 9.517
21.2445 9.395
21.2597 9.659
21.2748 9.683
21.2900 9.872
21.3052 9.228
21.3204 9.523
21.3355 9.488
21.3507 9.465
21.3659 9.385
21.3811 9.625
21.3962 9.726
21.4114 9.433
21.4266 9.163
21.4418 9.233
21.4569 9.357
21.4721 9.537
21.4873 9.526
21.5025 9.353
21.5176 9.540
21.5328 9.403
21.5480 9.489
21.5632 9.330
21.5783 9.241
21.5935 9.362
21.6087 9.432
21.6239 8.894
21.6390 8.914
21.6542 9.040
21.6694 9.386
21.6846 9.032
21.6997 9.175
21.7149 9.368
21.7301 9.188
21.7453 8.884
21.7604 8.976
21.7756 9.015
21.7908 9.172
21.8060 9.007
21.8211 9.110
21.8363 9.008
21.8515 9.054
21.8667 9.046
21.8818 9.064
21.8970 8.989
21.9122 8.920
21.9274 8.975
21.9425 9.087
21.9577 8.974
21.9729 8.805
21.9881 8.831
22.0032 8.847
22.0184 8.803
22.0336 8.557
22.0488 8.485
22.0639 8.641
22.0791 8.695
22.0943 8.652
22.1095 8.730
22.1246 8.653
22.1398 8.845
22.1550 8.757
22.1702 8.602
22.1853 8.838
22.2005 8.864
22.2157 8.687
22.2309 8.855
22.2460 8.625
22.2612 8.577
22.2764 8.846
22.2916 8.897
22.3067 8.698
22.3219 8.783
22.3371 8.535
22.3523 8.399
22.3674 8.414
22.3826 8.465
22.3978 8.322
22.4130 8.600
22.4281 8.406
22.4433 8.463
22.4585 8.269
22.4737 8.639
22.4888 8.319
22.5040 8.356
22.5192 8.195
22.5344 8.428
22.5495 8.464
22.5647 8.477
22.5799 8.491
22.5951 8.518
22.6102 8.307
22.6254 8.458
22.6406 8.591
22.6558 8.639
22.6709 8.541
22.6861 8.671
22.7013 8.386
22.7165 7.834
22.7316 6.559
