'Id: "" Comment: "" Operator: "Lab Manager" Anode: "Mo" Scantype: "Still (Eiger2R_500K (1D mode))" TimePerStep: "300" X: "11.8" Y: "9.4" Z: "11.284" 
7.2532 18.547
7.2684 18.348
7.2836 18.656
7.2987 18.982
7.3139 19.296
7.3291 19.455
7.3443 18.580
7.3594 19.032
7.3746 19.254
7.3898 19.262
7.4050 18.895
7.4201 19.191
7.4353 19.704
7.4505 19.367
7.4657 19.174
7.4808 19.595
7.4960 19.702
7.5112 19.920
7.5264 20.360
7.5415 20.151
7.5567 19.811
7.5719 19.901
7.5871 19.863
7.6022 19.873
7.6174 19.596
7.6326 19.707
7.6478 20.227
7.6629 20.438
7.6781 20.164
7.6933 20.076
7.7085 20.233
7.7236 20.380
7.7388 20.411
7.7540 20.455
7.7692 20.754
7.7843 20.850
7.7995 20.508
7.8147 20.609
7.8299 20.561
7.8450 20.393
7.8602 20.335
7.8754 20.702
7.8905 20.914
7.9057 20.947
7.9209 21.212
7.9361 20.964
7.9512 20.932
7.9664 21.323
7.9816 20.907
7.9968 21.026
8.0119 21.187
8.0271 21.274
8.0423 21.333
8.0575 21.176
8.0726 21.169
8.0878 21.080
8.1030 21.173
8.1182 21.176
8.1333 21.267
8.1485 21.167
8.1637 21.535
8.1789 21.483
8.1940 21.183
8.2092 21.340
8.2244 21.054
8.2396 21.280
8.2547 21.498
8.2699 21.521
8.2851 21.679
8.3003 21.569
8.3154 21.757
8.3306 21.929
8.3458 22.006
8.3610 21.686
8.3761 21.846
8.3913 21.890
8.4065 21.977
8.4217 21.803
8.4368 21.994
8.4520 22.112
8.4672 22.560
8.4824 21.907
8.4975 22.367
8.5127 22.028
8.5279 21.910
8.5431 22.077
8.5582 22.702
8.5734 22.038
8.5886 22.800
8.6038 22.445
8.6189 22.203
8.6341 22.205
8.6493 22.607
8.6645 22.533
8.6796 22.932
8.6948 21.905
8.7100 22.857
8.7252 22.724
8.7403 22.991
8.7555 23.194
8.7707 23.245
8.7859 22.723
8.8010 22.937
8.8162 22.717
8.8314 22.656
8.8466 22.574
8.8617 22.781
8.8769 22.353
8.8921 22.930
8.9073 22.681
8.9224 22.499
8.9376 22.522
8.9528 22.976
8.9680 22.837
8.9831 22.909
8.9983 22.436
9.0135 22.661
9.0287 22.927
9.0438 22.853
9.0590 22.921
9.0742 23.415
9.0894 22.796
9.1045 22.652
9.1197 23.053
9.1349 23.095
9.1501 23.045
9.1652 23.085
9.1804 23.162
9.1956 23.032
9.2108 23.008
9.2259 23.369
9.2411 23.222
9.2563 23.145
9.2715 23.013
9.2866 23.144
9.3018 23.015
9.3170 23.112
9.3322 22.995
9.3473 23.175
9.3625 22.766
9.3777 23.340
9.3929 23.169
9.4080 22.998
9.4232 23.124
9.4384 23.167
9.4536 23.362
9.4687 23.373
9.4839 23.152
9.4991 23.341
9.5143 23.138
9.5294 23.214
9.5446 23.325
9.5598 23.220
9.5750 23.406
9.5901 23.155
9.6053 23.196
9.6205 23.224
9.6357 23.191
9.6508 23.392
9.6660 23.850
9.6812 24.252
9.6964 24.167
9.7115 23.971
9.7267 24.073
9.7419 24.130
9.7571 23.979
9.7722 23.893
9.7874 24.041
9.8026 23.990
9.8178 23.735
9.8329 23.546
9.8481 23.571
9.8633 23.690
9.8785 23.348
9.8936 23.274
9.9088 23.289
9.9240 23.380
9.9392 23.515
9.9543 23.219
9.9695 23.346
9.9847 23.711
9.9999 23.957
10.0150 23.855
10.0302 23.737
10.0454 23.447
10.0606 23.426
10.0757 23.646
10.0909 23.270
10.1061 23.248
10.1213 23.542
10.1364 23.340
10.1516 23.246
10.1668 23.632
10.1820 23.632
10.1971 23.627
10.2123 23.937
10.2275 24.078
10.2427 24.069
10.2578 23.731
10.2730 23.614
10.2882 23.653
10.3034 23.693
10.3185 23.487
10.3337 23.792
10.3489 23.339
10.3641 22.891
10.3792 23.152
10.3944 23.091
10.4096 22.965
10.4248 22.957
10.4399 22.726
10.4551 22.682
10.4703 22.578
10.4855 22.569
10.5006 22.807
10.5158 23.005
10.5310 22.865
10.5462 22.993
10.5613 23.026
10.5765 22.830
10.5917 22.663
10.6069 22.632
10.6220 22.874
10.6372 23.101
10.6524 22.862
10.6676 22.765
10.6827 22.653
10.6979 22.536
10.7131 22.315
10.7283 22.401
10.7434 22.233
10.7586 22.320
10.7738 22.302
10.7890 22.409
10.8041 22.078
10.8193 22.261
10.8345 22.379
10.8497 22.339
10.8648 22.235
10.8800 22.117
10.8952 21.919
10.9104 22.161
10.9255 22.297
10.9407 21.971
10.9559 21.907
10.9711 22.275
10.9862 22.158
11.0014 22.146
11.0166 22.297
11.0318 22.283
11.0469 21.676
11.0621 21.928
11.0773 21.929
11.0925 22.083
11.1076 22.118
11.1228 22.188
11.1380 21.756
11.1532 21.846
11.1683 22.026
11.1835 22.066
11.1987 22.280
11.2139 22.128
11.2290 22.361
11.2442 22.093
11.2594 21.845
11.2746 22.181
11.2897 22.144
11.3049 21.662
11.3201 21.428
11.3353 21.701
11.3504 21.944
11.3656 21.837
11.3808 21.274
11.3960 21.310
11.4111 21.515
11.4263 21.244
11.4415 21.405
11.4567 21.356
11.4718 21.043
11.4870 21.257
11.5022 21.014
11.5174 21.230
11.5325 21.153
11.5477 21.154
11.5629 20.759
11.5781 20.829
11.5932 20.957
11.6084 20.922
11.6236 20.754
11.6388 20.913
11.6539 21.073
11.6691 20.752
11.6843 20.613
11.6995 20.598
11.7146 20.645
11.7298 20.502
11.7450 20.044
11.7602 20.186
11.7753 19.914
11.7905 19.765
11.8057 20.045
11.8209 20.040
11.8360 20.135
11.8512 20.200
11.8664 19.803
11.8816 19.861
11.8967 19.902
11.9119 19.592
11.9271 19.759
11.9423 19.595
11.9574 19.339
11.9726 19.098
11.9878 19.154
12.0030 19.089
12.0181 19.126
12.0333 18.962
12.0485 18.888
12.0637 19.033
12.0788 19.059
12.0940 18.925
12.1092 19.012
12.1244 18.952
12.1395 18.489
12.1547 18.180
12.1699 18.245
12.1851 18.540
12.2002 18.703
12.2154 18.542
12.2306 18.268
12.2458 18.092
12.2609 17.967
12.2761 18.027
12.2913 17.830
12.3065 17.584
12.3216 17.622
12.3368 17.702
12.3520 17.676
12.3672 17.456
12.3823 17.464
12.3975 17.487
12.4127 17.293
12.4279 17.322
12.4430 17.280
12.4582 17.339
12.4734 17.203
12.4886 17.086
12.5037 16.866
12.5189 16.777
12.5341 16.697
12.5493 16.314
12.5644 16.380
12.5796 16.447
12.5948 16.179
12.6100 15.742
12.6251 15.655
12.6403 15.837
12.6555 15.909
12.6707 15.965
12.6858 15.880
12.7010 15.843
12.7162 15.976
12.7314 15.613
12.7465 15.342
12.7617 15.298
12.7769 15.410
12.7921 15.719
12.8072 15.821
12.8224 15.577
12.8376 15.213
12.8528 15.042
12.8679 15.111
12.8831 14.853
12.8983 14.679
12.9135 14.571
12.9286 14.733
12.9438 14.891
12.9590 14.602
12.9742 14.691
12.9893 14.580
13.0045 14.540
13.0197 14.471
13.0349 14.283
13.0500 14.343
13.0652 14.422
13.0804 14.508
13.0956 14.064
13.1107 13.685
13.1259 13.780
13.1411 13.692
13.1563 13.582
13.1714 13.686
13.1866 13.742
13.2018 13.613
13.2170 13.514
13.2321 13.639
13.2473 13.669
13.2625 13.507
13.2777 13.342
13.2928 12.970
13.3080 12.949
13.3232 13.213
13.3384 13.288
13.3535 13.431
13.3687 13.299
13.3839 12.947
13.3991 12.690
13.4142 12.881
13.4294 12.905
13.4446 12.635
13.4598 12.749
13.4749 12.786
13.4901 12.741
13.5053 12.869
13.5205 12.653
13.5356 12.386
13.5508 12.274
13.5660 12.394
13.5812 12.474
13.5963 12.331
13.6115 12.315
13.6267 12.269
13.6419 12.337
13.6570 12.394
13.6722 12.209
13.6874 12.281
13.7026 12.083
13.7177 12.170
13.7329 12.233
13.7481 12.182
13.7633 12.280
13.7784 12.160
13.7936 12.082
13.8088 12.326
13.8239 12.341
13.8391 12.416
13.8543 12.246
13.8695 12.390
13.8846 12.388
13.8998 12.202
13.9150 12.288
13.9302 12.123
13.9453 11.939
13.9605 11.671
13.9757 11.435
13.9909 11.551
14.0060 11.605
14.0212 11.768
14.0364 11.726
14.0516 11.701
14.0667 11.469
14.0819 11.750
14.0971 11.725
14.1123 11.411
14.1274 11.683
14.1426 11.897
14.1578 11.607
14.1730 11.879
14.1881 11.871
14.2033 11.877
14.2185 11.792
14.2337 11.898
14.2488 12.084
14.2640 12.030
14.2792 11.825
14.2944 12.019
14.3095 12.428
14.3247 12.345
14.3399 12.409
14.3551 12.709
14.3702 12.813
14.3854 13.081
14.4006 13.079
14.4158 13.028
14.4309 12.771
14.4461 12.713
14.4613 12.487
14.4765 12.180
14.4916 12.178
14.5068 11.829
14.5220 11.845
14.5372 11.401
14.5523 11.631
14.5675 11.659
14.5827 10.953
14.5979 11.312
14.6130 11.195
14.6282 11.024
14.6434 11.394
14.6586 11.143
14.6737 10.894
14.6889 10.937
14.7041 11.103
14.7193 11.068
14.7344 11.361
14.7496 10.976
14.7648 10.910
14.7800 10.941
14.7951 11.055
14.8103 10.506
14.8255 10.709
14.8407 10.797
14.8558 10.456
14.8710 10.552
14.8862 10.844
14.9014 10.764
14.9165 10.740
14.9317 10.728
14.9469 10.580
14.9621 10.625
14.9772 10.435
14.9924 10.422
15.0076 10.572
15.0228 10.570
15.0379 10.545
15.0531 10.413
15.0683 10.618
15.0835 10.661
15.0986 10.672
15.1138 10.372
15.1290 10.752
15.1442 10.672
15.1593 10.523
15.1745 10.430
15.1897 10.566
15.2049 10.519
15.2200 10.438
15.2352 10.347
15.2504 10.153
15.2656 10.336
15.2807 10.046
15.2959 10.196
15.3111 10.426
15.3263 10.448
15.3414 10.521
15.3566 10.031
15.3718 10.070
15.3870 10.528
15.4021 10.566
15.4173 10.385
15.4325 10.738
15.4477 10.505
15.4628 10.639
15.4780 10.592
15.4932 10.573
15.5084 10.120
15.5235 10.571
15.5387 10.537
15.5539 10.019
15.5691 10.079
15.5842 10.378
15.5994 10.041
15.6146 10.240
15.6298 9.843
15.6449 10.010
15.6601 10.013
15.6753 9.920
15.6905 10.034
15.7056 9.799
15.7208 9.914
15.7360 9.997
15.7512 10.203
15.7663 9.939
15.7815 10.041
15.7967 9.649
15.8119 9.838
15.8270 9.940
15.8422 10.178
15.8574 10.001
15.8726 9.609
15.8877 9.710
15.9029 9.543
15.9181 9.906
15.9333 10.033
15.9484 9.801
15.9636 9.777
15.9788 9.984
15.9940 9.970
16.0091 10.009
16.0243 10.073
16.0395 10.025
16.0547 9.649
16.0698 9.694
16.0850 9.731
16.1002 9.778
16.1154 9.777
16.1305 9.649
16.1457 9.626
16.1609 9.585
16.1761 9.738
16.1912 9.976
16.2064 9.807
16.2216 9.574
16.2368 9.620
16.2519 9.759
16.2671 10.012
16.2823 10.198
16.2975 10.197
16.3126 10.055
16.3278 10.061
16.3430 10.062
16.3582 10.019
16.3733 10.022
16.3885 10.074
16.4037 10.218
16.4189 10.007
16.4340 9.976
16.4492 10.003
16.4644 9.957
16.4796 9.815
16.4947 9.840
16.5099 10.036
16.5251 9.997
16.5403 9.829
16.5554 9.820
16.5706 9.851
16.5858 9.781
16.6010 9.664
16.6161 9.657
16.6313 9.719
16.6465 9.797
16.6617 9.974
16.6768 9.985
16.6920 9.978
16.7072 9.898
16.7224 9.901
16.7375 10.177
16.7527 10.404
16.7679 10.377
16.7831 10.070
16.7982 9.942
16.8134 9.848
16.8286 9.940
16.8438 10.069
16.8589 9.977
16.8741 9.999
16.8893 9.891
16.9045 9.749
16.9196 9.546
16.9348 9.613
16.9500 9.924
16.9652 10.079
16.9803 10.031
16.9955 9.879
17.0107 9.977
17.0259 10.048
17.0410 10.008
17.0562 10.140
17.0714 10.254
17.0866 10.315
17.1017 10.762
17.1169 10.664
17.1321 10.864
17.1473 11.353
17.1624 11.766
17.1776 12.299
17.1928 13.256
17.2080 14.265
17.2231 14.959
17.2383 16.183
17.2535 17.802
17.2687 18.917
17.2838 18.891
17.2990 18.119
17.3142 17.225
17.3294 16.531
17.3445 16.372
17.3597 16.357
17.3749 16.085
17.3901 15.411
17.4052 14.448
17.4204 13.497
17.4356 12.805
17.4508 12.149
17.4659 11.648
17.4811 11.666
17.4963 11.539
17.5115 11.394
17.5266 11.428
17.5418 11.473
17.5570 11.586
17.5722 11.668
17.5873 11.756
17.6025 11.776
17.6177 11.430
17.6329 11.096
17.6480 11.154
17.6632 11.130
17.6784 11.038
17.6936 10.921
17.7087 10.743
17.7239 10.607
17.7391 10.425
17.7543 10.327
17.7694 10.340
17.7846 10.247
17.7998 10.135
17.8150 10.214
17.8301 10.120
17.8453 10.221
17.8605 10.170
17.8757 10.075
17.8908 10.411
17.9060 10.399
17.9212 10.385
17.9364 10.432
17.9515 10.420
17.9667 10.352
17.9819 10.472
17.9971 10.414
18.0122 10.265
18.0274 10.356
18.0426 10.253
18.0578 10.348
18.0729 10.295
18.0881 10.341
18.1033 10.191
18.1185 9.849
18.1336 9.978
18.1488 10.079
18.1640 9.878
18.1792 9.953
18.1943 9.891
18.2095 9.657
18.2247 9.817
18.2399 10.030
18.2550 9.912
18.2702 9.782
18.2854 9.911
18.3006 10.040
18.3157 9.828
18.3309 9.715
18.3461 9.821
18.3613 9.700
18.3764 9.602
18.3916 9.783
18.4068 9.672
18.4220 9.691
18.4371 9.639
18.4523 9.680
18.4675 9.735
18.4827 9.667
18.4978 9.836
18.5130 9.796
18.5282 9.906
18.5434 9.681
18.5585 9.410
18.5737 9.559
18.5889 9.721
18.6041 9.797
18.6192 9.737
18.6344 9.650
18.6496 9.690
18.6648 9.691
18.6799 9.854
18.6951 9.875
18.7103 9.784
18.7255 9.800
18.7406 9.735
18.7558 9.851
18.7710 9.937
18.7862 9.979
18.8013 9.618
18.8165 9.501
18.8317 9.767
18.8469 9.931
18.8620 9.955
18.8772 9.991
18.8924 9.937
18.9076 9.840
18.9227 9.955
18.9379 10.050
18.9531 10.036
18.9683 9.941
18.9834 9.995
18.9986 9.839
19.0138 9.744
19.0290 9.904
19.0441 10.251
19.0593 10.388
19.0745 10.178
19.0897 10.252
19.1048 10.367
19.1200 10.407
19.1352 10.525
19.1504 10.392
19.1655 10.351
19.1807 10.483
19.1959 10.656
19.2111 10.602
19.2262 10.496
19.2414 10.637
19.2566 10.759
19.2718 10.820
19.2869 10.906
19.3021 10.939
19.3173 11.026
19.3325 10.912
19.3476 10.961
19.3628 11.131
19.3780 11.287
19.3932 11.382
19.4083 11.360
19.4235 11.149
19.4387 11.101
19.4539 11.146
19.4690 11.146
19.4842 11.190
19.4994 11.200
19.5146 11.299
19.5297 11.421
19.5449 11.267
19.5601 11.227
19.5753 11.497
19.5904 11.683
19.6056 11.790
19.6208 11.813
19.6360 11.674
19.6511 11.558
19.6663 11.575
19.6815 11.587
19.6967 11.691
19.7118 11.678
19.7270 11.640
19.7422 11.583
19.7574 11.707
19.7725 11.833
19.7877 11.719
19.8029 11.791
19.8180 12.003
19.8332 12.191
19.8484 12.151
19.8636 12.245
19.8787 12.529
19.8939 12.834
19.9091 13.222
19.9243 13.496
19.9394 13.661
19.9546 14.178
19.9698 14.464
19.9850 14.643
20.0001 14.369
20.0153 13.866
20.0305 13.818
20.0457 13.954
20.0608 13.955
20.0760 13.746
20.0912 13.680
20.1064 13.452
20.1215 13.403
20.1367 13.409
20.1519 12.984
20.1671 12.877
20.1822 13.018
20.1974 12.964
20.2126 12.982
20.2278 12.883
20.2429 12.314
20.2581 12.409
20.2733 12.471
20.2885 12.062
20.3036 11.848
20.3188 12.043
20.3340 11.849
20.3492 11.777
20.3643 11.497
20.3795 11.252
20.3947 10.937
20.4099 11.096
20.4250 10.996
20.4402 10.965
20.4554 11.078
20.4706 10.707
20.4857 10.602
20.5009 10.841
20.5161 10.833
20.5313 10.844
20.5464 10.651
20.5616 10.964
20.5768 10.776
20.5920 10.774
20.6071 10.727
20.6223 10.764
20.6375 10.658
20.6527 10.775
20.6678 10.588
20.6830 10.293
20.6982 10.358
20.7134 10.528
20.7285 10.747
20.7437 10.573
20.7589 10.414
20.7741 10.375
20.7892 10.673
20.8044 10.183
20.8196 10.172
20.8348 10.183
20.8499 10.586
20.8651 10.306
20.8803 9.915
20.8955 10.025
20.9106 10.041
20.9258 10.076
20.9410 10.104
20.9562 10.049
20.9713 10.200
20.9865 10.134
21.0017 10.276
21.0169 10.305
21.0320 10.077
21.0472 10.158
21.0624 9.854
21.0776 9.997
21.0927 9.625
21.1079 9.780
21.1231 9.752
21.1383 10.153
21.1534 9.950
21.1686 9.684
21.1838 9.931
21.1990 9.292
21.2141 9.624
21.2293 9.741
21.2445 9.194
21.2597 9.502
21.2748 9.860
21.2900 9.498
21.3052 9.632
21.3204 9.717
21.3355 9.730
21.3507 9.551
21.3659 9.852
21.3811 9.625
21.3962 9.441
21.4114 9.407
21.4266 9.642
21.4418 9.482
21.4569 9.798
21.4721 9.416
21.4873 9.607
21.5025 9.759
21.5176 9.287
21.5328 9.139
21.5480 9.292
21.5632 9.540
21.5783 9.569
21.5935 9.391
21.6087 9.270
21.6239 8.832
21.6390 9.130
21.6542 9.193
21.6694 9.536
21.6846 9.109
21.6997 8.893
21.7149 9.237
21.7301 9.218
21.7453 9.175
21.7604 9.251
21.7756 9.227
21.7908 8.998
21.8060 8.905
21.8211 9.021
21.8363 9.038
21.8515 8.835
21.8667 8.908
21.8818 9.043
21.8970 9.036
21.9122 9.095
21.9274 9.093
21.9425 8.950
21.9577 8.874
21.9729 8.784
21.9881 8.780
22.0032 8.870
22.0184 8.915
22.0336 8.801
22.0488 8.677
22.0639 9.014
22.0791 8.920
22.0943 8.723
22.1095 8.744
22.1246 8.675
22.1398 8.755
22.1550 8.779
22.1702 8.828
22.1853 8.757
22.2005 8.529
22.2157 8.766
22.2309 8.746
22.2460 8.565
22.2612 8.709
22.2764 8.615
22.2916 8.723
22.3067 8.658
22.3219 8.619
22.3371 8.568
22.3523 8.512
22.3674 8.475
22.3826 8.453
22.3978 8.694
22.4130 8.631
22.4281 8.253
22.4433 8.434
22.4585 8.525
22.4737 8.661
22.4888 8.502
22.5040 8.756
22.5192 8.481
22.5344 8.496
22.5495 8.474
22.5647 8.397
22.5799 8.399
22.5951 8.599
22.6102 8.475
22.6254 8.558
22.6406 8.555
22.6558 8.418
22.6709 8.686
22.6861 8.159
22.7013 8.187
22.7165 8.244
22.7316 6.547
