'Id: "" Comment: "" Operator: "Lab Manager" Anode: "Mo" Scantype: "Still (Eiger2R_500K (1D mode))" TimePerStep: "300" X: "11.8" Y: "9.4" Z: "11.284" 
7.2532 18.554
7.2684 18.623
7.2836 18.535
7.2987 18.550
7.3139 18.994
7.3291 19.224
7.3443 18.980
7.3594 19.235
7.3746 19.025
7.3898 19.549
7.4050 19.025
7.4201 19.666
7.4353 19.465
7.4505 19.234
7.4657 19.069
7.4808 19.212
7.4960 19.481
7.5112 19.654
7.5264 19.406
7.5415 19.962
7.5567 19.623
7.5719 19.587
7.5871 19.600
7.6022 20.341
7.6174 20.303
7.6326 20.053
7.6478 19.809
7.6629 19.836
7.6781 19.801
7.6933 20.366
7.7085 20.540
7.7236 20.120
7.7388 20.107
7.7540 20.270
7.7692 20.427
7.7843 20.343
7.7995 20.241
7.8147 20.260
7.8299 20.178
7.8450 20.210
7.8602 20.565
7.8754 20.423
7.8905 20.366
7.9057 20.702
7.9209 20.973
7.9361 20.759
7.9512 20.249
7.9664 20.259
7.9816 20.622
7.9968 21.042
8.0119 21.208
8.0271 21.005
8.0423 21.118
8.0575 21.017
8.0726 20.911
8.0878 20.895
8.1030 20.885
8.1182 20.757
8.1333 20.703
8.1485 21.454
8.1637 21.498
8.1789 21.022
8.1940 20.993
8.2092 21.564
8.2244 21.506
8.2396 21.435
8.2547 21.808
8.2699 21.652
8.2851 21.470
8.3003 21.618
8.3154 21.652
8.3306 22.028
8.3458 21.952
8.3610 21.967
8.3761 21.940
8.3913 21.679
8.4065 21.537
8.4217 21.629
8.4368 21.569
8.4520 22.110
8.4672 22.011
8.4824 21.848
8.4975 21.693
8.5127 21.930
8.5279 22.023
8.5431 22.023
8.5582 22.545
8.5734 22.507
8.5886 22.255
8.6038 22.154
8.6189 21.992
8.6341 22.321
8.6493 22.411
8.6645 22.154
8.6796 22.067
8.6948 21.463
8.7100 22.601
8.7252 22.661
8.7403 22.444
8.7555 22.251
8.7707 22.089
8.7859 22.245
8.8010 22.384
8.8162 22.232
8.8314 22.532
8.8466 22.599
8.8617 22.374
8.8769 22.527
8.8921 22.123
8.9073 22.663
8.9224 22.131
8.9376 22.242
8.9528 22.015
8.9680 22.381
8.9831 22.504
8.9983 22.508
9.0135 22.748
9.0287 22.536
9.0438 22.583
9.0590 22.450
9.0742 22.877
9.0894 23.019
9.1045 22.966
9.1197 22.558
9.1349 22.532
9.1501 22.679
9.1652 22.807
9.1804 22.741
9.1956 22.605
9.2108 22.458
9.2259 22.800
9.2411 22.900
9.2563 22.666
9.2715 22.797
9.2866 22.942
9.3018 22.842
9.3170 22.630
9.3322 22.846
9.3473 23.110
9.3625 23.130
9.3777 22.961
9.3929 22.972
9.4080 23.046
9.4232 22.585
9.4384 22.757
9.4536 23.194
9.4687 23.245
9.4839 22.965
9.4991 22.901
9.5143 23.030
9.5294 23.013
9.5446 22.634
9.5598 22.745
9.5750 23.126
9.5901 23.304
9.6053 23.605
9.6205 23.505
9.6357 23.456
9.6508 23.170
9.6660 23.242
9.6812 23.487
9.6964 23.709
9.7115 23.637
9.7267 23.999
9.7419 24.100
9.7571 23.975
9.7722 23.800
9.7874 23.554
9.8026 23.466
9.8178 23.361
9.8329 23.288
9.8481 23.402
9.8633 23.517
9.8785 23.031
9.8936 22.939
9.9088 23.363
9.9240 23.165
9.9392 22.990
9.9543 22.879
9.9695 23.131
9.9847 23.209
9.9999 23.060
10.0150 23.112
10.0302 22.913
10.0454 22.973
10.0606 22.940
10.0757 22.848
10.0909 23.174
10.1061 23.289
10.1213 23.365
10.1364 23.296
10.1516 23.587
10.1668 23.832
10.1820 23.531
10.1971 23.379
10.2123 23.550
10.2275 23.300
10.2427 22.957
10.2578 23.064
10.2730 23.198
10.2882 22.923
10.3034 22.975
10.3185 22.825
10.3337 22.754
10.3489 22.785
10.3641 22.754
10.3792 22.747
10.3944 23.010
10.4096 22.631
10.4248 22.312
10.4399 22.418
10.4551 22.601
10.4703 22.613
10.4855 22.880
10.5006 22.730
10.5158 22.497
10.5310 22.641
10.5462 22.619
10.5613 22.367
10.5765 22.413
10.5917 22.373
10.6069 22.291
10.6220 22.441
10.6372 22.525
10.6524 22.326
10.6676 22.452
10.6827 22.182
10.6979 22.191
10.7131 22.664
10.7283 22.261
10.7434 22.197
10.7586 22.550
10.7738 22.470
10.7890 22.489
10.8041 22.308
10.8193 22.219
10.8345 22.401
10.8497 21.899
10.8648 21.884
10.8800 22.146
10.8952 22.326
10.9104 22.362
10.9255 22.079
10.9407 22.434
10.9559 22.028
10.9711 21.935
10.9862 21.988
11.0014 22.414
11.0166 22.449
11.0318 22.394
11.0469 22.108
11.0621 22.095
11.0773 21.622
11.0925 21.657
11.1076 21.951
11.1228 21.873
11.1380 21.959
11.1532 21.718
11.1683 21.826
11.1835 21.729
11.1987 21.985
11.2139 21.710
11.2290 21.788
11.2442 21.603
11.2594 21.557
11.2746 21.430
11.2897 21.523
11.3049 21.535
11.3201 21.256
11.3353 21.110
11.3504 21.140
11.3656 21.124
11.3808 21.410
11.3960 21.311
11.4111 21.246
11.4263 21.091
11.4415 20.838
11.4567 21.195
11.4718 21.636
11.4870 21.354
11.5022 20.967
11.5174 21.008
11.5325 21.030
11.5477 21.154
11.5629 20.962
11.5781 20.819
11.5932 20.889
11.6084 20.509
11.6236 20.546
11.6388 20.529
11.6539 20.574
11.6691 20.465
11.6843 20.467
11.6995 20.272
11.7146 20.291
11.7298 20.553
11.7450 20.317
11.7602 20.004
11.7753 20.004
11.7905 20.010
11.8057 19.981
11.8209 20.273
11.8360 20.094
11.8512 19.931
11.8664 19.422
11.8816 19.494
11.8967 19.601
11.9119 19.414
11.9271 19.495
11.9423 19.172
11.9574 19.308
11.9726 19.243
11.9878 19.116
12.0030 19.226
12.0181 19.267
12.0333 18.947
12.0485 19.384
12.0637 19.205
12.0788 18.987
12.0940 18.703
12.1092 18.394
12.1244 18.770
12.1395 18.680
12.1547 18.494
12.1699 18.198
12.1851 18.135
12.2002 18.175
12.2154 17.966
12.2306 18.198
12.2458 17.694
12.2609 17.504
12.2761 17.720
12.2913 18.032
12.3065 17.774
12.3216 17.597
12.3368 17.674
12.3520 17.673
12.3672 17.068
12.3823 17.067
12.3975 17.239
12.4127 17.347
12.4279 17.233
12.4430 17.018
12.4582 16.700
12.4734 16.582
12.4886 16.589
12.5037 16.433
12.5189 16.374
12.5341 16.308
12.5493 16.457
12.5644 16.547
12.5796 16.419
12.5948 16.117
12.6100 15.903
12.6251 15.986
12.6403 15.903
12.6555 15.875
12.6707 15.866
12.6858 15.637
12.7010 15.582
12.7162 15.584
12.7314 15.597
12.7465 15.567
12.7617 15.200
12.7769 14.964
12.7921 15.056
12.8072 15.072
12.8224 14.976
12.8376 14.902
12.8528 14.942
12.8679 14.889
12.8831 14.628
12.8983 14.388
12.9135 14.353
12.9286 14.456
12.9438 14.547
12.9590 14.446
12.9742 14.451
12.9893 14.325
13.0045 14.195
13.0197 14.261
13.0349 14.038
13.0500 13.687
13.0652 13.714
13.0804 14.047
13.0956 14.046
13.1107 13.759
13.1259 13.619
13.1411 13.779
13.1563 13.793
13.1714 13.683
13.1866 13.560
13.2018 13.357
13.2170 13.318
13.2321 13.480
13.2473 13.492
13.2625 13.199
13.2777 13.038
13.2928 13.016
13.3080 12.888
13.3232 12.830
13.3384 12.955
13.3535 12.861
13.3687 12.912
13.3839 12.966
13.3991 12.982
13.4142 12.943
13.4294 12.660
13.4446 12.451
13.4598 12.570
13.4749 12.846
13.4901 12.780
13.5053 12.598
13.5205 12.452
13.5356 12.224
13.5508 12.254
13.5660 12.496
13.5812 12.468
13.5963 12.221
13.6115 12.170
13.6267 12.272
13.6419 12.192
13.6570 12.027
13.6722 12.180
13.6874 11.988
13.7026 11.859
13.7177 12.063
13.7329 12.117
13.7481 12.157
13.7633 11.986
13.7784 12.144
13.7936 12.168
13.8088 12.198
13.8239 12.377
13.8391 12.291
13.8543 12.211
13.8695 12.237
13.8846 12.204
13.8998 12.126
13.9150 12.111
13.9302 11.975
13.9453 11.859
13.9605 11.689
13.9757 11.773
13.9909 11.599
14.0060 11.583
14.0212 11.595
14.0364 11.707
14.0516 11.562
14.0667 11.303
14.0819 11.409
14.0971 11.430
14.1123 11.400
14.1274 11.259
14.1426 11.337
14.1578 11.259
14.1730 11.348
14.1881 11.211
14.2033 11.283
14.2185 11.504
14.2337 11.326
14.2488 11.836
14.2640 11.854
14.2792 11.580
14.2944 11.574
14.3095 11.960
14.3247 12.187
14.3399 12.328
14.3551 12.461
14.3702 12.753
14.3854 13.209
14.4006 13.270
14.4158 13.502
14.4309 13.576
14.4461 13.040
14.4613 12.903
14.4765 12.762
14.4916 12.383
14.5068 12.338
14.5220 12.247
14.5372 12.034
14.5523 11.625
14.5675 11.521
14.5827 11.409
14.5979 11.332
14.6130 11.122
14.6282 10.717
14.6434 10.743
14.6586 10.871
14.6737 11.029
14.6889 10.782
14.7041 10.759
14.7193 10.596
14.7344 10.700
14.7496 10.587
14.7648 10.393
14.7800 10.760
14.7951 10.367
14.8103 10.540
14.8255 10.798
14.8407 10.462
14.8558 10.373
14.8710 10.320
14.8862 10.330
14.9014 10.651
14.9165 10.848
14.9317 10.488
14.9469 10.592
14.9621 10.497
14.9772 10.055
14.9924 10.338
15.0076 10.512
15.0228 10.518
15.0379 10.620
15.0531 9.916
15.0683 10.580
15.0835 10.152
15.0986 10.055
15.1138 10.509
15.1290 10.504
15.1442 10.512
15.1593 10.242
15.1745 9.978
15.1897 10.068
15.2049 10.160
15.2200 10.559
15.2352 10.246
15.2504 10.006
15.2656 10.023
15.2807 10.271
15.2959 9.929
15.3111 10.047
15.3263 10.162
15.3414 10.061
15.3566 10.020
15.3718 10.073
15.3870 9.935
15.4021 10.231
15.4173 10.298
15.4325 10.163
15.4477 10.437
15.4628 10.026
15.4780 10.450
15.4932 9.996
15.5084 10.283
15.5235 10.163
15.5387 10.217
15.5539 9.874
15.5691 10.097
15.5842 9.871
15.5994 9.830
15.6146 9.728
15.6298 9.817
15.6449 9.752
15.6601 9.602
15.6753 9.558
15.6905 9.845
15.7056 9.651
15.7208 9.487
15.7360 9.599
15.7512 9.651
15.7663 9.773
15.7815 9.601
15.7967 9.748
15.8119 9.979
15.8270 9.477
15.8422 9.672
15.8574 9.524
15.8726 9.607
15.8877 9.631
15.9029 9.238
15.9181 9.288
15.9333 9.756
15.9484 9.493
15.9636 9.632
15.9788 9.706
15.9940 9.827
16.0091 9.671
16.0243 9.560
16.0395 9.673
16.0547 9.552
16.0698 9.714
16.0850 9.727
16.1002 9.639
16.1154 9.699
16.1305 9.628
16.1457 9.535
16.1609 9.515
16.1761 9.388
16.1912 9.608
16.2064 9.758
16.2216 9.676
16.2368 9.859
16.2519 10.073
16.2671 9.810
16.2823 9.955
16.2975 9.804
16.3126 9.697
16.3278 10.109
16.3430 10.124
16.3582 9.804
16.3733 9.991
16.3885 9.815
16.4037 9.592
16.4189 9.633
16.4340 9.659
16.4492 9.687
16.4644 9.614
16.4796 9.495
16.4947 9.569
16.5099 9.580
16.5251 9.510
16.5403 9.440
16.5554 9.878
16.5706 9.696
16.5858 9.431
16.6010 9.473
16.6161 9.587
16.6313 9.714
16.6465 9.805
16.6617 9.821
16.6768 9.895
16.6920 9.979
16.7072 9.952
16.7224 10.015
16.7375 10.020
16.7527 9.923
16.7679 9.906
16.7831 9.805
16.7982 9.696
16.8134 9.785
16.8286 9.924
16.8438 9.769
16.8589 9.673
16.8741 9.636
16.8893 9.550
16.9045 9.622
16.9196 9.727
16.9348 9.673
16.9500 9.728
16.9652 9.668
16.9803 9.736
16.9955 9.789
17.0107 9.816
17.0259 10.007
17.0410 10.198
17.0562 10.386
17.0714 10.194
17.0866 10.058
17.1017 10.315
17.1169 10.450
17.1321 10.707
17.1473 11.091
17.1624 11.492
17.1776 12.001
17.1928 12.788
17.2080 13.693
17.2231 14.851
17.2383 16.199
17.2535 17.170
17.2687 17.967
17.2838 18.260
17.2990 17.781
17.3142 17.057
17.3294 16.406
17.3445 15.906
17.3597 15.764
17.3749 15.746
17.3901 15.052
17.4052 14.093
17.4204 13.267
17.4356 12.343
17.4508 11.810
17.4659 11.534
17.4811 11.339
17.4963 11.330
17.5115 11.169
17.5266 10.835
17.5418 10.832
17.5570 10.814
17.5722 10.472
17.5873 10.511
17.6025 10.834
17.6177 10.944
17.6329 10.963
17.6480 11.289
17.6632 11.458
17.6784 11.421
17.6936 11.798
17.7087 12.182
17.7239 11.928
17.7391 11.732
17.7543 11.439
17.7694 11.136
17.7846 11.294
17.7998 11.360
17.8150 11.075
17.8301 10.606
17.8453 10.614
17.8605 10.701
17.8757 10.573
17.8908 10.481
17.9060 10.254
17.9212 10.303
17.9364 10.422
17.9515 10.201
17.9667 10.149
17.9819 10.266
17.9971 10.142
18.0122 10.135
18.0274 10.164
18.0426 10.313
18.0578 10.239
18.0729 10.059
18.0881 9.967
18.1033 9.927
18.1185 9.898
18.1336 9.969
18.1488 10.104
18.1640 10.028
18.1792 9.866
18.1943 9.688
18.2095 9.667
18.2247 9.774
18.2399 9.925
18.2550 9.871
18.2702 9.758
18.2854 9.779
18.3006 9.718
18.3157 9.969
18.3309 10.064
18.3461 9.867
18.3613 9.779
18.3764 9.717
18.3916 9.786
18.4068 9.857
18.4220 10.038
18.4371 9.916
18.4523 9.721
18.4675 9.643
18.4827 9.728
18.4978 9.868
18.5130 9.846
18.5282 9.567
18.5434 9.582
18.5585 9.540
18.5737 9.683
18.5889 9.752
18.6041 9.827
18.6192 9.748
18.6344 9.724
18.6496 9.811
18.6648 9.541
18.6799 9.637
18.6951 9.940
18.7103 9.818
18.7255 9.616
18.7406 9.624
18.7558 9.730
18.7710 9.834
18.7862 10.023
18.8013 9.652
18.8165 9.636
18.8317 9.646
18.8469 9.416
18.8620 9.596
18.8772 9.821
18.8924 9.950
18.9076 9.990
18.9227 9.871
18.9379 10.087
18.9531 10.064
18.9683 9.800
18.9834 10.008
18.9986 10.092
19.0138 10.059
19.0290 9.930
19.0441 9.995
19.0593 10.251
19.0745 10.298
19.0897 10.326
19.1048 10.348
19.1200 10.311
19.1352 10.218
19.1504 10.372
19.1655 10.508
19.1807 10.480
19.1959 10.258
19.2111 10.271
19.2262 10.571
19.2414 10.518
19.2566 10.422
19.2718 10.517
19.2869 10.741
19.3021 10.808
19.3173 10.940
19.3325 10.824
19.3476 10.748
19.3628 10.799
19.3780 11.139
19.3932 11.332
19.4083 11.207
19.4235 10.982
19.4387 11.040
19.4539 11.232
19.4690 11.127
19.4842 11.176
19.4994 11.394
19.5146 11.307
19.5297 11.257
19.5449 11.321
19.5601 11.367
19.5753 11.402
19.5904 11.304
19.6056 11.392
19.6208 11.615
19.6360 11.589
19.6511 11.348
19.6663 11.379
19.6815 11.557
19.6967 11.591
19.7118 11.785
19.7270 11.790
19.7422 11.582
19.7574 11.584
19.7725 11.780
19.7877 11.840
19.8029 11.814
19.8180 11.688
19.8332 11.689
19.8484 12.026
19.8636 12.274
19.8787 12.549
19.8939 12.820
19.9091 13.010
19.9243 13.351
19.9394 13.533
19.9546 13.905
19.9698 14.232
19.9850 14.508
20.0001 14.401
20.0153 13.963
20.0305 13.817
20.0457 13.887
20.0608 13.609
20.0760 13.506
20.0912 13.692
20.1064 13.530
20.1215 13.151
20.1367 12.967
20.1519 12.760
20.1671 12.659
20.1822 12.773
20.1974 12.552
20.2126 12.241
20.2278 12.332
20.2429 12.110
20.2581 12.082
20.2733 12.091
20.2885 12.003
20.3036 11.772
20.3188 11.528
20.3340 11.546
20.3492 11.811
20.3643 11.780
20.3795 11.596
20.3947 11.722
20.4099 11.686
20.4250 11.585
20.4402 11.633
20.4554 11.914
20.4706 11.794
20.4857 12.019
20.5009 12.239
20.5161 11.886
20.5313 11.786
20.5464 11.683
20.5616 11.518
20.5768 11.486
20.5920 11.517
20.6071 11.480
20.6223 11.555
20.6375 11.109
20.6527 10.727
20.6678 10.938
20.6830 10.819
20.6982 10.645
20.7134 10.284
20.7285 10.374
20.7437 10.324
20.7589 10.226
20.7741 10.479
20.7892 10.641
20.8044 10.635
20.8196 9.897
20.8348 10.118
20.8499 9.956
20.8651 9.975
20.8803 10.547
20.8955 10.115
20.9106 9.928
20.9258 9.850
20.9410 10.205
20.9562 10.165
20.9713 10.172
20.9865 10.122
21.0017 10.242
21.0169 10.167
21.0320 10.140
21.0472 9.940
21.0624 10.082
21.0776 9.701
21.0927 9.931
21.1079 9.989
21.1231 9.537
21.1383 9.986
21.1534 9.794
21.1686 9.692
21.1838 9.531
21.1990 9.786
21.2141 9.808
21.2293 9.970
21.2445 9.783
21.2597 9.503
21.2748 9.605
21.2900 9.572
21.3052 9.634
21.3204 9.487
21.3355 9.474
21.3507 9.582
21.3659 9.387
21.3811 9.465
21.3962 9.264
21.4114 9.670
21.4266 9.404
21.4418 9.378
21.4569 9.512
21.4721 9.494
21.4873 9.405
21.5025 9.371
21.5176 9.225
21.5328 9.361
21.5480 9.143
21.5632 9.312
21.5783 9.114
21.5935 9.020
21.6087 9.374
21.6239 9.176
21.6390 9.146
21.6542 9.280
21.6694 9.301
21.6846 9.164
21.6997 9.096
21.7149 8.983
21.7301 9.044
21.7453 9.121
21.7604 9.329
21.7756 9.305
21.7908 9.241
21.8060 9.214
21.8211 9.183
21.8363 9.159
21.8515 9.212
21.8667 9.170
21.8818 9.112
21.8970 9.122
21.9122 9.007
21.9274 8.793
21.9425 8.925
21.9577 8.920
21.9729 8.687
21.9881 8.765
22.0032 8.831
22.0184 8.668
22.0336 8.574
22.0488 8.567
22.0639 8.550
22.0791 8.698
22.0943 8.735
22.1095 8.613
22.1246 8.655
22.1398 8.736
22.1550 8.641
22.1702 8.485
22.1853 8.551
22.2005 8.557
22.2157 8.706
22.2309 8.733
22.2460 8.628
22.2612 8.563
22.2764 8.574
22.2916 8.627
22.3067 8.539
22.3219 8.421
22.3371 8.545
22.3523 8.343
22.3674 8.330
22.3826 8.398
22.3978 8.442
22.4130 8.411
22.4281 8.469
22.4433 8.282
22.4585 8.210
22.4737 8.344
22.4888 8.309
22.5040 8.107
22.5192 8.366
22.5344 8.281
22.5495 8.302
22.5647 8.569
22.5799 8.395
22.5951 8.534
22.6102 8.322
22.6254 8.386
22.6406 8.333
22.6558 8.473
22.6709 8.511
22.6861 8.253
22.7013 8.383
22.7165 7.878
22.7316 6.090
