'Id: "" Comment: "" Operator: "Lab Manager" Anode: "Mo" Scantype: "Still (Eiger2R_500K (1D mode))" TimePerStep: "300" X: "11.8" Y: "9.4" Z: "11.284" 
7.2532 18.978
7.2684 19.102
7.2836 19.119
7.2987 19.533
7.3139 19.305
7.3291 19.361
7.3443 19.422
7.3594 19.231
7.3746 19.760
7.3898 19.577
7.4050 19.752
7.4201 19.701
7.4353 19.740
7.4505 19.945
7.4657 19.903
7.4808 19.735
7.4960 19.685
7.5112 19.922
7.5264 19.854
7.5415 19.799
7.5567 19.533
7.5719 19.622
7.5871 19.912
7.6022 20.006
7.6174 20.336
7.6326 20.682
7.6478 20.449
7.6629 20.341
7.6781 20.167
7.6933 20.315
7.7085 20.457
7.7236 20.356
7.7388 20.451
7.7540 20.556
7.7692 20.519
7.7843 20.727
7.7995 20.894
7.8147 20.956
7.8299 21.014
7.8450 20.933
7.8602 21.105
7.8754 21.018
7.8905 20.798
7.9057 20.933
7.9209 21.141
7.9361 21.149
7.9512 21.002
7.9664 20.790
7.9816 20.867
7.9968 21.364
8.0119 21.536
8.0271 21.233
8.0423 21.463
8.0575 21.239
8.0726 21.090
8.0878 21.576
8.1030 21.485
8.1182 21.463
8.1333 21.953
8.1485 22.122
8.1637 21.981
8.1789 21.756
8.1940 22.134
8.2092 21.678
8.2244 21.773
8.2396 21.916
8.2547 21.915
8.2699 21.558
8.2851 22.051
8.3003 21.795
8.3154 21.606
8.3306 22.093
8.3458 21.973
8.3610 22.055
8.3761 22.394
8.3913 22.297
8.4065 22.255
8.4217 22.107
8.4368 21.999
8.4520 21.936
8.4672 22.222
8.4824 22.154
8.4975 22.416
8.5127 22.087
8.5279 22.012
8.5431 22.024
8.5582 22.226
8.5734 22.452
8.5886 21.834
8.6038 22.505
8.6189 22.201
8.6341 22.060
8.6493 22.186
8.6645 22.474
8.6796 22.430
8.6948 22.157
8.7100 23.002
8.7252 22.156
8.7403 22.410
8.7555 22.250
8.7707 22.575
8.7859 22.657
8.8010 22.813
8.8162 22.469
8.8314 22.537
8.8466 23.056
8.8617 22.426
8.8769 23.092
8.8921 23.076
8.9073 22.640
8.9224 22.653
8.9376 22.581
8.9528 22.829
8.9680 22.598
8.9831 22.587
8.9983 22.460
9.0135 22.642
9.0287 23.039
9.0438 23.304
9.0590 22.718
9.0742 22.357
9.0894 22.388
9.1045 22.879
9.1197 22.826
9.1349 22.808
9.1501 22.640
9.1652 22.536
9.1804 22.533
9.1956 22.826
9.2108 23.128
9.2259 23.053
9.2411 23.016
9.2563 23.109
9.2715 23.099
9.2866 23.259
9.3018 23.212
9.3170 23.346
9.3322 23.404
9.3473 23.399
9.3625 23.182
9.3777 22.871
9.3929 23.048
9.4080 22.985
9.4232 23.099
9.4384 23.276
9.4536 23.400
9.4687 23.559
9.4839 23.201
9.4991 23.044
9.5143 23.176
9.5294 23.457
9.5446 23.651
9.5598 23.561
9.5750 23.353
9.5901 23.173
9.6053 23.131
9.6205 23.512
9.6357 23.906
9.6508 23.675
9.6660 23.374
9.6812 23.426
9.6964 23.762
9.7115 24.029
9.7267 24.364
9.7419 24.319
9.7571 24.236
9.7722 24.028
9.7874 23.695
9.8026 23.869
9.8178 23.959
9.8329 23.948
9.8481 24.042
9.8633 23.903
9.8785 23.688
9.8936 23.960
9.9088 24.293
9.9240 24.200
9.9392 24.085
9.9543 24.287
9.9695 24.414
9.9847 24.293
9.9999 23.976
10.0150 23.884
10.0302 23.810
10.0454 23.720
10.0606 23.393
10.0757 23.475
10.0909 23.647
10.1061 23.979
10.1213 23.814
10.1364 23.706
10.1516 23.742
10.1668 23.594
10.1820 23.972
10.1971 23.741
10.2123 23.803
10.2275 24.266
10.2427 23.733
10.2578 23.528
10.2730 23.880
10.2882 23.576
10.3034 23.784
10.3185 23.375
10.3337 23.085
10.3489 23.087
10.3641 23.463
10.3792 23.464
10.3944 23.476
10.4096 23.386
10.4248 22.987
10.4399 23.001
10.4551 23.011
10.4703 23.178
10.4855 23.076
10.5006 23.158
10.5158 22.755
10.5310 22.934
10.5462 22.992
10.5613 22.736
10.5765 22.909
10.5917 22.819
10.6069 22.560
10.6220 22.704
10.6372 22.618
10.6524 22.722
10.6676 22.682
10.6827 22.617
10.6979 22.629
10.7131 22.497
10.7283 22.796
10.7434 22.744
10.7586 22.553
10.7738 22.668
10.7890 22.781
10.8041 22.746
10.8193 22.752
10.8345 22.386
10.8497 22.151
10.8648 22.587
10.8800 22.302
10.8952 22.249
10.9104 22.235
10.9255 22.236
10.9407 22.017
10.9559 21.904
10.9711 22.113
10.9862 22.364
11.0014 22.362
11.0166 22.391
11.0318 22.347
11.0469 21.878
11.0621 21.919
11.0773 21.820
11.0925 21.822
11.1076 21.831
11.1228 22.119
11.1380 22.070
11.1532 21.828
11.1683 21.694
11.1835 21.631
11.1987 21.714
11.2139 21.385
11.2290 21.309
11.2442 21.718
11.2594 21.662
11.2746 21.672
11.2897 21.726
11.3049 21.303
11.3201 21.247
11.3353 21.372
11.3504 21.363
11.3656 21.070
11.3808 21.487
11.3960 21.702
11.4111 21.458
11.4263 21.522
11.4415 21.362
11.4567 21.011
11.4718 21.310
11.4870 21.600
11.5022 21.567
11.5174 21.425
11.5325 21.615
11.5477 21.483
11.5629 21.436
11.5781 21.262
11.5932 21.222
11.6084 21.248
11.6236 20.912
11.6388 20.678
11.6539 20.600
11.6691 20.904
11.6843 20.998
11.6995 20.910
11.7146 20.753
11.7298 20.550
11.7450 20.296
11.7602 20.331
11.7753 20.399
11.7905 19.874
11.8057 19.723
11.8209 19.974
11.8360 19.905
11.8512 19.848
11.8664 19.633
11.8816 19.385
11.8967 19.225
11.9119 19.401
11.9271 19.619
11.9423 19.362
11.9574 19.649
11.9726 19.736
11.9878 19.307
12.0030 19.467
12.0181 19.327
12.0333 19.380
12.0485 19.325
12.0637 18.940
12.0788 18.681
12.0940 19.076
12.1092 18.695
12.1244 18.450
12.1395 18.887
12.1547 18.479
12.1699 18.440
12.1851 18.517
12.2002 17.911
12.2154 18.208
12.2306 18.334
12.2458 18.002
12.2609 18.092
12.2761 17.865
12.2913 17.721
12.3065 17.698
12.3216 17.729
12.3368 17.695
12.3520 17.643
12.3672 17.197
12.3823 17.053
12.3975 17.203
12.4127 17.012
12.4279 16.959
12.4430 17.006
12.4582 16.700
12.4734 16.746
12.4886 16.644
12.5037 16.466
12.5189 16.427
12.5341 16.321
12.5493 16.104
12.5644 16.018
12.5796 16.383
12.5948 16.224
12.6100 16.104
12.6251 16.072
12.6403 15.914
12.6555 15.800
12.6707 15.925
12.6858 15.843
12.7010 15.628
12.7162 15.606
12.7314 15.535
12.7465 15.460
12.7617 15.322
12.7769 15.067
12.7921 15.100
12.8072 15.304
12.8224 15.247
12.8376 15.040
12.8528 14.884
12.8679 14.751
12.8831 14.576
12.8983 14.569
12.9135 14.796
12.9286 14.820
12.9438 14.392
12.9590 14.330
12.9742 14.358
12.9893 14.304
13.0045 14.376
13.0197 14.350
13.0349 14.260
13.0500 14.146
13.0652 13.955
13.0804 13.857
13.0956 13.762
13.1107 13.566
13.1259 13.494
13.1411 13.541
13.1563 13.437
13.1714 13.439
13.1866 13.664
13.2018 13.526
13.2170 13.365
13.2321 13.424
13.2473 13.355
13.2625 13.438
13.2777 13.254
13.2928 12.954
13.3080 13.195
13.3232 13.302
13.3384 13.198
13.3535 13.085
13.3687 13.091
13.3839 13.071
13.3991 12.808
13.4142 12.782
13.4294 12.941
13.4446 12.769
13.4598 12.746
13.4749 12.763
13.4901 12.659
13.5053 12.342
13.5205 12.281
13.5356 12.543
13.5508 12.563
13.5660 12.414
13.5812 12.279
13.5963 12.375
13.6115 12.367
13.6267 12.027
13.6419 12.034
13.6570 12.131
13.6722 12.181
13.6874 12.192
13.7026 12.175
13.7177 11.868
13.7329 11.965
13.7481 12.161
13.7633 12.141
13.7784 12.109
13.7936 12.353
13.8088 12.247
13.8239 12.271
13.8391 12.345
13.8543 12.304
13.8695 12.307
13.8846 12.208
13.8998 12.061
13.9150 12.084
13.9302 11.908
13.9453 11.832
13.9605 11.683
13.9757 11.652
13.9909 11.507
14.0060 11.492
14.0212 11.373
14.0364 11.491
14.0516 11.367
14.0667 11.371
14.0819 11.454
14.0971 11.339
14.1123 11.203
14.1274 11.231
14.1426 11.363
14.1578 11.324
14.1730 11.287
14.1881 11.502
14.2033 11.477
14.2185 11.315
14.2337 11.150
14.2488 11.263
14.2640 11.280
14.2792 11.536
14.2944 11.552
14.3095 11.681
14.3247 11.850
14.3399 12.082
14.3551 12.371
14.3702 12.544
14.3854 12.802
14.4006 12.798
14.4158 13.358
14.4309 13.408
14.4461 13.653
14.4613 13.828
14.4765 13.807
14.4916 13.762
14.5068 13.902
14.5220 13.570
14.5372 13.665
14.5523 13.261
14.5675 12.792
14.5827 12.478
14.5979 12.204
14.6130 11.794
14.6282 11.697
14.6434 11.803
14.6586 11.393
14.6737 11.427
14.6889 11.282
14.7041 10.872
14.7193 11.370
14.7344 11.416
14.7496 11.608
14.7648 11.581
14.7800 11.266
14.7951 11.283
14.8103 11.171
14.8255 11.325
14.8407 11.203
14.8558 11.139
14.8710 10.967
14.8862 10.851
14.9014 11.319
14.9165 11.473
14.9317 11.268
14.9469 10.981
14.9621 10.875
14.9772 10.257
14.9924 10.672
15.0076 10.598
15.0228 10.734
15.0379 10.920
15.0531 10.688
15.0683 10.535
15.0835 10.606
15.0986 10.634
15.1138 10.319
15.1290 10.279
15.1442 10.427
15.1593 10.347
15.1745 10.441
15.1897 10.348
15.2049 10.769
15.2200 10.618
15.2352 10.402
15.2504 10.728
15.2656 10.659
15.2807 10.335
15.2959 10.276
15.3111 10.197
15.3263 10.100
15.3414 10.432
15.3566 10.171
15.3718 10.432
15.3870 10.158
15.4021 10.340
15.4173 10.167
15.4325 10.431
15.4477 10.565
15.4628 10.337
15.4780 10.243
15.4932 10.171
15.5084 10.328
15.5235 10.287
15.5387 10.152
15.5539 10.441
15.5691 10.199
15.5842 10.226
15.5994 10.240
15.6146 10.495
15.6298 10.688
15.6449 10.481
15.6601 10.144
15.6753 10.269
15.6905 10.153
15.7056 10.213
15.7208 9.798
15.7360 9.879
15.7512 10.277
15.7663 10.217
15.7815 9.798
15.7967 9.811
15.8119 9.839
15.8270 10.000
15.8422 10.016
15.8574 9.789
15.8726 9.700
15.8877 9.843
15.9029 9.819
15.9181 9.697
15.9333 10.040
15.9484 9.850
15.9636 9.931
15.9788 9.882
15.9940 9.938
16.0091 9.801
16.0243 9.845
16.0395 9.789
16.0547 9.688
16.0698 9.958
16.0850 9.783
16.1002 9.857
16.1154 9.844
16.1305 9.726
16.1457 9.759
16.1609 9.795
16.1761 9.854
16.1912 9.712
16.2064 9.878
16.2216 9.968
16.2368 9.852
16.2519 9.925
16.2671 10.065
16.2823 10.202
16.2975 10.392
16.3126 10.287
16.3278 10.244
16.3430 10.060
16.3582 10.224
16.3733 10.263
16.3885 10.215
16.4037 10.437
16.4189 10.403
16.4340 9.911
16.4492 9.803
16.4644 9.897
16.4796 9.732
16.4947 10.011
16.5099 9.880
16.5251 10.112
16.5403 9.823
16.5554 9.821
16.5706 10.011
16.5858 9.703
16.6010 9.888
16.6161 10.045
16.6313 9.933
16.6465 9.814
16.6617 9.850
16.6768 9.760
16.6920 10.071
16.7072 10.092
16.7224 10.247
16.7375 10.205
16.7527 10.038
16.7679 10.104
16.7831 9.891
16.7982 9.862
16.8134 9.817
16.8286 9.954
16.8438 9.922
16.8589 9.924
16.8741 10.230
16.8893 10.052
16.9045 9.797
16.9196 9.994
16.9348 9.876
16.9500 9.796
16.9652 9.859
16.9803 9.975
16.9955 9.940
17.0107 9.915
17.0259 10.251
17.0410 10.267
17.0562 10.168
17.0714 10.323
17.0866 10.461
17.1017 10.556
17.1169 10.764
17.1321 11.071
17.1473 11.439
17.1624 11.945
17.1776 12.373
17.1928 13.164
17.2080 14.245
17.2231 15.188
17.2383 16.321
17.2535 17.625
17.2687 18.525
17.2838 18.755
17.2990 18.374
17.3142 17.027
17.3294 16.104
17.3445 15.933
17.3597 16.129
17.3749 16.342
17.3901 15.612
17.4052 14.274
17.4204 13.138
17.4356 12.434
17.4508 11.750
17.4659 11.369
17.4811 11.241
17.4963 11.196
17.5115 10.815
17.5266 10.580
17.5418 10.645
17.5570 10.461
17.5722 10.393
17.5873 10.432
17.6025 10.429
17.6177 10.418
17.6329 10.439
17.6480 10.281
17.6632 10.279
17.6784 10.425
17.6936 10.677
17.7087 10.774
17.7239 10.873
17.7391 11.104
17.7543 11.326
17.7694 11.454
17.7846 11.666
17.7998 12.248
17.8150 12.555
17.8301 12.634
17.8453 12.827
17.8605 12.923
17.8757 12.706
17.8908 12.396
17.9060 12.182
17.9212 12.110
17.9364 11.915
17.9515 11.650
17.9667 11.506
17.9819 11.251
17.9971 11.200
18.0122 11.108
18.0274 10.927
18.0426 10.537
18.0578 10.147
18.0729 10.024
18.0881 10.066
18.1033 10.458
18.1185 10.387
18.1336 10.154
18.1488 10.238
18.1640 10.098
18.1792 9.862
18.1943 10.047
18.2095 10.280
18.2247 10.411
18.2399 10.236
18.2550 10.012
18.2702 10.144
18.2854 10.147
18.3006 9.757
18.3157 9.735
18.3309 9.820
18.3461 10.145
18.3613 10.364
18.3764 10.082
18.3916 9.998
18.4068 9.851
18.4220 9.908
18.4371 10.176
18.4523 10.115
18.4675 9.890
18.4827 10.037
18.4978 10.110
18.5130 10.084
18.5282 9.866
18.5434 9.991
18.5585 10.032
18.5737 9.973
18.5889 9.903
18.6041 9.970
18.6192 9.830
18.6344 9.610
18.6496 9.708
18.6648 9.827
18.6799 9.857
18.6951 9.821
18.7103 9.725
18.7255 9.698
18.7406 10.010
18.7558 10.019
18.7710 9.901
18.7862 10.065
18.8013 9.800
18.8165 9.662
18.8317 9.954
18.8469 9.976
18.8620 9.897
18.8772 10.114
18.8924 10.231
18.9076 10.065
18.9227 9.841
18.9379 9.772
18.9531 9.757
18.9683 10.033
18.9834 10.194
18.9986 10.211
19.0138 10.064
19.0290 10.195
19.0441 10.271
19.0593 10.187
19.0745 10.281
19.0897 10.428
19.1048 10.424
19.1200 10.490
19.1352 10.521
19.1504 10.516
19.1655 10.546
19.1807 10.574
19.1959 10.666
19.2111 10.540
19.2262 10.611
19.2414 10.726
19.2566 10.843
19.2718 10.746
19.2869 10.798
19.3021 10.933
19.3173 10.909
19.3325 11.027
19.3476 10.972
19.3628 10.914
19.3780 11.119
19.3932 11.106
19.4083 11.036
19.4235 11.208
19.4387 11.410
19.4539 11.275
19.4690 11.226
19.4842 11.382
19.4994 11.007
19.5146 11.065
19.5297 11.624
19.5449 11.612
19.5601 11.509
19.5753 11.623
19.5904 11.514
19.6056 11.376
19.6208 11.464
19.6360 11.614
19.6511 11.656
19.6663 11.447
19.6815 11.575
19.6967 11.880
19.7118 11.942
19.7270 11.920
19.7422 11.810
19.7574 11.712
19.7725 11.467
19.7877 11.675
19.8029 11.777
19.8180 11.768
19.8332 12.090
19.8484 12.209
19.8636 12.368
19.8787 12.814
19.8939 12.964
19.9091 13.243
19.9243 13.540
19.9394 13.710
19.9546 14.118
19.9698 14.529
19.9850 14.581
20.0001 14.497
20.0153 14.391
20.0305 14.244
20.0457 14.199
20.0608 14.009
20.0760 14.001
20.0912 13.878
20.1064 13.743
20.1215 13.445
20.1367 13.139
20.1519 12.961
20.1671 12.873
20.1822 12.867
20.1974 12.952
20.2126 12.646
20.2278 12.650
20.2429 12.574
20.2581 12.099
20.2733 11.782
20.2885 11.712
20.3036 11.553
20.3188 11.657
20.3340 11.805
20.3492 11.640
20.3643 11.401
20.3795 11.290
20.3947 11.134
20.4099 11.159
20.4250 11.082
20.4402 10.977
20.4554 10.913
20.4706 11.047
20.4857 11.235
20.5009 11.113
20.5161 11.238
20.5313 11.165
20.5464 11.529
20.5616 11.077
20.5768 11.048
20.5920 11.025
20.6071 11.261
20.6223 11.327
20.6375 11.233
20.6527 11.068
20.6678 11.009
20.6830 10.664
20.6982 11.049
20.7134 10.802
20.7285 10.580
20.7437 10.789
20.7589 10.799
20.7741 10.576
20.7892 10.681
20.8044 10.632
20.8196 10.454
20.8348 10.597
20.8499 10.648
20.8651 10.341
20.8803 10.430
20.8955 10.473
20.9106 10.670
20.9258 10.411
20.9410 10.334
20.9562 10.858
20.9713 10.970
20.9865 10.644
21.0017 10.778
21.0169 10.646
21.0320 10.566
21.0472 10.459
21.0624 10.749
21.0776 10.324
21.0927 10.182
21.1079 10.453
21.1231 10.247
21.1383 9.796
21.1534 9.907
21.1686 10.016
21.1838 10.053
21.1990 9.967
21.2141 9.760
21.2293 9.659
21.2445 9.363
21.2597 9.605
21.2748 9.447
21.2900 9.676
21.3052 9.341
21.3204 9.539
21.3355 9.390
21.3507 9.567
21.3659 9.604
21.3811 9.240
21.3962 9.298
21.4114 9.499
21.4266 9.534
21.4418 9.400
21.4569 9.291
21.4721 9.783
21.4873 9.712
21.5025 9.408
21.5176 9.492
21.5328 9.306
21.5480 9.538
21.5632 9.349
21.5783 9.195
21.5935 9.408
21.6087 9.313
21.6239 9.393
21.6390 8.931
21.6542 8.867
21.6694 8.968
21.6846 9.089
21.6997 9.044
21.7149 9.084
21.7301 8.969
21.7453 9.111
21.7604 9.052
21.7756 8.923
21.7908 8.895
21.8060 9.018
21.8211 9.187
21.8363 8.893
21.8515 9.002
21.8667 9.150
21.8818 8.977
21.8970 9.116
21.9122 8.866
21.9274 8.893
21.9425 8.994
21.9577 8.863
21.9729 9.011
21.9881 8.917
22.0032 8.802
22.0184 8.803
22.0336 8.854
22.0488 8.967
22.0639 8.881
22.0791 8.795
22.0943 8.864
22.1095 8.785
22.1246 8.731
22.1398 8.683
22.1550 8.621
22.1702 8.639
22.1853 8.754
22.2005 8.850
22.2157 8.867
22.2309 8.682
22.2460 8.490
22.2612 8.369
22.2764 8.490
22.2916 8.712
22.3067 8.626
22.3219 8.735
22.3371 8.676
22.3523 8.497
22.3674 8.415
22.3826 8.558
22.3978 8.420
22.4130 8.542
22.4281 8.353
22.4433 8.611
22.4585 8.456
22.4737 8.375
22.4888 8.340
22.5040 8.289
22.5192 8.520
22.5344 8.609
22.5495 8.333
22.5647 8.620
22.5799 8.420
22.5951 8.448
22.6102 8.491
22.6254 8.489
22.6406 8.479
22.6558 8.405
22.6709 8.355
22.6861 8.387
22.7013 8.231
22.7165 8.021
22.7316 6.505
