'Id: "" Comment: "" Operator: "Lab Manager" Anode: "Mo" Scantype: "Still (Eiger2R_500K (1D mode))" TimePerStep: "300" X: "11.8" Y: "9.4" Z: "11.284" 
7.2532 18.796
7.2684 18.892
7.2836 19.398
7.2987 19.181
7.3139 19.209
7.3291 18.665
7.3443 19.039
7.3594 19.297
7.3746 18.882
7.3898 19.321
7.4050 19.668
7.4201 19.349
7.4353 19.701
7.4505 19.491
7.4657 19.617
7.4808 19.599
7.4960 19.559
7.5112 19.739
7.5264 19.760
7.5415 19.916
7.5567 20.083
7.5719 19.797
7.5871 19.908
7.6022 20.029
7.6174 19.772
7.6326 19.933
7.6478 20.232
7.6629 20.282
7.6781 20.289
7.6933 20.090
7.7085 20.241
7.7236 20.543
7.7388 20.131
7.7540 20.223
7.7692 20.148
7.7843 20.008
7.7995 20.428
7.8147 20.644
7.8299 20.599
7.8450 20.709
7.8602 20.965
7.8754 20.954
7.8905 20.780
7.9057 20.698
7.9209 20.894
7.9361 21.070
7.9512 21.067
7.9664 20.868
7.9816 20.744
7.9968 20.749
8.0119 20.692
8.0271 20.951
8.0423 21.066
8.0575 21.335
8.0726 21.419
8.0878 21.165
8.1030 21.066
8.1182 20.895
8.1333 21.091
8.1485 21.184
8.1637 21.283
8.1789 21.533
8.1940 21.436
8.2092 21.338
8.2244 21.460
8.2396 21.445
8.2547 21.759
8.2699 21.357
8.2851 21.497
8.3003 21.265
8.3154 21.303
8.3306 21.661
8.3458 21.953
8.3610 21.851
8.3761 21.708
8.3913 21.819
8.4065 22.093
8.4217 22.061
8.4368 21.701
8.4520 21.706
8.4672 21.529
8.4824 21.799
8.4975 22.486
8.5127 21.824
8.5279 21.718
8.5431 21.849
8.5582 21.997
8.5734 22.463
8.5886 22.586
8.6038 21.937
8.6189 22.146
8.6341 21.812
8.6493 22.628
8.6645 21.957
8.6796 22.633
8.6948 22.355
8.7100 22.709
8.7252 22.077
8.7403 22.484
8.7555 22.552
8.7707 22.371
8.7859 22.315
8.8010 22.200
8.8162 22.348
8.8314 22.665
8.8466 22.439
8.8617 22.419
8.8769 22.248
8.8921 22.660
8.9073 22.629
8.9224 22.883
8.9376 22.762
8.9528 22.734
8.9680 22.616
8.9831 22.645
8.9983 22.533
9.0135 22.806
9.0287 22.827
9.0438 23.169
9.0590 23.198
9.0742 22.985
9.0894 23.102
9.1045 23.051
9.1197 23.066
9.1349 23.003
9.1501 23.181
9.1652 22.963
9.1804 22.994
9.1956 22.909
9.2108 23.127
9.2259 23.225
9.2411 23.038
9.2563 22.903
9.2715 23.006
9.2866 22.921
9.3018 23.130
9.3170 23.110
9.3322 22.830
9.3473 22.874
9.3625 22.874
9.3777 22.757
9.3929 22.877
9.4080 22.849
9.4232 22.914
9.4384 22.922
9.4536 23.166
9.4687 23.137
9.4839 23.034
9.4991 22.927
9.5143 22.971
9.5294 23.316
9.5446 23.479
9.5598 23.313
9.5750 23.043
9.5901 23.035
9.6053 23.116
9.6205 23.186
9.6357 23.209
9.6508 23.511
9.6660 23.630
9.6812 23.761
9.6964 23.790
9.7115 23.762
9.7267 23.939
9.7419 23.994
9.7571 24.006
9.7722 23.943
9.7874 23.901
9.8026 23.703
9.8178 23.333
9.8329 22.941
9.8481 23.151
9.8633 23.426
9.8785 23.364
9.8936 23.316
9.9088 23.131
9.9240 23.170
9.9392 23.447
9.9543 23.452
9.9695 23.109
9.9847 23.096
9.9999 23.162
10.0150 23.252
10.0302 23.038
10.0454 23.053
10.0606 23.356
10.0757 23.324
10.0909 23.707
10.1061 23.772
10.1213 23.640
10.1364 23.374
10.1516 23.140
10.1668 23.058
10.1820 23.446
10.1971 23.543
10.2123 23.062
10.2275 23.109
10.2427 23.284
10.2578 23.159
10.2730 22.913
10.2882 22.706
10.3034 22.791
10.3185 22.737
10.3337 22.684
10.3489 22.846
10.3641 22.609
10.3792 22.656
10.3944 22.804
10.4096 22.646
10.4248 22.932
10.4399 22.678
10.4551 22.910
10.4703 23.020
10.4855 22.637
10.5006 22.795
10.5158 22.778
10.5310 22.510
10.5462 22.438
10.5613 22.680
10.5765 22.430
10.5917 22.400
10.6069 22.441
10.6220 22.608
10.6372 22.713
10.6524 22.512
10.6676 22.384
10.6827 22.854
10.6979 22.317
10.7131 22.516
10.7283 22.706
10.7434 22.525
10.7586 22.260
10.7738 22.251
10.7890 22.538
10.8041 22.187
10.8193 22.461
10.8345 22.273
10.8497 22.327
10.8648 22.805
10.8800 22.419
10.8952 22.442
10.9104 21.957
10.9255 22.242
10.9407 22.016
10.9559 21.847
10.9711 21.995
10.9862 22.163
11.0014 22.218
11.0166 22.174
11.0318 22.283
11.0469 21.824
11.0621 22.099
11.0773 22.010
11.0925 22.111
11.1076 22.232
11.1228 21.988
11.1380 21.967
11.1532 21.816
11.1683 21.987
11.1835 21.737
11.1987 21.500
11.2139 21.522
11.2290 21.994
11.2442 21.947
11.2594 21.906
11.2746 21.644
11.2897 21.229
11.3049 21.735
11.3201 21.733
11.3353 21.586
11.3504 21.791
11.3656 21.575
11.3808 21.258
11.3960 21.584
11.4111 21.994
11.4263 21.370
11.4415 21.122
11.4567 21.345
11.4718 21.279
11.4870 21.109
11.5022 21.501
11.5174 21.496
11.5325 21.169
11.5477 20.937
11.5629 21.026
11.5781 21.470
11.5932 20.746
11.6084 20.500
11.6236 20.872
11.6388 20.908
11.6539 20.832
11.6691 20.961
11.6843 20.680
11.6995 20.485
11.7146 20.346
11.7298 20.447
11.7450 20.604
11.7602 20.485
11.7753 20.639
11.7905 20.106
11.8057 20.093
11.8209 20.200
11.8360 19.937
11.8512 19.959
11.8664 19.729
11.8816 19.893
11.8967 20.056
11.9119 20.060
11.9271 19.953
11.9423 19.599
11.9574 19.172
11.9726 19.265
11.9878 19.384
12.0030 19.167
12.0181 18.999
12.0333 19.347
12.0485 19.234
12.0637 19.095
12.0788 19.052
12.0940 19.039
12.1092 18.769
12.1244 18.832
12.1395 18.806
12.1547 18.638
12.1699 18.468
12.1851 18.632
12.2002 18.495
12.2154 18.192
12.2306 18.139
12.2458 17.697
12.2609 17.887
12.2761 17.880
12.2913 17.588
12.3065 17.592
12.3216 17.430
12.3368 17.547
12.3520 17.259
12.3672 17.359
12.3823 17.286
12.3975 17.221
12.4127 17.396
12.4279 17.295
12.4430 17.201
12.4582 16.826
12.4734 16.783
12.4886 16.924
12.5037 16.617
12.5189 16.647
12.5341 16.627
12.5493 16.600
12.5644 16.303
12.5796 16.133
12.5948 16.217
12.6100 16.006
12.6251 15.776
12.6403 15.874
12.6555 15.641
12.6707 15.816
12.6858 15.932
12.7010 15.749
12.7162 15.677
12.7314 15.698
12.7465 15.619
12.7617 15.281
12.7769 15.293
12.7921 15.253
12.8072 15.256
12.8224 15.467
12.8376 15.311
12.8528 15.120
12.8679 14.977
12.8831 14.944
12.8983 14.981
12.9135 15.063
12.9286 14.781
12.9438 14.496
12.9590 14.610
12.9742 14.606
12.9893 14.625
13.0045 14.621
13.0197 14.353
13.0349 14.145
13.0500 14.073
13.0652 13.977
13.0804 13.997
13.0956 13.877
13.1107 13.825
13.1259 13.852
13.1411 13.693
13.1563 13.781
13.1714 13.763
13.1866 13.630
13.2018 13.643
13.2170 13.473
13.2321 13.379
13.2473 13.459
13.2625 13.465
13.2777 13.587
13.2928 13.379
13.3080 12.892
13.3232 13.027
13.3384 13.130
13.3535 12.984
13.3687 12.947
13.3839 13.133
13.3991 13.401
13.4142 13.158
13.4294 12.798
13.4446 12.698
13.4598 12.814
13.4749 12.792
13.4901 12.746
13.5053 12.602
13.5205 12.802
13.5356 12.962
13.5508 12.700
13.5660 12.316
13.5812 12.196
13.5963 12.014
13.6115 11.976
13.6267 12.138
13.6419 12.171
13.6570 12.139
13.6722 11.900
13.6874 12.123
13.7026 12.089
13.7177 11.960
13.7329 11.895
13.7481 11.904
13.7633 12.095
13.7784 11.975
13.7936 12.081
13.8088 12.277
13.8239 12.476
13.8391 12.470
13.8543 12.418
13.8695 12.316
13.8846 12.343
13.8998 12.427
13.9150 12.196
13.9302 12.005
13.9453 12.129
13.9605 12.122
13.9757 12.102
13.9909 11.918
14.0060 11.515
14.0212 11.497
14.0364 11.464
14.0516 11.556
14.0667 11.457
14.0819 11.510
14.0971 11.507
14.1123 11.722
14.1274 11.455
14.1426 11.332
14.1578 11.353
14.1730 11.817
14.1881 11.859
14.2033 12.199
14.2185 11.990
14.2337 11.916
14.2488 12.073
14.2640 12.009
14.2792 11.793
14.2944 12.497
14.3095 12.557
14.3247 12.372
14.3399 12.717
14.3551 12.930
14.3702 12.997
14.3854 13.071
14.4006 13.263
14.4158 13.179
14.4309 13.160
14.4461 12.704
14.4613 12.515
14.4765 12.367
14.4916 12.174
14.5068 12.004
14.5220 11.933
14.5372 11.510
14.5523 11.270
14.5675 11.264
14.5827 11.205
14.5979 10.845
14.6130 11.075
14.6282 11.021
14.6434 10.993
14.6586 10.838
14.6737 10.606
14.6889 10.502
14.7041 10.816
14.7193 10.959
14.7344 10.468
14.7496 10.629
14.7648 10.671
14.7800 10.568
14.7951 10.354
14.8103 10.599
14.8255 10.644
14.8407 10.646
14.8558 10.837
14.8710 10.943
14.8862 10.742
14.9014 10.458
14.9165 11.052
14.9317 10.826
14.9469 10.497
14.9621 10.353
14.9772 10.375
14.9924 10.563
15.0076 10.336
15.0228 10.586
15.0379 10.523
15.0531 10.119
15.0683 10.321
15.0835 10.002
15.0986 10.434
15.1138 9.875
15.1290 10.481
15.1442 10.356
15.1593 10.437
15.1745 10.328
15.1897 10.183
15.2049 10.397
15.2200 10.550
15.2352 10.319
15.2504 10.219
15.2656 10.296
15.2807 10.237
15.2959 10.300
15.3111 10.308
15.3263 10.088
15.3414 10.358
15.3566 10.263
15.3718 10.188
15.3870 10.006
15.4021 10.478
15.4173 10.184
15.4325 10.463
15.4477 10.052
15.4628 10.448
15.4780 9.946
15.4932 10.098
15.5084 10.112
15.5235 10.046
15.5387 10.237
15.5539 10.183
15.5691 10.013
15.5842 10.026
15.5994 10.027
15.6146 9.838
15.6298 9.823
15.6449 9.974
15.6601 9.646
15.6753 10.206
15.6905 9.997
15.7056 9.604
15.7208 9.901
15.7360 9.531
15.7512 9.829
15.7663 9.764
15.7815 9.426
15.7967 9.930
15.8119 9.533
15.8270 9.663
15.8422 9.626
15.8574 9.613
15.8726 9.529
15.8877 9.398
15.9029 9.374
15.9181 9.409
15.9333 9.565
15.9484 9.642
15.9636 9.392
15.9788 9.532
15.9940 9.816
16.0091 9.649
16.0243 9.800
16.0395 9.532
16.0547 9.523
16.0698 9.582
16.0850 9.723
16.1002 9.629
16.1154 9.852
16.1305 9.518
16.1457 9.415
16.1609 9.678
16.1761 9.674
16.1912 9.578
16.2064 9.796
16.2216 9.962
16.2368 9.827
16.2519 9.746
16.2671 9.783
16.2823 9.584
16.2975 9.967
16.3126 10.046
16.3278 9.888
16.3430 10.014
16.3582 10.128
16.3733 10.039
16.3885 9.976
16.4037 9.949
16.4189 9.981
16.4340 9.974
16.4492 9.641
16.4644 9.994
16.4796 9.842
16.4947 9.681
16.5099 9.689
16.5251 9.969
16.5403 9.752
16.5554 9.522
16.5706 9.637
16.5858 9.711
16.6010 9.662
16.6161 9.979
16.6313 10.310
16.6465 10.062
16.6617 9.692
16.6768 9.830
16.6920 9.847
16.7072 9.815
16.7224 9.928
16.7375 10.007
16.7527 10.051
16.7679 10.140
16.7831 9.991
16.7982 9.917
16.8134 9.785
16.8286 9.687
16.8438 9.737
16.8589 9.798
16.8741 9.917
16.8893 9.881
16.9045 9.714
16.9196 9.665
16.9348 9.723
16.9500 9.928
16.9652 10.095
16.9803 10.117
16.9955 10.161
17.0107 10.031
17.0259 9.946
17.0410 10.268
17.0562 10.458
17.0714 10.207
17.0866 10.242
17.1017 10.625
17.1169 10.757
17.1321 10.818
17.1473 11.279
17.1624 11.817
17.1776 12.349
17.1928 12.842
17.2080 13.662
17.2231 15.059
17.2383 16.529
17.2535 17.762
17.2687 18.319
17.2838 18.551
17.2990 17.981
17.3142 16.784
17.3294 16.245
17.3445 16.067
17.3597 16.047
17.3749 15.729
17.3901 14.813
17.4052 14.014
17.4204 13.383
17.4356 12.664
17.4508 12.069
17.4659 11.731
17.4811 11.693
17.4963 11.698
17.5115 11.676
17.5266 11.441
17.5418 11.149
17.5570 11.249
17.5722 11.294
17.5873 11.183
17.6025 11.084
17.6177 11.180
17.6329 11.327
17.6480 11.585
17.6632 11.518
17.6784 11.322
17.6936 11.621
17.7087 11.564
17.7239 11.237
17.7391 11.045
17.7543 11.042
17.7694 11.056
17.7846 10.983
17.7998 10.821
17.8150 10.833
17.8301 10.776
17.8453 10.576
17.8605 10.385
17.8757 10.273
17.8908 10.082
17.9060 10.157
17.9212 10.143
17.9364 10.048
17.9515 10.100
17.9667 10.176
17.9819 10.105
17.9971 10.129
18.0122 10.065
18.0274 10.039
18.0426 10.200
18.0578 10.196
18.0729 9.917
18.0881 9.932
18.1033 9.815
18.1185 9.942
18.1336 10.156
18.1488 10.165
18.1640 9.951
18.1792 9.826
18.1943 9.819
18.2095 9.738
18.2247 9.906
18.2399 9.950
18.2550 9.924
18.2702 9.765
18.2854 9.763
18.3006 10.009
18.3157 9.938
18.3309 9.741
18.3461 9.768
18.3613 9.880
18.3764 9.802
18.3916 9.618
18.4068 9.779
18.4220 9.828
18.4371 9.845
18.4523 9.762
18.4675 9.712
18.4827 9.976
18.4978 9.842
18.5130 9.753
18.5282 9.705
18.5434 9.769
18.5585 9.762
18.5737 10.001
18.5889 9.925
18.6041 9.481
18.6192 9.640
18.6344 9.698
18.6496 9.755
18.6648 9.805
18.6799 9.843
18.6951 9.854
18.7103 9.779
18.7255 9.749
18.7406 9.657
18.7558 9.725
18.7710 9.691
18.7862 9.838
18.8013 9.660
18.8165 9.417
18.8317 9.550
18.8469 9.793
18.8620 10.043
18.8772 10.134
18.8924 10.081
18.9076 9.897
18.9227 10.037
18.9379 9.985
18.9531 10.053
18.9683 10.032
18.9834 10.272
18.9986 10.215
19.0138 10.107
19.0290 10.160
19.0441 10.134
19.0593 10.276
19.0745 10.398
19.0897 10.443
19.1048 10.263
19.1200 10.221
19.1352 10.517
19.1504 10.514
19.1655 10.457
19.1807 10.588
19.1959 10.598
19.2111 10.550
19.2262 10.655
19.2414 10.945
19.2566 10.765
19.2718 10.785
19.2869 10.930
19.3021 10.932
19.3173 11.031
19.3325 10.885
19.3476 10.741
19.3628 10.893
19.3780 10.890
19.3932 11.019
19.4083 11.279
19.4235 11.278
19.4387 11.294
19.4539 11.425
19.4690 11.422
19.4842 11.407
19.4994 11.619
19.5146 11.363
19.5297 11.338
19.5449 11.774
19.5601 11.944
19.5753 11.717
19.5904 11.584
19.6056 11.672
19.6208 11.807
19.6360 11.652
19.6511 11.657
19.6663 11.767
19.6815 11.686
19.6967 11.709
19.7118 11.806
19.7270 11.888
19.7422 11.997
19.7574 11.766
19.7725 11.731
19.7877 11.750
19.8029 11.890
19.8180 12.078
19.8332 12.061
19.8484 12.266
19.8636 12.343
19.8787 12.535
19.8939 12.931
19.9091 13.388
19.9243 13.395
19.9394 13.623
19.9546 14.382
19.9698 14.806
19.9850 14.516
20.0001 14.205
20.0153 14.243
20.0305 14.121
20.0457 14.071
20.0608 13.519
20.0760 13.504
20.0912 13.671
20.1064 13.814
20.1215 13.849
20.1367 13.722
20.1519 13.204
20.1671 12.765
20.1822 12.897
20.1974 13.064
20.2126 12.615
20.2278 12.432
20.2429 12.514
20.2581 12.301
20.2733 12.204
20.2885 11.956
20.3036 12.005
20.3188 12.021
20.3340 12.293
20.3492 12.218
20.3643 12.121
20.3795 11.981
20.3947 12.018
20.4099 12.106
20.4250 12.038
20.4402 12.140
20.4554 12.204
20.4706 12.089
20.4857 11.795
20.5009 11.661
20.5161 11.681
20.5313 11.593
20.5464 11.655
20.5616 11.237
20.5768 11.188
20.5920 10.935
20.6071 11.199
20.6223 11.183
20.6375 10.929
20.6527 10.841
20.6678 10.325
20.6830 10.332
20.6982 10.558
20.7134 10.405
20.7285 10.405
20.7437 10.224
20.7589 9.936
20.7741 10.292
20.7892 10.335
20.8044 10.416
20.8196 10.378
20.8348 10.267
20.8499 10.006
20.8651 10.123
20.8803 10.634
20.8955 10.244
20.9106 10.252
20.9258 10.246
20.9410 9.853
20.9562 10.251
20.9713 10.077
20.9865 9.706
21.0017 10.229
21.0169 9.716
21.0320 10.115
21.0472 9.950
21.0624 9.891
21.0776 9.950
21.0927 9.949
21.1079 9.931
21.1231 9.704
21.1383 10.008
21.1534 9.734
21.1686 9.570
21.1838 9.593
21.1990 9.776
21.2141 10.020
21.2293 9.800
21.2445 9.877
21.2597 9.768
21.2748 9.793
21.2900 9.796
21.3052 9.531
21.3204 9.306
21.3355 9.273
21.3507 9.398
21.3659 9.757
21.3811 9.296
21.3962 9.759
21.4114 9.481
21.4266 9.541
21.4418 9.056
21.4569 9.268
21.4721 9.536
21.4873 9.135
21.5025 9.234
21.5176 9.633
21.5328 9.555
21.5480 9.441
21.5632 9.265
21.5783 9.177
21.5935 9.134
21.6087 9.162
21.6239 9.067
21.6390 9.325
21.6542 9.130
21.6694 9.122
21.6846 9.478
21.6997 9.354
21.7149 9.252
21.7301 9.163
21.7453 9.100
21.7604 8.790
21.7756 9.206
21.7908 9.211
21.8060 9.193
21.8211 9.213
21.8363 8.967
21.8515 9.142
21.8667 9.275
21.8818 9.025
21.8970 9.054
21.9122 8.956
21.9274 8.611
21.9425 8.743
21.9577 9.046
21.9729 8.967
21.9881 9.107
22.0032 9.039
22.0184 8.852
22.0336 8.833
22.0488 8.802
22.0639 8.701
22.0791 8.619
22.0943 8.659
22.1095 8.758
22.1246 8.665
22.1398 8.744
22.1550 8.770
22.1702 8.856
22.1853 8.736
22.2005 8.459
22.2157 8.471
22.2309 8.617
22.2460 8.518
22.2612 8.377
22.2764 8.640
22.2916 8.792
22.3067 8.505
22.3219 8.535
22.3371 8.579
22.3523 8.458
22.3674 8.546
22.3826 8.571
22.3978 8.740
22.4130 8.485
22.4281 8.495
22.4433 8.371
22.4585 8.688
22.4737 8.340
22.4888 8.433
22.5040 8.165
22.5192 8.278
22.5344 8.445
22.5495 8.457
22.5647 8.427
22.5799 8.226
22.5951 7.942
22.6102 8.651
22.6254 8.110
22.6406 8.463
22.6558 8.039
22.6709 8.269
22.6861 8.454
22.7013 8.218
22.7165 7.731
22.7316 6.572
