'Id: "" Comment: "" Operator: "Lab Manager" Anode: "Mo" Scantype: "Still (Eiger2R_500K (1D mode))" TimePerStep: "300" X: "11.8" Y: "9.4" Z: "11.284" 
7.2532 19.290
7.2684 18.460
7.2836 18.212
7.2987 18.892
7.3139 18.652
7.3291 18.666
7.3443 19.016
7.3594 19.196
7.3746 19.403
7.3898 19.455
7.4050 19.577
7.4201 19.554
7.4353 19.222
7.4505 19.432
7.4657 19.417
7.4808 19.421
7.4960 19.502
7.5112 19.377
7.5264 19.595
7.5415 20.052
7.5567 19.625
7.5719 19.624
7.5871 19.515
7.6022 19.369
7.6174 19.784
7.6326 19.808
7.6478 19.719
7.6629 19.897
7.6781 19.859
7.6933 20.303
7.7085 20.110
7.7236 20.325
7.7388 20.424
7.7540 20.345
7.7692 20.400
7.7843 20.192
7.7995 20.349
7.8147 20.379
7.8299 20.396
7.8450 20.757
7.8602 20.596
7.8754 20.439
7.8905 20.569
7.9057 20.429
7.9209 20.198
7.9361 20.222
7.9512 20.125
7.9664 20.788
7.9816 21.130
7.9968 20.922
8.0119 20.936
8.0271 21.187
8.0423 21.309
8.0575 21.116
8.0726 21.206
8.0878 21.324
8.1030 21.113
8.1182 21.033
8.1333 20.850
8.1485 21.310
8.1637 21.370
8.1789 21.058
8.1940 21.746
8.2092 21.353
8.2244 21.387
8.2396 21.227
8.2547 21.139
8.2699 21.238
8.2851 21.802
8.3003 21.546
8.3154 21.309
8.3306 21.839
8.3458 21.906
8.3610 21.318
8.3761 21.910
8.3913 22.026
8.4065 22.151
8.4217 21.735
8.4368 22.153
8.4520 21.992
8.4672 22.375
8.4824 22.256
8.4975 22.135
8.5127 22.068
8.5279 21.583
8.5431 21.677
8.5582 21.478
8.5734 21.773
8.5886 22.394
8.6038 21.892
8.6189 22.065
8.6341 22.152
8.6493 22.595
8.6645 22.092
8.6796 22.038
8.6948 22.555
8.7100 22.350
8.7252 22.214
8.7403 22.003
8.7555 22.089
8.7707 22.153
8.7859 22.293
8.8010 22.457
8.8162 22.307
8.8314 22.300
8.8466 22.499
8.8617 22.100
8.8769 22.393
8.8921 22.089
8.9073 22.617
8.9224 22.508
8.9376 22.360
8.9528 22.230
8.9680 22.556
8.9831 22.582
8.9983 22.530
9.0135 22.674
9.0287 22.646
9.0438 22.507
9.0590 22.529
9.0742 22.926
9.0894 22.933
9.1045 22.853
9.1197 22.910
9.1349 22.827
9.1501 22.876
9.1652 22.933
9.1804 22.991
9.1956 22.688
9.2108 22.634
9.2259 22.921
9.2411 22.827
9.2563 22.797
9.2715 22.927
9.2866 22.700
9.3018 22.739
9.3170 22.375
9.3322 22.510
9.3473 22.839
9.3625 22.976
9.3777 22.673
9.3929 22.734
9.4080 23.050
9.4232 22.755
9.4384 22.770
9.4536 22.949
9.4687 23.071
9.4839 23.126
9.4991 23.228
9.5143 23.260
9.5294 23.357
9.5446 23.102
9.5598 23.234
9.5750 23.195
9.5901 23.118
9.6053 23.084
9.6205 23.235
9.6357 23.383
9.6508 23.146
9.6660 23.361
9.6812 23.753
9.6964 23.596
9.7115 23.790
9.7267 23.906
9.7419 23.766
9.7571 23.702
9.7722 23.688
9.7874 23.611
9.8026 23.842
9.8178 23.884
9.8329 23.380
9.8481 23.283
9.8633 23.285
9.8785 23.190
9.8936 23.094
9.9088 22.950
9.9240 23.013
9.9392 23.117
9.9543 23.112
9.9695 23.011
9.9847 22.928
9.9999 22.873
10.0150 23.107
10.0302 23.174
10.0454 23.069
10.0606 23.034
10.0757 22.994
10.0909 23.337
10.1061 23.540
10.1213 23.315
10.1364 23.361
10.1516 23.519
10.1668 23.332
10.1820 23.449
10.1971 23.593
10.2123 23.411
10.2275 22.905
10.2427 22.932
10.2578 22.865
10.2730 22.864
10.2882 22.519
10.3034 22.379
10.3185 22.583
10.3337 22.757
10.3489 22.991
10.3641 22.906
10.3792 22.657
10.3944 22.749
10.4096 22.827
10.4248 22.954
10.4399 22.661
10.4551 22.606
10.4703 22.615
10.4855 22.604
10.5006 22.703
10.5158 22.562
10.5310 22.372
10.5462 22.286
10.5613 22.416
10.5765 22.603
10.5917 22.921
10.6069 22.728
10.6220 22.381
10.6372 22.550
10.6524 22.576
10.6676 22.339
10.6827 22.265
10.6979 22.050
10.7131 22.077
10.7283 22.322
10.7434 22.696
10.7586 22.447
10.7738 22.373
10.7890 22.016
10.8041 21.975
10.8193 22.438
10.8345 22.592
10.8497 22.058
10.8648 22.181
10.8800 22.166
10.8952 22.135
10.9104 22.436
10.9255 22.133
10.9407 21.973
10.9559 21.949
10.9711 21.664
10.9862 21.962
11.0014 22.101
11.0166 21.890
11.0318 21.937
11.0469 21.779
11.0621 21.855
11.0773 21.942
11.0925 21.486
11.1076 21.731
11.1228 21.941
11.1380 22.138
11.1532 21.938
11.1683 21.534
11.1835 21.660
11.1987 21.552
11.2139 21.600
11.2290 21.507
11.2442 21.585
11.2594 21.370
11.2746 21.411
11.2897 21.419
11.3049 21.357
11.3201 21.365
11.3353 21.497
11.3504 21.406
11.3656 21.643
11.3808 21.531
11.3960 21.480
11.4111 21.030
11.4263 21.273
11.4415 21.107
11.4567 20.798
11.4718 21.018
11.4870 21.207
11.5022 21.188
11.5174 21.175
11.5325 21.091
11.5477 21.068
11.5629 21.282
11.5781 20.784
11.5932 20.445
11.6084 20.549
11.6236 20.826
11.6388 20.702
11.6539 20.866
11.6691 20.774
11.6843 20.726
11.6995 20.497
11.7146 20.593
11.7298 20.653
11.7450 20.423
11.7602 20.310
11.7753 20.307
11.7905 20.407
11.8057 20.059
11.8209 19.814
11.8360 19.742
11.8512 19.615
11.8664 19.856
11.8816 19.784
11.8967 19.604
11.9119 19.652
11.9271 19.548
11.9423 19.433
11.9574 19.276
11.9726 19.007
11.9878 18.883
12.0030 19.117
12.0181 19.030
12.0333 18.881
12.0485 18.926
12.0637 18.728
12.0788 19.000
12.0940 18.738
12.1092 18.862
12.1244 18.486
12.1395 18.553
12.1547 18.659
12.1699 18.408
12.1851 18.789
12.2002 18.463
12.2154 18.112
12.2306 18.043
12.2458 18.040
12.2609 18.043
12.2761 17.764
12.2913 17.673
12.3065 17.739
12.3216 17.457
12.3368 17.458
12.3520 17.565
12.3672 17.341
12.3823 17.340
12.3975 17.016
12.4127 17.066
12.4279 17.220
12.4430 16.968
12.4582 16.807
12.4734 16.665
12.4886 16.722
12.5037 16.581
12.5189 16.612
12.5341 16.544
12.5493 16.266
12.5644 16.326
12.5796 16.228
12.5948 16.031
12.6100 15.768
12.6251 15.707
12.6403 15.748
12.6555 15.784
12.6707 15.717
12.6858 16.012
12.7010 16.015
12.7162 15.651
12.7314 15.445
12.7465 15.267
12.7617 15.466
12.7769 15.529
12.7921 15.176
12.8072 14.924
12.8224 15.250
12.8376 15.472
12.8528 15.015
12.8679 14.671
12.8831 14.572
12.8983 14.613
12.9135 14.546
12.9286 14.631
12.9438 14.618
12.9590 14.503
12.9742 14.236
12.9893 14.148
13.0045 14.162
13.0197 14.231
13.0349 14.281
13.0500 13.888
13.0652 13.703
13.0804 13.676
13.0956 13.616
13.1107 13.895
13.1259 13.919
13.1411 13.948
13.1563 13.594
13.1714 13.211
13.1866 13.481
13.2018 13.570
13.2170 13.423
13.2321 13.256
13.2473 13.319
13.2625 13.362
13.2777 13.406
13.2928 13.175
13.3080 13.114
13.3232 13.344
13.3384 13.262
13.3535 13.243
13.3687 13.114
13.3839 12.987
13.3991 12.996
13.4142 12.973
13.4294 12.960
13.4446 12.848
13.4598 12.963
13.4749 12.789
13.4901 12.460
13.5053 12.385
13.5205 12.409
13.5356 12.502
13.5508 12.496
13.5660 12.320
13.5812 12.373
13.5963 12.056
13.6115 11.961
13.6267 12.036
13.6419 12.188
13.6570 12.094
13.6722 11.947
13.6874 12.009
13.7026 12.008
13.7177 12.016
13.7329 11.828
13.7481 11.902
13.7633 11.941
13.7784 11.828
13.7936 12.158
13.8088 12.253
13.8239 12.318
13.8391 12.316
13.8543 12.412
13.8695 12.447
13.8846 12.327
13.8998 11.986
13.9150 12.017
13.9302 11.999
13.9453 11.987
13.9605 11.900
13.9757 11.681
13.9909 11.712
14.0060 11.717
14.0212 11.480
14.0364 11.614
14.0516 11.761
14.0667 11.654
14.0819 11.555
14.0971 11.457
14.1123 11.785
14.1274 11.429
14.1426 11.441
14.1578 11.562
14.1730 11.458
14.1881 11.304
14.2033 11.079
14.2185 11.291
14.2337 11.539
14.2488 11.674
14.2640 11.592
14.2792 11.607
14.2944 11.875
14.3095 11.921
14.3247 12.233
14.3399 12.397
14.3551 12.753
14.3702 12.851
14.3854 13.130
14.4006 13.308
14.4158 13.869
14.4309 13.323
14.4461 13.117
14.4613 12.936
14.4765 12.628
14.4916 12.618
14.5068 12.439
14.5220 12.068
14.5372 11.750
14.5523 11.369
14.5675 10.979
14.5827 11.128
14.5979 11.056
14.6130 11.052
14.6282 11.052
14.6434 10.882
14.6586 10.508
14.6737 10.547
14.6889 10.708
14.7041 10.821
14.7193 10.706
14.7344 10.671
14.7496 10.541
14.7648 10.538
14.7800 10.455
14.7951 10.499
14.8103 10.165
14.8255 10.373
14.8407 10.714
14.8558 10.367
14.8710 10.287
14.8862 10.190
14.9014 10.638
14.9165 10.926
14.9317 10.695
14.9469 10.305
14.9621 10.273
14.9772 10.269
14.9924 10.014
15.0076 10.282
15.0228 10.250
15.0379 10.605
15.0531 10.322
15.0683 10.222
15.0835 10.042
15.0986 10.186
15.1138 10.484
15.1290 10.122
15.1442 10.298
15.1593 10.411
15.1745 10.361
15.1897 10.093
15.2049 9.844
15.2200 9.767
15.2352 10.309
15.2504 10.706
15.2656 10.058
15.2807 10.126
15.2959 9.967
15.3111 10.049
15.3263 10.167
15.3414 9.916
15.3566 10.238
15.3718 10.027
15.3870 10.130
15.4021 10.296
15.4173 10.287
15.4325 10.051
15.4477 10.036
15.4628 10.315
15.4780 9.957
15.4932 9.947
15.5084 9.975
15.5235 10.202
15.5387 9.934
15.5539 10.295
15.5691 10.114
15.5842 9.720
15.5994 9.785
15.6146 9.771
15.6298 9.768
15.6449 9.688
15.6601 9.674
15.6753 9.866
15.6905 9.705
15.7056 9.780
15.7208 9.513
15.7360 9.741
15.7512 9.443
15.7663 9.734
15.7815 9.732
15.7967 9.806
15.8119 9.593
15.8270 9.561
15.8422 9.784
15.8574 9.920
15.8726 9.495
15.8877 9.430
15.9029 9.514
15.9181 9.424
15.9333 9.578
15.9484 9.494
15.9636 9.456
15.9788 9.621
15.9940 9.487
16.0091 9.556
16.0243 9.656
16.0395 9.661
16.0547 9.694
16.0698 9.313
16.0850 9.731
16.1002 9.664
16.1154 9.581
16.1305 9.614
16.1457 9.528
16.1609 9.416
16.1761 9.589
16.1912 9.477
16.2064 9.591
16.2216 9.692
16.2368 9.586
16.2519 9.879
16.2671 9.879
16.2823 9.822
16.2975 9.787
16.3126 9.844
16.3278 9.660
16.3430 9.670
16.3582 9.821
16.3733 9.904
16.3885 9.883
16.4037 9.845
16.4189 9.803
16.4340 9.720
16.4492 9.783
16.4644 9.675
16.4796 9.885
16.4947 9.953
16.5099 9.740
16.5251 9.698
16.5403 9.428
16.5554 9.472
16.5706 9.610
16.5858 9.486
16.6010 9.368
16.6161 9.564
16.6313 9.618
16.6465 9.698
16.6617 9.822
16.6768 9.707
16.6920 9.880
16.7072 9.992
16.7224 9.831
16.7375 9.839
16.7527 9.891
16.7679 10.120
16.7831 10.015
16.7982 9.781
16.8134 10.080
16.8286 10.008
16.8438 9.848
16.8589 9.870
16.8741 9.739
16.8893 9.625
16.9045 9.715
16.9196 9.599
16.9348 9.432
16.9500 9.678
16.9652 9.977
16.9803 9.932
16.9955 9.725
17.0107 9.650
17.0259 9.769
17.0410 9.830
17.0562 9.965
17.0714 10.162
17.0866 10.216
17.1017 10.424
17.1169 10.671
17.1321 10.729
17.1473 11.074
17.1624 11.470
17.1776 12.073
17.1928 12.808
17.2080 13.883
17.2231 14.977
17.2383 16.130
17.2535 17.591
17.2687 18.449
17.2838 18.266
17.2990 17.568
17.3142 16.751
17.3294 15.910
17.3445 15.616
17.3597 15.546
17.3749 15.381
17.3901 15.120
17.4052 14.271
17.4204 13.219
17.4356 12.356
17.4508 11.784
17.4659 11.620
17.4811 11.457
17.4963 11.490
17.5115 11.331
17.5266 10.909
17.5418 10.773
17.5570 10.703
17.5722 10.781
17.5873 10.891
17.6025 10.883
17.6177 10.960
17.6329 11.104
17.6480 11.261
17.6632 11.547
17.6784 11.646
17.6936 11.903
17.7087 12.003
17.7239 11.881
17.7391 11.808
17.7543 11.475
17.7694 11.456
17.7846 11.434
17.7998 11.329
17.8150 11.402
17.8301 11.295
17.8453 11.011
17.8605 10.623
17.8757 10.593
17.8908 10.579
17.9060 10.518
17.9212 10.481
17.9364 10.291
17.9515 10.127
17.9667 10.302
17.9819 10.500
17.9971 10.238
18.0122 10.227
18.0274 10.085
18.0426 9.954
18.0578 10.060
18.0729 9.941
18.0881 10.135
18.1033 10.162
18.1185 9.973
18.1336 9.946
18.1488 10.110
18.1640 9.955
18.1792 9.937
18.1943 9.848
18.2095 9.862
18.2247 9.854
18.2399 9.678
18.2550 9.535
18.2702 9.809
18.2854 9.983
18.3006 9.743
18.3157 9.643
18.3309 9.648
18.3461 9.607
18.3613 9.568
18.3764 9.645
18.3916 9.708
18.4068 9.864
18.4220 9.914
18.4371 10.090
18.4523 9.954
18.4675 9.733
18.4827 9.829
18.4978 9.742
18.5130 9.636
18.5282 9.772
18.5434 9.872
18.5585 9.823
18.5737 9.727
18.5889 9.599
18.6041 9.451
18.6192 9.625
18.6344 9.821
18.6496 9.823
18.6648 9.855
18.6799 9.959
18.6951 10.033
18.7103 9.975
18.7255 9.818
18.7406 9.633
18.7558 9.623
18.7710 9.761
18.7862 9.887
18.8013 9.834
18.8165 9.666
18.8317 9.724
18.8469 9.881
18.8620 9.751
18.8772 9.697
18.8924 9.912
18.9076 10.072
18.9227 9.854
18.9379 9.841
18.9531 9.964
18.9683 9.830
18.9834 9.974
18.9986 10.002
19.0138 9.949
19.0290 10.128
19.0441 10.117
19.0593 9.928
19.0745 10.165
19.0897 10.358
19.1048 10.211
19.1200 10.364
19.1352 10.478
19.1504 10.320
19.1655 10.367
19.1807 10.622
19.1959 10.483
19.2111 10.461
19.2262 10.634
19.2414 10.616
19.2566 10.854
19.2718 10.890
19.2869 10.652
19.3021 10.731
19.3173 10.920
19.3325 11.107
19.3476 11.195
19.3628 11.012
19.3780 11.117
19.3932 10.965
19.4083 10.843
19.4235 11.005
19.4387 11.190
19.4539 11.180
19.4690 11.388
19.4842 11.519
19.4994 11.402
19.5146 11.323
19.5297 11.442
19.5449 11.204
19.5601 11.140
19.5753 11.669
19.5904 11.741
19.6056 11.724
19.6208 11.895
19.6360 11.697
19.6511 11.624
19.6663 11.620
19.6815 11.452
19.6967 11.417
19.7118 11.730
19.7270 11.845
19.7422 11.719
19.7574 11.596
19.7725 11.539
19.7877 11.684
19.8029 11.908
19.8180 12.168
19.8332 12.070
19.8484 12.073
19.8636 12.280
19.8787 12.292
19.8939 12.629
19.9091 13.217
19.9243 13.566
19.9394 13.725
19.9546 14.045
19.9698 14.308
19.9850 14.452
20.0001 14.494
20.0153 14.462
20.0305 14.059
20.0457 13.940
20.0608 13.907
20.0760 13.585
20.0912 13.401
20.1064 13.533
20.1215 13.495
20.1367 13.104
20.1519 12.951
20.1671 12.684
20.1822 12.811
20.1974 12.847
20.2126 12.657
20.2278 12.348
20.2429 12.352
20.2581 12.309
20.2733 12.132
20.2885 11.974
20.3036 11.767
20.3188 11.932
20.3340 11.976
20.3492 12.197
20.3643 11.976
20.3795 11.698
20.3947 11.663
20.4099 11.841
20.4250 11.945
20.4402 11.972
20.4554 12.128
20.4706 12.273
20.4857 12.307
20.5009 12.030
20.5161 11.664
20.5313 11.536
20.5464 11.565
20.5616 11.570
20.5768 11.636
20.5920 11.677
20.6071 11.451
20.6223 11.209
20.6375 11.018
20.6527 10.968
20.6678 11.060
20.6830 10.847
20.6982 10.683
20.7134 10.448
20.7285 10.696
20.7437 10.474
20.7589 10.748
20.7741 10.279
20.7892 10.263
20.8044 10.399
20.8196 10.261
20.8348 10.352
20.8499 10.118
20.8651 10.223
20.8803 10.380
20.8955 10.367
20.9106 10.281
20.9258 10.073
20.9410 10.140
20.9562 10.039
20.9713 10.197
20.9865 10.196
21.0017 9.856
21.0169 9.694
21.0320 9.756
21.0472 9.785
21.0624 9.901
21.0776 9.976
21.0927 9.969
21.1079 9.739
21.1231 9.904
21.1383 9.687
21.1534 9.673
21.1686 9.798
21.1838 10.081
21.1990 9.593
21.2141 9.873
21.2293 9.751
21.2445 9.542
21.2597 9.438
21.2748 9.612
21.2900 9.349
21.3052 9.533
21.3204 9.619
21.3355 9.310
21.3507 9.618
21.3659 9.716
21.3811 9.486
21.3962 9.771
21.4114 9.523
21.4266 9.537
21.4418 9.416
21.4569 9.203
21.4721 9.137
21.4873 9.391
21.5025 9.244
21.5176 9.216
21.5328 9.214
21.5480 9.164
21.5632 9.353
21.5783 9.328
21.5935 9.253
21.6087 9.306
21.6239 9.261
21.6390 9.430
21.6542 9.349
21.6694 9.210
21.6846 9.163
21.6997 9.178
21.7149 8.978
21.7301 8.925
21.7453 9.127
21.7604 8.959
21.7756 8.769
21.7908 8.939
21.8060 9.147
21.8211 9.043
21.8363 8.872
21.8515 8.965
21.8667 8.973
21.8818 9.121
21.8970 9.147
21.9122 9.044
21.9274 9.080
21.9425 8.920
21.9577 8.867
21.9729 9.012
21.9881 8.865
22.0032 8.843
22.0184 8.788
22.0336 8.697
22.0488 8.717
22.0639 8.786
22.0791 8.690
22.0943 8.698
22.1095 8.863
22.1246 8.716
22.1398 8.694
22.1550 8.734
22.1702 8.782
22.1853 8.695
22.2005 8.572
22.2157 8.575
22.2309 8.466
22.2460 8.688
22.2612 8.680
22.2764 8.376
22.2916 8.434
22.3067 8.372
22.3219 8.439
22.3371 8.427
22.3523 8.521
22.3674 8.430
22.3826 8.525
22.3978 8.695
22.4130 8.593
22.4281 8.442
22.4433 8.233
22.4585 8.344
22.4737 8.587
22.4888 8.425
22.5040 8.087
22.5192 8.375
22.5344 8.241
22.5495 8.440
22.5647 8.745
22.5799 8.061
22.5951 8.437
22.6102 8.647
22.6254 8.479
22.6406 8.442
22.6558 8.270
22.6709 8.318
22.6861 8.310
22.7013 8.119
22.7165 7.933
22.7316 6.230
