'Id: "" Comment: "" Operator: "Lab Manager" Anode: "Mo" Scantype: "Still (Eiger2R_500K (1D mode))" TimePerStep: "300" X: "11.8" Y: "9.4" Z: "11.284" 
7.2532 19.257
7.2684 19.104
7.2836 18.866
7.2987 19.047
7.3139 19.201
7.3291 19.137
7.3443 19.541
7.3594 18.765
7.3746 19.058
7.3898 19.273
7.4050 19.871
7.4201 19.426
7.4353 19.449
7.4505 19.365
7.4657 18.852
7.4808 19.060
7.4960 19.348
7.5112 19.586
7.5264 19.398
7.5415 19.608
7.5567 19.695
7.5719 19.751
7.5871 19.876
7.6022 19.720
7.6174 20.144
7.6326 20.161
7.6478 19.666
7.6629 20.110
7.6781 20.111
7.6933 20.063
7.7085 19.966
7.7236 20.264
7.7388 20.319
7.7540 20.111
7.7692 20.146
7.7843 20.252
7.7995 20.302
7.8147 20.446
7.8299 20.610
7.8450 20.705
7.8602 20.724
7.8754 20.339
7.8905 20.300
7.9057 20.565
7.9209 20.586
7.9361 20.719
7.9512 20.953
7.9664 21.033
7.9816 20.920
7.9968 20.832
8.0119 20.695
8.0271 21.230
8.0423 21.192
8.0575 21.389
8.0726 21.192
8.0878 21.116
8.1030 21.111
8.1182 21.179
8.1333 20.920
8.1485 21.439
8.1637 21.271
8.1789 21.881
8.1940 21.075
8.2092 21.069
8.2244 21.424
8.2396 20.976
8.2547 21.420
8.2699 21.325
8.2851 21.606
8.3003 21.336
8.3154 21.147
8.3306 21.531
8.3458 21.560
8.3610 21.578
8.3761 21.521
8.3913 22.003
8.4065 21.737
8.4217 22.027
8.4368 22.084
8.4520 22.201
8.4672 21.900
8.4824 22.287
8.4975 22.014
8.5127 22.158
8.5279 21.664
8.5431 21.875
8.5582 22.051
8.5734 22.398
8.5886 22.014
8.6038 22.198
8.6189 21.997
8.6341 22.070
8.6493 21.829
8.6645 21.672
8.6796 22.382
8.6948 21.652
8.7100 21.813
8.7252 22.193
8.7403 22.260
8.7555 22.087
8.7707 22.310
8.7859 22.489
8.8010 22.435
8.8162 22.499
8.8314 22.247
8.8466 23.009
8.8617 22.504
8.8769 22.160
8.8921 22.389
8.9073 22.423
8.9224 22.652
8.9376 22.759
8.9528 22.405
8.9680 22.532
8.9831 22.713
8.9983 22.738
9.0135 22.644
9.0287 22.496
9.0438 22.080
9.0590 22.739
9.0742 22.614
9.0894 22.900
9.1045 22.737
9.1197 22.610
9.1349 22.660
9.1501 22.972
9.1652 22.981
9.1804 22.909
9.1956 23.146
9.2108 22.629
9.2259 22.712
9.2411 22.669
9.2563 22.796
9.2715 22.969
9.2866 22.981
9.3018 22.888
9.3170 23.043
9.3322 22.843
9.3473 23.118
9.3625 22.813
9.3777 23.148
9.3929 22.718
9.4080 23.007
9.4232 23.027
9.4384 22.983
9.4536 23.073
9.4687 23.198
9.4839 23.195
9.4991 22.846
9.5143 23.068
9.5294 23.186
9.5446 23.118
9.5598 23.092
9.5750 23.378
9.5901 23.526
9.6053 23.483
9.6205 23.234
9.6357 23.298
9.6508 23.479
9.6660 23.592
9.6812 23.476
9.6964 23.671
9.7115 23.886
9.7267 24.265
9.7419 24.347
9.7571 24.203
9.7722 23.910
9.7874 23.716
9.8026 23.503
9.8178 23.541
9.8329 23.514
9.8481 23.055
9.8633 23.179
9.8785 23.232
9.8936 23.243
9.9088 23.172
9.9240 23.316
9.9392 22.948
9.9543 22.662
9.9695 23.190
9.9847 23.037
9.9999 22.749
10.0150 22.964
10.0302 22.971
10.0454 23.193
10.0606 23.343
10.0757 23.301
10.0909 23.443
10.1061 23.534
10.1213 23.534
10.1364 23.483
10.1516 23.613
10.1668 23.554
10.1820 23.399
10.1971 23.390
10.2123 22.995
10.2275 23.127
10.2427 23.111
10.2578 23.027
10.2730 23.003
10.2882 22.816
10.3034 22.947
10.3185 23.147
10.3337 22.966
10.3489 22.526
10.3641 22.518
10.3792 22.615
10.3944 22.898
10.4096 22.570
10.4248 22.633
10.4399 22.479
10.4551 22.327
10.4703 22.596
10.4855 22.678
10.5006 22.994
10.5158 22.779
10.5310 22.468
10.5462 22.303
10.5613 21.946
10.5765 22.386
10.5917 22.737
10.6069 22.480
10.6220 22.350
10.6372 22.624
10.6524 22.525
10.6676 22.273
10.6827 22.422
10.6979 22.558
10.7131 22.171
10.7283 22.115
10.7434 22.478
10.7586 22.653
10.7738 22.381
10.7890 22.378
10.8041 22.143
10.8193 22.003
10.8345 22.491
10.8497 22.387
10.8648 22.150
10.8800 22.292
10.8952 22.159
10.9104 22.101
10.9255 21.824
10.9407 22.090
10.9559 22.151
10.9711 21.776
10.9862 21.869
11.0014 22.076
11.0166 21.816
11.0318 21.645
11.0469 21.333
11.0621 21.506
11.0773 21.595
11.0925 21.556
11.1076 21.414
11.1228 21.718
11.1380 21.560
11.1532 21.508
11.1683 21.432
11.1835 21.623
11.1987 21.615
11.2139 21.920
11.2290 21.845
11.2442 21.818
11.2594 21.780
11.2746 21.518
11.2897 21.393
11.3049 21.550
11.3201 21.348
11.3353 21.180
11.3504 21.247
11.3656 21.358
11.3808 21.062
11.3960 21.501
11.4111 21.208
11.4263 21.146
11.4415 20.878
11.4567 20.901
11.4718 20.979
11.4870 21.023
11.5022 21.124
11.5174 20.928
11.5325 20.999
11.5477 20.700
11.5629 20.937
11.5781 20.852
11.5932 20.727
11.6084 20.559
11.6236 20.493
11.6388 20.499
11.6539 20.489
11.6691 20.490
11.6843 20.322
11.6995 20.499
11.7146 20.255
11.7298 20.399
11.7450 20.005
11.7602 20.146
11.7753 20.297
11.7905 20.173
11.8057 19.928
11.8209 19.950
11.8360 19.791
11.8512 19.829
11.8664 19.869
11.8816 19.856
11.8967 19.812
11.9119 19.615
11.9271 19.569
11.9423 19.461
11.9574 19.029
11.9726 19.384
11.9878 19.114
12.0030 18.852
12.0181 19.095
12.0333 19.271
12.0485 19.177
12.0637 19.020
12.0788 18.844
12.0940 18.602
12.1092 18.492
12.1244 18.460
12.1395 18.546
12.1547 18.355
12.1699 17.921
12.1851 18.193
12.2002 18.185
12.2154 18.179
12.2306 18.087
12.2458 17.956
12.2609 17.789
12.2761 17.743
12.2913 17.922
12.3065 17.744
12.3216 17.621
12.3368 17.378
12.3520 17.373
12.3672 17.369
12.3823 17.256
12.3975 16.932
12.4127 16.912
12.4279 16.883
12.4430 16.758
12.4582 16.663
12.4734 16.946
12.4886 16.908
12.5037 16.479
12.5189 16.286
12.5341 16.356
12.5493 16.285
12.5644 16.160
12.5796 16.305
12.5948 16.138
12.6100 15.991
12.6251 15.817
12.6403 15.758
12.6555 15.611
12.6707 15.531
12.6858 15.736
12.7010 15.631
12.7162 15.639
12.7314 15.638
12.7465 15.651
12.7617 15.563
12.7769 15.295
12.7921 15.133
12.8072 14.876
12.8224 15.014
12.8376 15.044
12.8528 15.004
12.8679 14.992
12.8831 14.874
12.8983 14.779
12.9135 14.763
12.9286 14.508
12.9438 14.236
12.9590 14.403
12.9742 14.510
12.9893 14.303
13.0045 14.243
13.0197 14.257
13.0349 14.054
13.0500 14.026
13.0652 14.032
13.0804 13.854
13.0956 13.902
13.1107 13.888
13.1259 13.796
13.1411 13.572
13.1563 13.486
13.1714 13.585
13.1866 13.468
13.2018 13.345
13.2170 13.439
13.2321 13.512
13.2473 13.296
13.2625 13.297
13.2777 13.419
13.2928 13.320
13.3080 13.095
13.3232 12.999
13.3384 13.060
13.3535 12.915
13.3687 12.809
13.3839 12.838
13.3991 12.627
13.4142 12.783
13.4294 13.094
13.4446 13.068
13.4598 12.861
13.4749 12.718
13.4901 12.604
13.5053 12.599
13.5205 12.370
13.5356 12.354
13.5508 12.559
13.5660 12.645
13.5812 12.297
13.5963 12.082
13.6115 12.255
13.6267 12.268
13.6419 12.157
13.6570 12.193
13.6722 12.120
13.6874 12.103
13.7026 11.967
13.7177 11.932
13.7329 11.943
13.7481 12.146
13.7633 12.199
13.7784 12.139
13.7936 12.204
13.8088 12.117
13.8239 12.130
13.8391 12.222
13.8543 12.270
13.8695 12.163
13.8846 12.133
13.8998 11.934
13.9150 11.940
13.9302 11.797
13.9453 11.726
13.9605 11.926
13.9757 11.776
13.9909 11.433
14.0060 11.503
14.0212 11.467
14.0364 11.469
14.0516 11.266
14.0667 11.417
14.0819 11.564
14.0971 11.358
14.1123 11.532
14.1274 11.292
14.1426 11.432
14.1578 11.669
14.1730 11.484
14.1881 11.444
14.2033 11.219
14.2185 11.322
14.2337 11.529
14.2488 11.526
14.2640 11.698
14.2792 11.747
14.2944 11.870
14.3095 11.607
14.3247 12.246
14.3399 12.554
14.3551 12.290
14.3702 12.675
14.3854 12.991
14.4006 13.373
14.4158 13.504
14.4309 13.398
14.4461 13.571
14.4613 12.890
14.4765 12.684
14.4916 12.358
14.5068 12.406
14.5220 11.921
14.5372 11.675
14.5523 11.466
14.5675 11.410
14.5827 11.182
14.5979 10.884
14.6130 10.659
14.6282 10.957
14.6434 10.834
14.6586 10.922
14.6737 10.763
14.6889 10.527
14.7041 10.601
14.7193 10.663
14.7344 10.655
14.7496 10.444
14.7648 10.345
14.7800 10.325
14.7951 10.542
14.8103 10.725
14.8255 10.523
14.8407 10.632
14.8558 10.378
14.8710 10.712
14.8862 10.367
14.9014 10.692
14.9165 10.365
14.9317 10.679
14.9469 10.354
14.9621 10.438
14.9772 10.171
14.9924 9.880
15.0076 10.356
15.0228 10.118
15.0379 10.455
15.0531 10.358
15.0683 10.209
15.0835 10.109
15.0986 10.172
15.1138 9.957
15.1290 10.309
15.1442 10.357
15.1593 10.205
15.1745 10.276
15.1897 10.083
15.2049 10.215
15.2200 10.087
15.2352 10.249
15.2504 10.188
15.2656 10.270
15.2807 10.284
15.2959 10.273
15.3111 9.878
15.3263 9.968
15.3414 10.006
15.3566 10.002
15.3718 9.879
15.3870 10.125
15.4021 10.032
15.4173 10.045
15.4325 10.039
15.4477 10.066
15.4628 10.237
15.4780 9.986
15.4932 9.867
15.5084 10.327
15.5235 10.068
15.5387 9.937
15.5539 9.881
15.5691 10.083
15.5842 9.869
15.5994 9.964
15.6146 9.884
15.6298 9.883
15.6449 10.117
15.6601 9.487
15.6753 9.568
15.6905 9.628
15.7056 9.868
15.7208 9.400
15.7360 9.343
15.7512 9.497
15.7663 9.800
15.7815 9.882
15.7967 9.693
15.8119 9.592
15.8270 9.741
15.8422 9.958
15.8574 9.931
15.8726 9.597
15.8877 9.317
15.9029 9.467
15.9181 9.525
15.9333 9.575
15.9484 9.799
15.9636 9.655
15.9788 9.419
15.9940 9.464
16.0091 9.719
16.0243 9.599
16.0395 9.674
16.0547 9.355
16.0698 9.393
16.0850 9.594
16.1002 9.693
16.1154 9.559
16.1305 9.610
16.1457 9.513
16.1609 9.519
16.1761 9.493
16.1912 9.396
16.2064 9.683
16.2216 9.728
16.2368 9.721
16.2519 9.508
16.2671 9.523
16.2823 9.735
16.2975 9.780
16.3126 9.927
16.3278 10.004
16.3430 9.931
16.3582 9.826
16.3733 10.008
16.3885 9.984
16.4037 9.929
16.4189 9.743
16.4340 9.912
16.4492 9.924
16.4644 9.707
16.4796 9.743
16.4947 9.477
16.5099 9.651
16.5251 9.714
16.5403 9.670
16.5554 9.659
16.5706 9.594
16.5858 9.512
16.6010 9.383
16.6161 9.378
16.6313 9.566
16.6465 9.504
16.6617 9.646
16.6768 9.728
16.6920 9.778
16.7072 9.704
16.7224 9.689
16.7375 9.756
16.7527 9.817
16.7679 9.722
16.7831 9.622
16.7982 9.699
16.8134 9.828
16.8286 9.692
16.8438 9.556
16.8589 9.588
16.8741 9.556
16.8893 9.710
16.9045 9.948
16.9196 9.852
16.9348 9.927
16.9500 10.029
16.9652 9.896
16.9803 9.986
16.9955 10.006
17.0107 9.792
17.0259 9.634
17.0410 9.736
17.0562 9.943
17.0714 10.096
17.0866 10.167
17.1017 10.405
17.1169 10.525
17.1321 10.738
17.1473 11.042
17.1624 11.269
17.1776 12.075
17.1928 12.962
17.2080 13.733
17.2231 14.967
17.2383 16.071
17.2535 17.224
17.2687 18.374
17.2838 18.580
17.2990 17.822
17.3142 16.736
17.3294 16.167
17.3445 16.002
17.3597 15.859
17.3749 15.699
17.3901 15.014
17.4052 14.053
17.4204 13.181
17.4356 12.404
17.4508 11.960
17.4659 11.691
17.4811 11.509
17.4963 11.209
17.5115 11.050
17.5266 10.822
17.5418 10.528
17.5570 10.740
17.5722 10.833
17.5873 10.885
17.6025 11.074
17.6177 11.189
17.6329 11.270
17.6480 11.378
17.6632 11.548
17.6784 11.813
17.6936 11.967
17.7087 11.971
17.7239 11.876
17.7391 11.789
17.7543 11.675
17.7694 11.502
17.7846 11.571
17.7998 11.286
17.8150 10.956
17.8301 10.842
17.8453 10.637
17.8605 10.404
17.8757 10.341
17.8908 10.270
17.9060 10.239
17.9212 10.278
17.9364 10.157
17.9515 10.029
17.9667 10.002
17.9819 9.935
17.9971 10.050
18.0122 10.251
18.0274 10.338
18.0426 10.203
18.0578 10.209
18.0729 10.252
18.0881 9.973
18.1033 9.805
18.1185 9.810
18.1336 9.860
18.1488 9.882
18.1640 9.935
18.1792 10.028
18.1943 9.935
18.2095 9.536
18.2247 9.681
18.2399 10.068
18.2550 9.891
18.2702 9.783
18.2854 9.810
18.3006 9.802
18.3157 9.896
18.3309 10.117
18.3461 9.911
18.3613 9.887
18.3764 9.907
18.3916 9.851
18.4068 9.883
18.4220 9.765
18.4371 9.778
18.4523 9.806
18.4675 9.683
18.4827 9.670
18.4978 9.782
18.5130 9.885
18.5282 9.795
18.5434 9.699
18.5585 9.460
18.5737 9.585
18.5889 9.857
18.6041 9.845
18.6192 9.753
18.6344 9.828
18.6496 9.827
18.6648 9.627
18.6799 9.713
18.6951 9.933
18.7103 9.888
18.7255 9.782
18.7406 9.849
18.7558 9.935
18.7710 9.838
18.7862 9.921
18.8013 9.953
18.8165 9.746
18.8317 9.670
18.8469 9.835
18.8620 9.922
18.8772 9.966
18.8924 9.935
18.9076 9.937
18.9227 9.811
18.9379 9.828
18.9531 9.809
18.9683 9.785
18.9834 9.988
18.9986 10.032
19.0138 10.137
19.0290 9.978
19.0441 10.163
19.0593 10.448
19.0745 10.347
19.0897 10.120
19.1048 10.111
19.1200 10.171
19.1352 10.178
19.1504 10.292
19.1655 10.397
19.1807 10.513
19.1959 10.543
19.2111 10.532
19.2262 10.646
19.2414 10.655
19.2566 10.675
19.2718 10.788
19.2869 10.711
19.3021 10.809
19.3173 11.043
19.3325 10.914
19.3476 10.823
19.3628 10.904
19.3780 11.016
19.3932 10.983
19.4083 10.885
19.4235 10.918
19.4387 10.925
19.4539 10.938
19.4690 11.061
19.4842 11.134
19.4994 11.367
19.5146 11.421
19.5297 11.432
19.5449 11.303
19.5601 11.374
19.5753 11.665
19.5904 11.762
19.6056 11.687
19.6208 11.613
19.6360 11.632
19.6511 11.540
19.6663 11.640
19.6815 11.658
19.6967 11.603
19.7118 11.653
19.7270 11.861
19.7422 11.893
19.7574 11.707
19.7725 11.709
19.7877 11.773
19.8029 11.823
19.8180 11.933
19.8332 12.048
19.8484 12.079
19.8636 12.248
19.8787 12.414
19.8939 12.868
19.9091 13.227
19.9243 13.348
19.9394 13.515
19.9546 13.838
19.9698 14.250
19.9850 14.605
20.0001 14.526
20.0153 14.024
20.0305 13.728
20.0457 13.669
20.0608 13.430
20.0760 13.584
20.0912 13.631
20.1064 13.350
20.1215 13.277
20.1367 13.199
20.1519 13.010
20.1671 12.816
20.1822 12.912
20.1974 12.928
20.2126 12.608
20.2278 12.692
20.2429 12.601
20.2581 12.353
20.2733 12.270
20.2885 12.041
20.3036 11.858
20.3188 11.608
20.3340 11.839
20.3492 11.915
20.3643 11.786
20.3795 11.774
20.3947 11.685
20.4099 11.636
20.4250 11.789
20.4402 12.336
20.4554 12.201
20.4706 11.993
20.4857 11.904
20.5009 12.245
20.5161 11.841
20.5313 11.784
20.5464 11.508
20.5616 11.431
20.5768 11.327
20.5920 11.458
20.6071 11.583
20.6223 11.195
20.6375 11.099
20.6527 11.095
20.6678 10.932
20.6830 10.853
20.6982 10.667
20.7134 10.526
20.7285 10.655
20.7437 10.659
20.7589 10.444
20.7741 10.315
20.7892 10.308
20.8044 10.277
20.8196 10.157
20.8348 10.215
20.8499 10.269
20.8651 10.090
20.8803 10.074
20.8955 10.238
20.9106 10.023
20.9258 10.218
20.9410 10.152
20.9562 10.199
20.9713 9.927
20.9865 9.838
21.0017 10.156
21.0169 10.018
21.0320 9.838
21.0472 9.772
21.0624 10.039
21.0776 10.299
21.0927 9.894
21.1079 9.855
21.1231 9.783
21.1383 9.733
21.1534 9.701
21.1686 9.582
21.1838 9.449
21.1990 9.786
21.2141 9.781
21.2293 9.825
21.2445 9.887
21.2597 9.697
21.2748 9.529
21.2900 9.398
21.3052 9.670
21.3204 9.940
21.3355 9.647
21.3507 9.402
21.3659 9.525
21.3811 9.491
21.3962 9.456
21.4114 9.585
21.4266 9.328
21.4418 9.515
21.4569 9.405
21.4721 9.393
21.4873 9.306
21.5025 9.580
21.5176 9.638
21.5328 9.495
21.5480 9.359
21.5632 9.344
21.5783 9.279
21.5935 9.339
21.6087 9.150
21.6239 9.064
21.6390 9.225
21.6542 9.061
21.6694 9.176
21.6846 9.179
21.6997 9.290
21.7149 9.087
21.7301 8.910
21.7453 8.803
21.7604 8.850
21.7756 9.006
21.7908 8.911
21.8060 8.965
21.8211 9.048
21.8363 9.108
21.8515 9.170
21.8667 9.200
21.8818 9.028
21.8970 9.050
21.9122 8.976
21.9274 8.926
21.9425 9.003
21.9577 8.805
21.9729 8.647
21.9881 8.918
22.0032 8.941
22.0184 8.688
22.0336 8.688
22.0488 8.896
22.0639 8.763
22.0791 8.628
22.0943 8.572
22.1095 8.729
22.1246 8.658
22.1398 8.396
22.1550 8.812
22.1702 8.811
22.1853 8.471
22.2005 8.876
22.2157 8.742
22.2309 8.399
22.2460 8.519
22.2612 8.758
22.2764 8.742
22.2916 8.508
22.3067 8.331
22.3219 8.422
22.3371 8.309
22.3523 8.432
22.3674 8.538
22.3826 8.296
22.3978 8.309
22.4130 8.410
22.4281 8.577
22.4433 8.518
22.4585 8.383
22.4737 8.538
22.4888 8.504
22.5040 8.212
22.5192 8.447
22.5344 8.386
22.5495 8.272
22.5647 8.359
22.5799 8.521
22.5951 8.319
22.6102 8.720
22.6254 8.266
22.6406 8.273
22.6558 8.537
22.6709 8.213
22.6861 8.513
22.7013 8.245
22.7165 7.644
22.7316 6.338
