'Id: "" Comment: "" Operator: "Lab Manager" Anode: "Mo" Scantype: "Still (Eiger2R_500K (1D mode))" TimePerStep: "300" X: "11.8" Y: "9.4" Z: "11.284" 
7.2532 18.787
7.2684 18.519
7.2836 18.544
7.2987 19.026
7.3139 19.253
7.3291 18.683
7.3443 19.030
7.3594 19.096
7.3746 18.976
7.3898 18.707
7.4050 18.924
7.4201 19.494
7.4353 19.223
7.4505 19.234
7.4657 19.057
7.4808 19.455
7.4960 19.520
7.5112 19.383
7.5264 19.392
7.5415 19.839
7.5567 19.563
7.5719 19.426
7.5871 19.743
7.6022 20.290
7.6174 20.115
7.6326 19.807
7.6478 19.691
7.6629 19.929
7.6781 20.182
7.6933 20.262
7.7085 20.494
7.7236 20.568
7.7388 20.237
7.7540 20.083
7.7692 20.338
7.7843 20.436
7.7995 20.471
7.8147 20.448
7.8299 20.342
7.8450 20.509
7.8602 20.614
7.8754 20.643
7.8905 20.590
7.9057 20.946
7.9209 20.906
7.9361 20.706
7.9512 20.991
7.9664 21.212
7.9816 21.045
7.9968 20.901
8.0119 21.031
8.0271 20.735
8.0423 20.807
8.0575 21.066
8.0726 20.679
8.0878 20.721
8.1030 20.814
8.1182 21.421
8.1333 21.552
8.1485 21.334
8.1637 21.513
8.1789 21.564
8.1940 21.295
8.2092 21.272
8.2244 21.440
8.2396 21.731
8.2547 21.122
8.2699 20.833
8.2851 21.151
8.3003 21.512
8.3154 21.641
8.3306 21.520
8.3458 21.364
8.3610 21.390
8.3761 22.058
8.3913 21.458
8.4065 21.718
8.4217 21.678
8.4368 21.907
8.4520 21.427
8.4672 21.824
8.4824 21.842
8.4975 22.062
8.5127 21.699
8.5279 21.479
8.5431 21.465
8.5582 21.849
8.5734 21.938
8.5886 22.077
8.6038 22.146
8.6189 22.181
8.6341 22.288
8.6493 22.149
8.6645 21.904
8.6796 22.106
8.6948 22.284
8.7100 22.194
8.7252 22.408
8.7403 22.057
8.7555 21.964
8.7707 22.243
8.7859 21.970
8.8010 22.068
8.8162 22.428
8.8314 22.519
8.8466 22.110
8.8617 22.707
8.8769 22.273
8.8921 22.493
8.9073 22.271
8.9224 22.375
8.9376 22.747
8.9528 22.628
8.9680 22.550
8.9831 22.365
8.9983 22.713
9.0135 22.783
9.0287 22.653
9.0438 22.537
9.0590 22.596
9.0742 22.976
9.0894 22.828
9.1045 22.633
9.1197 22.465
9.1349 22.606
9.1501 22.526
9.1652 22.572
9.1804 22.591
9.1956 22.768
9.2108 23.036
9.2259 22.889
9.2411 22.779
9.2563 22.909
9.2715 23.343
9.2866 22.533
9.3018 22.757
9.3170 22.864
9.3322 22.950
9.3473 23.003
9.3625 22.907
9.3777 22.844
9.3929 22.808
9.4080 23.194
9.4232 23.045
9.4384 23.068
9.4536 23.139
9.4687 23.008
9.4839 23.002
9.4991 23.065
9.5143 23.216
9.5294 23.284
9.5446 23.192
9.5598 23.190
9.5750 23.015
9.5901 22.876
9.6053 22.847
9.6205 23.089
9.6357 23.190
9.6508 23.136
9.6660 23.319
9.6812 23.377
9.6964 23.425
9.7115 23.700
9.7267 23.995
9.7419 24.084
9.7571 23.986
9.7722 23.661
9.7874 23.688
9.8026 24.039
9.8178 23.646
9.8329 22.911
9.8481 22.912
9.8633 22.960
9.8785 23.218
9.8936 23.332
9.9088 23.156
9.9240 23.190
9.9392 23.304
9.9543 23.320
9.9695 23.309
9.9847 23.292
9.9999 23.092
10.0150 23.034
10.0302 22.969
10.0454 22.882
10.0606 23.065
10.0757 23.155
10.0909 23.207
10.1061 23.403
10.1213 23.505
10.1364 23.252
10.1516 23.401
10.1668 23.410
10.1820 23.072
10.1971 23.258
10.2123 23.251
10.2275 22.961
10.2427 22.800
10.2578 22.732
10.2730 22.806
10.2882 22.791
10.3034 22.829
10.3185 22.922
10.3337 22.963
10.3489 22.588
10.3641 22.795
10.3792 22.879
10.3944 22.826
10.4096 22.658
10.4248 22.548
10.4399 22.326
10.4551 22.457
10.4703 22.452
10.4855 22.428
10.5006 22.537
10.5158 22.253
10.5310 22.581
10.5462 22.592
10.5613 22.450
10.5765 22.466
10.5917 22.461
10.6069 22.599
10.6220 22.513
10.6372 22.374
10.6524 22.451
10.6676 22.732
10.6827 22.645
10.6979 22.671
10.7131 22.444
10.7283 22.472
10.7434 22.467
10.7586 22.376
10.7738 22.302
10.7890 22.230
10.8041 22.309
10.8193 22.194
10.8345 22.323
10.8497 22.334
10.8648 22.053
10.8800 22.175
10.8952 22.119
10.9104 21.920
10.9255 22.178
10.9407 22.013
10.9559 21.788
10.9711 21.829
10.9862 22.091
11.0014 22.070
11.0166 22.135
11.0318 22.373
11.0469 22.083
11.0621 22.047
11.0773 21.801
11.0925 21.622
11.1076 21.565
11.1228 21.459
11.1380 21.785
11.1532 21.888
11.1683 22.094
11.1835 21.777
11.1987 21.422
11.2139 21.322
11.2290 21.204
11.2442 21.090
11.2594 21.522
11.2746 21.577
11.2897 21.501
11.3049 21.438
11.3201 21.390
11.3353 21.434
11.3504 21.326
11.3656 21.388
11.3808 21.529
11.3960 21.277
11.4111 21.294
11.4263 21.471
11.4415 21.738
11.4567 21.224
11.4718 21.061
11.4870 21.101
11.5022 20.966
11.5174 20.650
11.5325 21.045
11.5477 20.809
11.5629 20.946
11.5781 21.119
11.5932 20.809
11.6084 20.629
11.6236 20.637
11.6388 20.986
11.6539 20.787
11.6691 20.510
11.6843 20.365
11.6995 20.179
11.7146 20.252
11.7298 20.088
11.7450 20.445
11.7602 20.484
11.7753 20.160
11.7905 20.306
11.8057 20.191
11.8209 19.992
11.8360 19.749
11.8512 20.073
11.8664 20.145
11.8816 19.687
11.8967 19.474
11.9119 19.386
11.9271 19.451
11.9423 19.335
11.9574 19.014
11.9726 19.358
11.9878 19.203
12.0030 19.168
12.0181 19.148
12.0333 18.989
12.0485 18.850
12.0637 18.740
12.0788 18.753
12.0940 18.663
12.1092 18.896
12.1244 18.797
12.1395 18.544
12.1547 18.288
12.1699 18.126
12.1851 18.185
12.2002 18.333
12.2154 18.575
12.2306 18.587
12.2458 18.119
12.2609 18.012
12.2761 17.847
12.2913 17.761
12.3065 17.454
12.3216 17.692
12.3368 17.569
12.3520 17.410
12.3672 17.340
12.3823 17.250
12.3975 17.079
12.4127 17.126
12.4279 17.103
12.4430 16.921
12.4582 16.688
12.4734 16.772
12.4886 16.897
12.5037 16.739
12.5189 16.284
12.5341 16.268
12.5493 16.447
12.5644 16.244
12.5796 16.300
12.5948 16.202
12.6100 16.149
12.6251 16.093
12.6403 15.883
12.6555 15.758
12.6707 15.783
12.6858 15.885
12.7010 15.975
12.7162 15.831
12.7314 15.494
12.7465 15.400
12.7617 15.409
12.7769 15.299
12.7921 15.145
12.8072 15.025
12.8224 14.904
12.8376 14.835
12.8528 14.884
12.8679 14.590
12.8831 14.599
12.8983 14.719
12.9135 14.525
12.9286 14.488
12.9438 14.221
12.9590 14.215
12.9742 14.460
12.9893 14.468
13.0045 14.436
13.0197 14.136
13.0349 14.042
13.0500 13.993
13.0652 13.540
13.0804 13.689
13.0956 14.051
13.1107 14.017
13.1259 13.811
13.1411 13.597
13.1563 13.487
13.1714 13.199
13.1866 13.340
13.2018 13.502
13.2170 13.311
13.2321 13.469
13.2473 13.567
13.2625 13.503
13.2777 13.574
13.2928 13.091
13.3080 12.590
13.3232 12.923
13.3384 13.031
13.3535 13.001
13.3687 12.877
13.3839 12.669
13.3991 12.668
13.4142 12.680
13.4294 12.887
13.4446 12.810
13.4598 12.516
13.4749 12.594
13.4901 12.634
13.5053 12.530
13.5205 12.600
13.5356 12.487
13.5508 12.177
13.5660 12.100
13.5812 12.217
13.5963 12.083
13.6115 12.115
13.6267 12.286
13.6419 12.083
13.6570 11.896
13.6722 11.883
13.6874 11.762
13.7026 11.927
13.7177 11.963
13.7329 12.129
13.7481 12.249
13.7633 11.951
13.7784 11.891
13.7936 12.182
13.8088 11.958
13.8239 12.342
13.8391 12.606
13.8543 12.468
13.8695 12.336
13.8846 12.322
13.8998 12.074
13.9150 11.996
13.9302 11.735
13.9453 11.736
13.9605 11.901
13.9757 11.778
13.9909 11.911
14.0060 11.683
14.0212 11.334
14.0364 11.482
14.0516 11.693
14.0667 11.670
14.0819 11.400
14.0971 11.508
14.1123 11.708
14.1274 11.490
14.1426 11.720
14.1578 11.707
14.1730 11.867
14.1881 11.504
14.2033 11.540
14.2185 11.612
14.2337 11.557
14.2488 11.514
14.2640 11.636
14.2792 11.758
14.2944 11.783
14.3095 12.199
14.3247 12.045
14.3399 12.152
14.3551 12.777
14.3702 12.604
14.3854 12.756
14.4006 12.978
14.4158 12.933
14.4309 12.837
14.4461 13.064
14.4613 12.807
14.4765 12.752
14.4916 12.480
14.5068 12.180
14.5220 11.659
14.5372 11.563
14.5523 11.552
14.5675 11.149
14.5827 10.812
14.5979 11.135
14.6130 10.967
14.6282 11.013
14.6434 10.480
14.6586 10.613
14.6737 10.845
14.6889 10.663
14.7041 10.778
14.7193 10.828
14.7344 10.780
14.7496 10.724
14.7648 10.783
14.7800 10.636
14.7951 10.291
14.8103 10.604
14.8255 10.650
14.8407 10.339
14.8558 10.381
14.8710 10.230
14.8862 10.374
14.9014 10.516
14.9165 10.448
14.9317 10.644
14.9469 10.201
14.9621 10.261
14.9772 10.275
14.9924 10.134
15.0076 10.335
15.0228 10.406
15.0379 9.819
15.0531 10.591
15.0683 10.219
15.0835 10.213
15.0986 10.443
15.1138 10.084
15.1290 10.244
15.1442 10.216
15.1593 10.283
15.1745 10.374
15.1897 10.499
15.2049 9.965
15.2200 10.559
15.2352 10.316
15.2504 9.963
15.2656 10.259
15.2807 10.020
15.2959 10.124
15.3111 9.866
15.3263 10.285
15.3414 10.197
15.3566 10.071
15.3718 9.848
15.3870 10.097
15.4021 10.184
15.4173 10.080
15.4325 9.846
15.4477 10.124
15.4628 9.816
15.4780 9.947
15.4932 10.417
15.5084 9.928
15.5235 9.710
15.5387 9.938
15.5539 9.672
15.5691 9.827
15.5842 9.758
15.5994 9.658
15.6146 9.777
15.6298 9.496
15.6449 9.773
15.6601 9.880
15.6753 9.534
15.6905 9.750
15.7056 9.659
15.7208 9.781
15.7360 9.642
15.7512 9.947
15.7663 9.983
15.7815 9.941
15.7967 9.716
15.8119 9.681
15.8270 9.850
15.8422 9.527
15.8574 9.949
15.8726 9.457
15.8877 9.440
15.9029 9.343
15.9181 9.538
15.9333 9.626
15.9484 9.634
15.9636 9.668
15.9788 9.721
15.9940 9.762
16.0091 9.428
16.0243 9.551
16.0395 9.240
16.0547 9.434
16.0698 9.574
16.0850 9.611
16.1002 9.735
16.1154 9.643
16.1305 9.523
16.1457 9.426
16.1609 9.455
16.1761 9.579
16.1912 9.638
16.2064 9.633
16.2216 9.824
16.2368 9.879
16.2519 9.758
16.2671 9.559
16.2823 9.659
16.2975 9.851
16.3126 9.890
16.3278 9.603
16.3430 9.693
16.3582 9.794
16.3733 9.804
16.3885 9.892
16.4037 9.737
16.4189 9.733
16.4340 9.655
16.4492 9.489
16.4644 9.852
16.4796 9.723
16.4947 9.388
16.5099 9.446
16.5251 9.738
16.5403 9.609
16.5554 9.520
16.5706 9.600
16.5858 9.686
16.6010 9.536
16.6161 9.393
16.6313 9.590
16.6465 9.606
16.6617 9.772
16.6768 9.872
16.6920 9.787
16.7072 9.739
16.7224 9.636
16.7375 9.659
16.7527 9.867
16.7679 9.907
16.7831 9.815
16.7982 9.535
16.8134 9.562
16.8286 9.677
16.8438 9.585
16.8589 9.430
16.8741 9.527
16.8893 9.847
16.9045 9.716
16.9196 9.698
16.9348 9.864
16.9500 9.840
16.9652 9.707
16.9803 9.392
16.9955 9.644
17.0107 9.879
17.0259 9.919
17.0410 9.904
17.0562 9.860
17.0714 10.144
17.0866 10.302
17.1017 10.224
17.1169 10.432
17.1321 10.762
17.1473 11.093
17.1624 11.449
17.1776 12.029
17.1928 12.921
17.2080 13.914
17.2231 15.112
17.2383 16.226
17.2535 17.508
17.2687 18.291
17.2838 18.259
17.2990 17.738
17.3142 16.894
17.3294 16.306
17.3445 15.854
17.3597 15.784
17.3749 15.910
17.3901 15.276
17.4052 14.462
17.4204 13.579
17.4356 12.444
17.4508 11.878
17.4659 11.684
17.4811 11.574
17.4963 11.397
17.5115 11.188
17.5266 11.010
17.5418 10.706
17.5570 10.641
17.5722 10.705
17.5873 10.857
17.6025 11.009
17.6177 11.056
17.6329 11.236
17.6480 11.145
17.6632 11.135
17.6784 11.501
17.6936 11.715
17.7087 11.342
17.7239 11.151
17.7391 11.132
17.7543 11.118
17.7694 11.096
17.7846 10.944
17.7998 11.009
17.8150 11.005
17.8301 10.868
17.8453 10.562
17.8605 10.400
17.8757 10.332
17.8908 10.428
17.9060 10.259
17.9212 10.150
17.9364 10.117
17.9515 10.035
17.9667 10.210
17.9819 10.219
17.9971 9.993
18.0122 9.955
18.0274 9.926
18.0426 9.877
18.0578 10.137
18.0729 10.417
18.0881 10.252
18.1033 9.992
18.1185 9.880
18.1336 9.764
18.1488 9.823
18.1640 9.945
18.1792 9.990
18.1943 10.040
18.2095 10.017
18.2247 10.008
18.2399 9.864
18.2550 9.813
18.2702 9.628
18.2854 9.574
18.3006 9.767
18.3157 9.854
18.3309 9.830
18.3461 9.780
18.3613 9.647
18.3764 9.587
18.3916 9.756
18.4068 10.016
18.4220 9.979
18.4371 9.664
18.4523 9.688
18.4675 9.753
18.4827 9.680
18.4978 9.804
18.5130 9.834
18.5282 9.589
18.5434 9.482
18.5585 9.952
18.5737 10.111
18.5889 9.746
18.6041 9.549
18.6192 9.590
18.6344 9.756
18.6496 9.701
18.6648 9.594
18.6799 9.567
18.6951 9.722
18.7103 9.921
18.7255 9.853
18.7406 9.761
18.7558 9.893
18.7710 9.980
18.7862 9.797
18.8013 9.516
18.8165 9.530
18.8317 9.669
18.8469 9.891
18.8620 9.875
18.8772 9.793
18.8924 9.607
18.9076 9.788
18.9227 9.787
18.9379 9.789
18.9531 9.972
18.9683 9.976
18.9834 10.026
18.9986 10.043
19.0138 10.138
19.0290 10.023
19.0441 10.223
19.0593 10.527
19.0745 10.376
19.0897 10.248
19.1048 10.539
19.1200 10.628
19.1352 10.512
19.1504 10.395
19.1655 10.460
19.1807 10.565
19.1959 10.652
19.2111 10.747
19.2262 10.743
19.2414 10.714
19.2566 11.008
19.2718 11.072
19.2869 10.977
19.3021 10.930
19.3173 11.033
19.3325 11.059
19.3476 11.266
19.3628 11.231
19.3780 11.002
19.3932 11.029
19.4083 10.976
19.4235 11.000
19.4387 11.118
19.4539 11.217
19.4690 11.363
19.4842 11.476
19.4994 11.443
19.5146 11.434
19.5297 11.646
19.5449 11.768
19.5601 11.689
19.5753 11.779
19.5904 11.659
19.6056 11.656
19.6208 11.782
19.6360 11.816
19.6511 11.899
19.6663 11.727
19.6815 11.743
19.6967 11.754
19.7118 11.499
19.7270 11.563
19.7422 11.701
19.7574 11.814
19.7725 11.852
19.7877 11.830
19.8029 12.039
19.8180 12.283
19.8332 12.305
19.8484 12.190
19.8636 12.183
19.8787 12.528
19.8939 12.736
19.9091 12.954
19.9243 13.506
19.9394 13.910
19.9546 14.181
19.9698 14.572
19.9850 14.683
20.0001 14.635
20.0153 14.346
20.0305 14.034
20.0457 13.822
20.0608 13.700
20.0760 13.903
20.0912 13.839
20.1064 13.447
20.1215 13.363
20.1367 13.533
20.1519 13.203
20.1671 12.850
20.1822 12.659
20.1974 12.635
20.2126 12.748
20.2278 12.721
20.2429 12.777
20.2581 12.517
20.2733 12.258
20.2885 12.166
20.3036 12.207
20.3188 12.031
20.3340 12.147
20.3492 11.993
20.3643 11.795
20.3795 11.927
20.3947 12.013
20.4099 11.899
20.4250 11.785
20.4402 11.844
20.4554 11.855
20.4706 12.127
20.4857 11.916
20.5009 11.798
20.5161 11.582
20.5313 11.835
20.5464 11.805
20.5616 11.660
20.5768 11.329
20.5920 11.309
20.6071 11.376
20.6223 11.268
20.6375 11.289
20.6527 11.109
20.6678 11.003
20.6830 10.728
20.6982 10.721
20.7134 10.822
20.7285 10.924
20.7437 10.736
20.7589 10.262
20.7741 10.339
20.7892 10.430
20.8044 10.557
20.8196 10.389
20.8348 10.463
20.8499 10.321
20.8651 10.233
20.8803 10.295
20.8955 10.236
20.9106 10.509
20.9258 10.496
20.9410 10.497
20.9562 10.211
20.9713 10.396
20.9865 10.184
21.0017 9.978
21.0169 10.104
21.0320 9.844
21.0472 10.107
21.0624 9.870
21.0776 9.835
21.0927 10.320
21.1079 10.235
21.1231 10.030
21.1383 9.754
21.1534 9.772
21.1686 10.104
21.1838 10.067
21.1990 9.754
21.2141 9.641
21.2293 9.860
21.2445 9.578
21.2597 9.800
21.2748 9.576
21.2900 9.475
21.3052 9.719
21.3204 9.353
21.3355 9.920
21.3507 9.519
21.3659 9.534
21.3811 9.740
21.3962 9.704
21.4114 9.487
21.4266 9.291
21.4418 9.510
21.4569 9.389
21.4721 9.523
21.4873 9.494
21.5025 9.533
21.5176 9.457
21.5328 9.328
21.5480 9.308
21.5632 9.475
21.5783 9.462
21.5935 9.230
21.6087 9.406
21.6239 9.330
21.6390 9.144
21.6542 9.247
21.6694 9.299
21.6846 9.061
21.6997 9.019
21.7149 8.958
21.7301 9.091
21.7453 9.362
21.7604 9.000
21.7756 8.970
21.7908 9.199
21.8060 9.135
21.8211 9.124
21.8363 9.077
21.8515 9.224
21.8667 9.214
21.8818 9.283
21.8970 9.022
21.9122 9.066
21.9274 8.970
21.9425 8.846
21.9577 8.937
21.9729 8.940
21.9881 8.894
22.0032 8.873
22.0184 8.767
22.0336 8.781
22.0488 8.744
22.0639 8.659
22.0791 8.620
22.0943 8.413
22.1095 8.439
22.1246 8.470
22.1398 8.527
22.1550 8.489
22.1702 8.568
22.1853 8.564
22.2005 8.432
22.2157 8.445
22.2309 8.366
22.2460 8.474
22.2612 8.591
22.2764 8.571
22.2916 8.527
22.3067 8.252
22.3219 8.460
22.3371 8.468
22.3523 8.646
22.3674 8.464
22.3826 8.177
22.3978 8.198
22.4130 8.491
22.4281 8.529
22.4433 8.293
22.4585 8.303
22.4737 8.569
22.4888 8.306
22.5040 8.263
22.5192 8.546
22.5344 8.709
22.5495 8.360
22.5647 8.583
22.5799 8.373
22.5951 8.559
22.6102 8.477
22.6254 8.292
22.6406 8.479
22.6558 8.563
22.6709 8.324
22.6861 8.205
22.7013 8.060
22.7165 7.851
22.7316 6.357
