'Id: "" Comment: "" Operator: "Lab Manager" Anode: "Mo" Scantype: "Still (Eiger2R_500K (1D mode))" TimePerStep: "300" X: "11.8" Y: "9.4" Z: "11.284" 
7.2532 19.113
7.2684 19.034
7.2836 19.477
7.2987 19.430
7.3139 19.267
7.3291 19.500
7.3443 19.313
7.3594 19.543
7.3746 19.425
7.3898 19.783
7.4050 19.265
7.4201 19.507
7.4353 19.466
7.4505 19.383
7.4657 19.641
7.4808 19.308
7.4960 19.573
7.5112 19.533
7.5264 19.595
7.5415 19.979
7.5567 20.040
7.5719 19.714
7.5871 19.955
7.6022 20.190
7.6174 20.349
7.6326 20.232
7.6478 20.265
7.6629 20.359
7.6781 20.176
7.6933 20.378
7.7085 20.409
7.7236 20.584
7.7388 20.306
7.7540 20.393
7.7692 20.830
7.7843 20.529
7.7995 20.441
7.8147 20.440
7.8299 20.384
7.8450 20.724
7.8602 20.526
7.8754 20.841
7.8905 21.143
7.9057 20.941
7.9209 20.707
7.9361 20.773
7.9512 20.641
7.9664 21.154
7.9816 21.251
7.9968 21.370
8.0119 20.984
8.0271 20.699
8.0423 21.002
8.0575 21.314
8.0726 21.278
8.0878 21.460
8.1030 21.598
8.1182 21.555
8.1333 21.811
8.1485 21.566
8.1637 21.775
8.1789 21.404
8.1940 21.446
8.2092 21.643
8.2244 21.553
8.2396 21.690
8.2547 21.431
8.2699 21.610
8.2851 21.941
8.3003 21.698
8.3154 21.764
8.3306 21.959
8.3458 21.869
8.3610 21.153
8.3761 21.653
8.3913 22.036
8.4065 21.479
8.4217 21.871
8.4368 22.006
8.4520 21.715
8.4672 21.972
8.4824 22.330
8.4975 21.859
8.5127 22.218
8.5279 22.209
8.5431 21.889
8.5582 21.984
8.5734 22.049
8.5886 22.424
8.6038 22.512
8.6189 22.094
8.6341 22.179
8.6493 21.920
8.6645 22.243
8.6796 22.294
8.6948 22.041
8.7100 22.431
8.7252 22.761
8.7403 22.484
8.7555 22.323
8.7707 22.416
8.7859 22.645
8.8010 22.279
8.8162 22.517
8.8314 22.769
8.8466 22.831
8.8617 22.947
8.8769 22.822
8.8921 22.847
8.9073 22.400
8.9224 22.835
8.9376 22.542
8.9528 22.630
8.9680 22.945
8.9831 22.773
8.9983 22.932
9.0135 22.683
9.0287 22.686
9.0438 23.000
9.0590 22.828
9.0742 22.602
9.0894 22.778
9.1045 22.706
9.1197 23.070
9.1349 23.133
9.1501 23.173
9.1652 23.214
9.1804 22.944
9.1956 22.712
9.2108 22.619
9.2259 22.641
9.2411 23.068
9.2563 22.798
9.2715 23.133
9.2866 23.167
9.3018 22.786
9.3170 22.552
9.3322 23.021
9.3473 23.005
9.3625 23.028
9.3777 23.312
9.3929 23.388
9.4080 23.132
9.4232 23.162
9.4384 23.214
9.4536 22.782
9.4687 22.921
9.4839 22.983
9.4991 23.153
9.5143 22.981
9.5294 23.195
9.5446 23.081
9.5598 23.013
9.5750 23.235
9.5901 23.215
9.6053 22.952
9.6205 23.097
9.6357 23.007
9.6508 23.237
9.6660 23.697
9.6812 24.146
9.6964 23.973
9.7115 23.682
9.7267 24.232
9.7419 24.326
9.7571 24.096
9.7722 24.145
9.7874 24.559
9.8026 24.436
9.8178 23.900
9.8329 23.975
9.8481 23.934
9.8633 23.803
9.8785 23.799
9.8936 23.677
9.9088 23.588
9.9240 24.078
9.9392 24.134
9.9543 23.685
9.9695 23.593
9.9847 23.492
9.9999 23.330
10.0150 23.332
10.0302 23.311
10.0454 23.049
10.0606 23.111
10.0757 23.286
10.0909 23.225
10.1061 23.366
10.1213 23.529
10.1364 23.073
10.1516 22.744
10.1668 23.233
10.1820 23.234
10.1971 23.078
10.2123 23.264
10.2275 23.275
10.2427 23.124
10.2578 22.745
10.2730 22.799
10.2882 22.861
10.3034 22.916
10.3185 22.783
10.3337 22.706
10.3489 22.914
10.3641 22.884
10.3792 22.835
10.3944 22.849
10.4096 22.826
10.4248 22.872
10.4399 22.975
10.4551 22.905
10.4703 23.027
10.4855 23.046
10.5006 23.114
10.5158 22.875
10.5310 22.416
10.5462 22.598
10.5613 22.809
10.5765 22.770
10.5917 22.827
10.6069 22.592
10.6220 22.432
10.6372 22.441
10.6524 22.498
10.6676 22.806
10.6827 22.795
10.6979 23.008
10.7131 22.518
10.7283 22.191
10.7434 22.443
10.7586 22.435
10.7738 22.399
10.7890 22.623
10.8041 22.444
10.8193 22.401
10.8345 22.136
10.8497 22.003
10.8648 22.310
10.8800 22.016
10.8952 21.916
10.9104 22.088
10.9255 22.325
10.9407 22.241
10.9559 22.273
10.9711 21.985
10.9862 22.222
11.0014 22.393
11.0166 22.280
11.0318 22.179
11.0469 21.645
11.0621 21.582
11.0773 21.695
11.0925 21.929
11.1076 21.801
11.1228 21.458
11.1380 21.495
11.1532 21.868
11.1683 21.778
11.1835 22.173
11.1987 21.769
11.2139 21.689
11.2290 21.663
11.2442 21.940
11.2594 22.020
11.2746 21.917
11.2897 21.542
11.3049 21.295
11.3201 21.424
11.3353 21.556
11.3504 21.438
11.3656 21.471
11.3808 21.283
11.3960 21.176
11.4111 21.251
11.4263 21.731
11.4415 21.371
11.4567 21.454
11.4718 21.630
11.4870 21.813
11.5022 21.574
11.5174 21.134
11.5325 21.406
11.5477 21.802
11.5629 21.524
11.5781 20.976
11.5932 21.268
11.6084 21.005
11.6236 20.632
11.6388 20.886
11.6539 20.982
11.6691 21.300
11.6843 20.752
11.6995 20.255
11.7146 20.525
11.7298 20.591
11.7450 20.623
11.7602 20.761
11.7753 20.718
11.7905 20.443
11.8057 20.452
11.8209 20.197
11.8360 20.145
11.8512 20.173
11.8664 19.710
11.8816 19.706
11.8967 19.751
11.9119 19.908
11.9271 19.881
11.9423 19.728
11.9574 19.688
11.9726 19.599
11.9878 19.092
12.0030 19.163
12.0181 19.333
12.0333 18.876
12.0485 18.987
12.0637 19.069
12.0788 19.010
12.0940 18.760
12.1092 18.759
12.1244 18.832
12.1395 18.638
12.1547 18.630
12.1699 18.353
12.1851 18.272
12.2002 18.256
12.2154 18.356
12.2306 18.109
12.2458 18.055
12.2609 17.946
12.2761 17.893
12.2913 17.975
12.3065 17.678
12.3216 17.521
12.3368 17.718
12.3520 17.658
12.3672 17.322
12.3823 17.295
12.3975 16.972
12.4127 16.833
12.4279 16.830
12.4430 16.998
12.4582 16.983
12.4734 16.873
12.4886 16.923
12.5037 16.779
12.5189 16.676
12.5341 16.519
12.5493 16.431
12.5644 16.522
12.5796 16.339
12.5948 16.043
12.6100 16.257
12.6251 16.391
12.6403 16.460
12.6555 15.962
12.6707 15.816
12.6858 15.756
12.7010 15.897
12.7162 15.829
12.7314 15.532
12.7465 15.406
12.7617 15.359
12.7769 15.429
12.7921 15.335
12.8072 15.005
12.8224 15.063
12.8376 15.228
12.8528 15.336
12.8679 15.214
12.8831 14.891
12.8983 14.735
12.9135 14.575
12.9286 14.683
12.9438 14.479
12.9590 14.252
12.9742 14.318
12.9893 14.351
13.0045 14.398
13.0197 14.216
13.0349 14.052
13.0500 14.066
13.0652 14.075
13.0804 14.064
13.0956 13.879
13.1107 13.612
13.1259 13.529
13.1411 13.630
13.1563 13.687
13.1714 13.692
13.1866 13.774
13.2018 13.720
13.2170 13.451
13.2321 13.364
13.2473 13.382
13.2625 13.135
13.2777 13.208
13.2928 13.323
13.3080 13.327
13.3232 13.414
13.3384 13.277
13.3535 13.323
13.3687 13.222
13.3839 13.214
13.3991 13.151
13.4142 12.954
13.4294 13.043
13.4446 12.896
13.4598 12.886
13.4749 12.807
13.4901 12.519
13.5053 12.517
13.5205 12.583
13.5356 12.627
13.5508 12.795
13.5660 12.679
13.5812 12.383
13.5963 12.305
13.6115 12.189
13.6267 12.126
13.6419 12.186
13.6570 12.013
13.6722 12.374
13.6874 12.200
13.7026 12.080
13.7177 12.390
13.7329 12.269
13.7481 12.118
13.7633 12.086
13.7784 12.275
13.7936 12.547
13.8088 12.225
13.8239 12.102
13.8391 12.219
13.8543 12.555
13.8695 12.241
13.8846 12.096
13.8998 12.254
13.9150 12.447
13.9302 12.176
13.9453 12.038
13.9605 11.746
13.9757 11.483
13.9909 11.611
14.0060 11.552
14.0212 11.430
14.0364 11.647
14.0516 11.603
14.0667 11.526
14.0819 11.651
14.0971 11.570
14.1123 11.492
14.1274 11.515
14.1426 11.467
14.1578 11.336
14.1730 11.191
14.1881 11.228
14.2033 11.361
14.2185 11.630
14.2337 11.730
14.2488 11.359
14.2640 11.400
14.2792 11.551
14.2944 11.690
14.3095 11.603
14.3247 11.738
14.3399 12.037
14.3551 12.050
14.3702 12.311
14.3854 12.819
14.4006 12.874
14.4158 12.983
14.4309 13.039
14.4461 12.819
14.4613 12.667
14.4765 12.645
14.4916 12.405
14.5068 12.438
14.5220 11.916
14.5372 11.642
14.5523 11.523
14.5675 11.348
14.5827 11.261
14.5979 11.193
14.6130 11.210
14.6282 11.001
14.6434 11.227
14.6586 11.118
14.6737 11.171
14.6889 11.224
14.7041 11.310
14.7193 11.017
14.7344 11.390
14.7496 10.848
14.7648 10.922
14.7800 11.038
14.7951 10.767
14.8103 11.216
14.8255 10.628
14.8407 10.630
14.8558 11.019
14.8710 10.958
14.8862 10.672
14.9014 10.813
14.9165 11.175
14.9317 11.209
14.9469 10.727
14.9621 10.683
14.9772 10.449
14.9924 10.705
15.0076 10.619
15.0228 10.475
15.0379 10.503
15.0531 10.405
15.0683 10.392
15.0835 10.578
15.0986 10.348
15.1138 10.675
15.1290 10.273
15.1442 10.497
15.1593 10.377
15.1745 10.319
15.1897 10.349
15.2049 10.566
15.2200 10.212
15.2352 10.681
15.2504 10.147
15.2656 10.164
15.2807 10.403
15.2959 10.529
15.3111 10.267
15.3263 10.198
15.3414 10.278
15.3566 10.377
15.3718 10.399
15.3870 10.535
15.4021 10.569
15.4173 10.225
15.4325 10.274
15.4477 10.339
15.4628 10.586
15.4780 10.450
15.4932 10.428
15.5084 10.510
15.5235 10.383
15.5387 10.299
15.5539 10.689
15.5691 10.242
15.5842 10.378
15.5994 10.372
15.6146 10.017
15.6298 10.367
15.6449 10.302
15.6601 10.388
15.6753 10.315
15.6905 10.052
15.7056 9.840
15.7208 10.162
15.7360 9.656
15.7512 9.711
15.7663 9.994
15.7815 9.747
15.7967 10.097
15.8119 9.868
15.8270 9.893
15.8422 10.051
15.8574 9.697
15.8726 9.732
15.8877 9.753
15.9029 9.655
15.9181 9.656
15.9333 9.883
15.9484 9.973
15.9636 10.239
15.9788 9.725
15.9940 9.916
16.0091 9.886
16.0243 9.825
16.0395 9.757
16.0547 9.855
16.0698 9.651
16.0850 9.683
16.1002 9.780
16.1154 9.788
16.1305 9.713
16.1457 9.834
16.1609 9.884
16.1761 9.800
16.1912 9.776
16.2064 9.626
16.2216 9.902
16.2368 9.940
16.2519 9.816
16.2671 10.021
16.2823 10.022
16.2975 9.952
16.3126 9.947
16.3278 10.002
16.3430 9.950
16.3582 10.267
16.3733 10.151
16.3885 10.140
16.4037 9.919
16.4189 10.034
16.4340 10.003
16.4492 9.856
16.4644 9.830
16.4796 10.188
16.4947 10.032
16.5099 9.917
16.5251 9.866
16.5403 9.852
16.5554 9.994
16.5706 9.747
16.5858 9.716
16.6010 9.905
16.6161 9.821
16.6313 9.936
16.6465 10.071
16.6617 10.080
16.6768 10.133
16.6920 10.176
16.7072 10.189
16.7224 10.110
16.7375 10.078
16.7527 10.270
16.7679 10.275
16.7831 10.140
16.7982 9.940
16.8134 9.878
16.8286 9.920
16.8438 10.190
16.8589 10.178
16.8741 10.051
16.8893 9.968
16.9045 9.876
16.9196 9.905
16.9348 9.873
16.9500 9.899
16.9652 10.037
16.9803 10.228
16.9955 10.275
17.0107 9.998
17.0259 10.032
17.0410 10.072
17.0562 10.099
17.0714 10.471
17.0866 10.565
17.1017 10.653
17.1169 11.130
17.1321 11.318
17.1473 11.687
17.1624 11.983
17.1776 12.353
17.1928 13.072
17.2080 13.914
17.2231 15.129
17.2383 16.515
17.2535 17.734
17.2687 18.403
17.2838 18.641
17.2990 17.960
17.3142 17.034
17.3294 16.451
17.3445 15.918
17.3597 15.837
17.3749 15.867
17.3901 15.360
17.4052 14.128
17.4204 13.049
17.4356 12.547
17.4508 12.016
17.4659 11.557
17.4811 11.282
17.4963 11.265
17.5115 11.108
17.5266 10.850
17.5418 10.886
17.5570 10.675
17.5722 10.497
17.5873 10.344
17.6025 10.341
17.6177 10.363
17.6329 10.186
17.6480 10.249
17.6632 10.318
17.6784 10.197
17.6936 10.297
17.7087 10.503
17.7239 10.520
17.7391 10.573
17.7543 10.419
17.7694 10.556
17.7846 10.961
17.7998 10.866
17.8150 10.934
17.8301 11.271
17.8453 11.116
17.8605 10.749
17.8757 10.995
17.8908 11.062
17.9060 10.905
17.9212 10.936
17.9364 10.680
17.9515 10.540
17.9667 10.643
17.9819 10.809
17.9971 10.565
18.0122 10.365
18.0274 10.345
18.0426 10.390
18.0578 10.406
18.0729 10.063
18.0881 9.873
18.1033 10.009
18.1185 9.881
18.1336 9.926
18.1488 10.021
18.1640 9.968
18.1792 9.974
18.1943 9.841
18.2095 9.726
18.2247 9.767
18.2399 9.810
18.2550 10.032
18.2702 9.986
18.2854 9.909
18.3006 9.821
18.3157 9.824
18.3309 9.887
18.3461 9.990
18.3613 9.846
18.3764 9.794
18.3916 9.782
18.4068 9.800
18.4220 9.750
18.4371 9.570
18.4523 9.710
18.4675 9.829
18.4827 9.934
18.4978 9.951
18.5130 9.803
18.5282 9.785
18.5434 9.732
18.5585 9.789
18.5737 9.723
18.5889 9.654
18.6041 9.794
18.6192 9.833
18.6344 9.774
18.6496 9.844
18.6648 9.644
18.6799 9.867
18.6951 9.897
18.7103 9.796
18.7255 9.751
18.7406 9.972
18.7558 10.081
18.7710 9.848
18.7862 9.798
18.8013 9.821
18.8165 9.699
18.8317 9.763
18.8469 10.027
18.8620 10.188
18.8772 10.368
18.8924 10.176
18.9076 10.099
18.9227 10.086
18.9379 10.104
18.9531 9.813
18.9683 9.883
18.9834 10.078
18.9986 10.133
19.0138 10.208
19.0290 10.050
19.0441 10.196
19.0593 10.326
19.0745 10.224
19.0897 10.285
19.1048 10.401
19.1200 10.615
19.1352 10.524
19.1504 10.543
19.1655 10.516
19.1807 10.645
19.1959 10.535
19.2111 10.643
19.2262 10.943
19.2414 11.076
19.2566 11.004
19.2718 10.884
19.2869 10.764
19.3021 10.947
19.3173 11.070
19.3325 11.203
19.3476 11.194
19.3628 11.305
19.3780 11.348
19.3932 11.176
19.4083 11.267
19.4235 11.456
19.4387 11.506
19.4539 11.440
19.4690 11.432
19.4842 11.481
19.4994 11.283
19.5146 11.638
19.5297 11.703
19.5449 11.495
19.5601 11.307
19.5753 11.332
19.5904 11.686
19.6056 11.736
19.6208 11.687
19.6360 11.762
19.6511 11.672
19.6663 11.502
19.6815 11.613
19.6967 11.827
19.7118 11.875
19.7270 11.747
19.7422 11.857
19.7574 11.980
19.7725 12.082
19.7877 12.220
19.8029 12.194
19.8180 12.043
19.8332 12.126
19.8484 12.346
19.8636 12.433
19.8787 12.637
19.8939 12.840
19.9091 13.180
19.9243 13.470
19.9394 13.867
19.9546 14.223
19.9698 14.501
19.9850 14.623
20.0001 14.539
20.0153 14.505
20.0305 14.389
20.0457 14.074
20.0608 13.928
20.0760 13.937
20.0912 13.811
20.1064 13.582
20.1215 13.316
20.1367 13.288
20.1519 13.127
20.1671 13.019
20.1822 12.897
20.1974 12.908
20.2126 12.695
20.2278 12.466
20.2429 12.260
20.2581 12.065
20.2733 12.102
20.2885 11.873
20.3036 11.524
20.3188 11.336
20.3340 11.603
20.3492 11.746
20.3643 11.390
20.3795 11.216
20.3947 11.159
20.4099 11.033
20.4250 11.115
20.4402 11.096
20.4554 11.001
20.4706 10.832
20.4857 10.921
20.5009 10.818
20.5161 10.856
20.5313 10.638
20.5464 10.865
20.5616 10.945
20.5768 10.938
20.5920 10.789
20.6071 10.602
20.6223 10.775
20.6375 10.671
20.6527 10.724
20.6678 10.651
20.6830 10.342
20.6982 10.359
20.7134 10.461
20.7285 10.835
20.7437 10.432
20.7589 10.522
20.7741 10.044
20.7892 10.362
20.8044 10.407
20.8196 10.552
20.8348 10.430
20.8499 10.309
20.8651 10.390
20.8803 10.230
20.8955 10.444
20.9106 10.168
20.9258 10.251
20.9410 10.305
20.9562 10.750
20.9713 10.530
20.9865 10.630
21.0017 10.364
21.0169 10.414
21.0320 10.229
21.0472 10.397
21.0624 10.046
21.0776 10.487
21.0927 10.138
21.1079 10.011
21.1231 10.305
21.1383 9.933
21.1534 10.148
21.1686 10.055
21.1838 9.836
21.1990 9.950
21.2141 10.101
21.2293 9.471
21.2445 9.799
21.2597 9.627
21.2748 9.760
21.2900 9.609
21.3052 9.711
21.3204 9.442
21.3355 9.719
21.3507 9.822
21.3659 9.481
21.3811 9.681
21.3962 9.816
21.4114 9.420
21.4266 9.391
21.4418 9.825
21.4569 9.410
21.4721 9.410
21.4873 9.376
21.5025 9.262
21.5176 9.321
21.5328 9.127
21.5480 9.213
21.5632 9.200
21.5783 9.395
21.5935 9.269
21.6087 9.226
21.6239 9.287
21.6390 9.232
21.6542 9.374
21.6694 9.105
21.6846 9.155
21.6997 9.227
21.7149 9.061
21.7301 9.027
21.7453 9.123
21.7604 9.016
21.7756 9.101
21.7908 8.928
21.8060 8.878
21.8211 9.013
21.8363 9.161
21.8515 9.040
21.8667 8.799
21.8818 8.863
21.8970 9.082
21.9122 9.224
21.9274 9.065
21.9425 8.980
21.9577 8.876
21.9729 8.874
21.9881 8.850
22.0032 8.724
22.0184 8.924
22.0336 8.859
22.0488 8.536
22.0639 8.667
22.0791 8.790
22.0943 8.789
22.1095 8.882
22.1246 8.803
22.1398 8.755
22.1550 8.734
22.1702 8.753
22.1853 8.686
22.2005 8.792
22.2157 8.976
22.2309 8.849
22.2460 8.650
22.2612 8.588
22.2764 8.709
22.2916 8.900
22.3067 8.823
22.3219 8.634
22.3371 8.403
22.3523 8.442
22.3674 8.373
22.3826 8.477
22.3978 8.471
22.4130 8.455
22.4281 8.668
22.4433 8.513
22.4585 8.555
22.4737 8.601
22.4888 8.476
22.5040 8.554
22.5192 8.482
22.5344 8.474
22.5495 8.547
22.5647 8.137
22.5799 8.315
22.5951 8.290
22.6102 8.310
22.6254 8.550
22.6406 8.669
22.6558 8.612
22.6709 8.292
22.6861 8.370
22.7013 8.147
22.7165 8.157
22.7316 6.568
