'Id: "" Comment: "" Operator: "Lab Manager" Anode: "Mo" Scantype: "Still (Eiger2R_500K (1D mode))" TimePerStep: "300" X: "11.8" Y: "9.4" Z: "11.284" 
7.2532 18.808
7.2684 18.965
7.2836 19.449
7.2987 18.801
7.3139 18.630
7.3291 18.818
7.3443 19.198
7.3594 19.324
7.3746 19.132
7.3898 19.486
7.4050 19.025
7.4201 19.059
7.4353 19.327
7.4505 19.241
7.4657 19.519
7.4808 19.522
7.4960 19.741
7.5112 19.636
7.5264 19.527
7.5415 19.609
7.5567 19.177
7.5719 19.387
7.5871 19.671
7.6022 19.758
7.6174 19.724
7.6326 19.963
7.6478 19.972
7.6629 20.177
7.6781 19.909
7.6933 19.814
7.7085 20.277
7.7236 20.311
7.7388 20.126
7.7540 19.879
7.7692 20.022
7.7843 20.092
7.7995 20.063
7.8147 20.152
7.8299 20.478
7.8450 20.527
7.8602 20.597
7.8754 20.537
7.8905 20.434
7.9057 20.198
7.9209 20.038
7.9361 20.444
7.9512 20.828
7.9664 20.996
7.9816 20.932
7.9968 20.932
8.0119 20.943
8.0271 21.114
8.0423 21.034
8.0575 21.237
8.0726 20.925
8.0878 20.921
8.1030 21.002
8.1182 21.125
8.1333 21.119
8.1485 21.473
8.1637 21.500
8.1789 21.144
8.1940 21.204
8.2092 21.004
8.2244 21.557
8.2396 21.433
8.2547 21.728
8.2699 21.474
8.2851 21.618
8.3003 21.801
8.3154 21.612
8.3306 21.731
8.3458 21.415
8.3610 21.748
8.3761 21.672
8.3913 21.414
8.4065 21.759
8.4217 22.009
8.4368 21.899
8.4520 21.691
8.4672 21.816
8.4824 22.169
8.4975 21.646
8.5127 21.223
8.5279 22.143
8.5431 22.017
8.5582 21.974
8.5734 21.956
8.5886 21.892
8.6038 22.201
8.6189 21.510
8.6341 22.018
8.6493 22.167
8.6645 22.114
8.6796 22.062
8.6948 21.925
8.7100 22.624
8.7252 22.459
8.7403 22.766
8.7555 22.153
8.7707 22.226
8.7859 21.959
8.8010 22.397
8.8162 22.320
8.8314 22.500
8.8466 22.421
8.8617 22.423
8.8769 22.420
8.8921 21.974
8.9073 22.225
8.9224 22.391
8.9376 22.636
8.9528 22.378
8.9680 22.702
8.9831 22.060
8.9983 22.631
9.0135 22.365
9.0287 22.423
9.0438 22.729
9.0590 22.724
9.0742 22.338
9.0894 22.282
9.1045 22.415
9.1197 22.554
9.1349 22.953
9.1501 22.662
9.1652 22.860
9.1804 22.502
9.1956 23.224
9.2108 22.956
9.2259 22.583
9.2411 22.399
9.2563 22.566
9.2715 22.587
9.2866 22.814
9.3018 22.979
9.3170 23.049
9.3322 22.888
9.3473 22.515
9.3625 22.901
9.3777 23.196
9.3929 23.032
9.4080 22.972
9.4232 22.898
9.4384 22.791
9.4536 22.850
9.4687 22.633
9.4839 22.614
9.4991 22.833
9.5143 22.990
9.5294 22.896
9.5446 23.052
9.5598 23.224
9.5750 22.693
9.5901 22.709
9.6053 23.057
9.6205 23.404
9.6357 23.303
9.6508 23.106
9.6660 23.264
9.6812 23.489
9.6964 23.758
9.7115 23.728
9.7267 23.679
9.7419 23.842
9.7571 23.893
9.7722 23.926
9.7874 23.652
9.8026 23.351
9.8178 23.424
9.8329 23.507
9.8481 23.515
9.8633 23.236
9.8785 23.355
9.8936 23.332
9.9088 22.885
9.9240 23.212
9.9392 23.506
9.9543 23.219
9.9695 22.907
9.9847 22.737
9.9999 22.789
10.0150 23.244
10.0302 23.460
10.0454 22.972
10.0606 22.789
10.0757 23.203
10.0909 23.292
10.1061 23.110
10.1213 23.390
10.1364 23.259
10.1516 23.222
10.1668 23.452
10.1820 23.488
10.1971 23.293
10.2123 22.939
10.2275 22.766
10.2427 22.836
10.2578 22.870
10.2730 22.915
10.2882 22.965
10.3034 22.813
10.3185 22.625
10.3337 22.804
10.3489 22.714
10.3641 22.476
10.3792 22.690
10.3944 22.768
10.4096 22.564
10.4248 22.622
10.4399 22.592
10.4551 22.597
10.4703 22.383
10.4855 22.227
10.5006 22.615
10.5158 22.526
10.5310 22.480
10.5462 22.785
10.5613 22.623
10.5765 22.399
10.5917 22.227
10.6069 22.396
10.6220 22.598
10.6372 22.150
10.6524 22.127
10.6676 22.394
10.6827 22.371
10.6979 22.281
10.7131 22.407
10.7283 22.317
10.7434 22.311
10.7586 22.416
10.7738 21.932
10.7890 22.152
10.8041 22.255
10.8193 22.318
10.8345 22.134
10.8497 22.124
10.8648 21.945
10.8800 21.868
10.8952 21.925
10.9104 22.137
10.9255 21.862
10.9407 21.565
10.9559 21.776
10.9711 21.917
10.9862 21.814
11.0014 21.873
11.0166 21.853
11.0318 21.839
11.0469 22.073
11.0621 21.722
11.0773 21.891
11.0925 21.537
11.1076 21.736
11.1228 21.706
11.1380 22.017
11.1532 21.873
11.1683 21.662
11.1835 21.413
11.1987 21.227
11.2139 21.350
11.2290 21.770
11.2442 21.558
11.2594 21.355
11.2746 21.171
11.2897 21.437
11.3049 21.263
11.3201 21.266
11.3353 21.598
11.3504 21.131
11.3656 21.024
11.3808 21.502
11.3960 21.242
11.4111 20.866
11.4263 21.181
11.4415 21.526
11.4567 21.478
11.4718 21.525
11.4870 21.468
11.5022 20.982
11.5174 20.740
11.5325 20.757
11.5477 20.823
11.5629 20.630
11.5781 20.713
11.5932 20.818
11.6084 20.915
11.6236 20.954
11.6388 20.806
11.6539 20.496
11.6691 20.537
11.6843 20.507
11.6995 20.543
11.7146 20.406
11.7298 20.593
11.7450 20.297
11.7602 20.260
11.7753 20.236
11.7905 19.793
11.8057 20.132
11.8209 20.130
11.8360 20.081
11.8512 19.584
11.8664 19.372
11.8816 19.434
11.8967 19.363
11.9119 19.215
11.9271 19.238
11.9423 19.451
11.9574 19.440
11.9726 19.426
11.9878 19.672
12.0030 19.454
12.0181 19.288
12.0333 19.161
12.0485 18.896
12.0637 18.637
12.0788 18.708
12.0940 18.900
12.1092 19.000
12.1244 18.520
12.1395 18.604
12.1547 18.406
12.1699 18.262
12.1851 18.485
12.2002 18.432
12.2154 18.245
12.2306 17.954
12.2458 17.933
12.2609 17.861
12.2761 17.734
12.2913 17.530
12.3065 17.723
12.3216 17.635
12.3368 17.284
12.3520 17.121
12.3672 17.267
12.3823 17.497
12.3975 17.486
12.4127 17.042
12.4279 17.122
12.4430 17.072
12.4582 16.615
12.4734 16.659
12.4886 16.841
12.5037 16.782
12.5189 16.427
12.5341 16.298
12.5493 16.206
12.5644 16.387
12.5796 16.433
12.5948 16.106
12.6100 16.094
12.6251 16.074
12.6403 15.992
12.6555 15.854
12.6707 15.779
12.6858 15.759
12.7010 15.645
12.7162 15.570
12.7314 15.392
12.7465 15.520
12.7617 15.353
12.7769 15.226
12.7921 15.203
12.8072 15.124
12.8224 14.874
12.8376 14.744
12.8528 14.763
12.8679 14.664
12.8831 14.739
12.8983 14.544
12.9135 14.545
12.9286 14.827
12.9438 14.483
12.9590 14.146
12.9742 14.019
12.9893 14.077
13.0045 14.337
13.0197 14.399
13.0349 14.120
13.0500 13.917
13.0652 14.072
13.0804 13.978
13.0956 13.821
13.1107 13.622
13.1259 13.487
13.1411 13.551
13.1563 13.498
13.1714 13.524
13.1866 13.545
13.2018 13.436
13.2170 13.406
13.2321 13.495
13.2473 13.290
13.2625 13.168
13.2777 13.078
13.2928 13.037
13.3080 13.244
13.3232 12.986
13.3384 12.711
13.3535 12.704
13.3687 12.850
13.3839 13.124
13.3991 13.090
13.4142 12.774
13.4294 12.823
13.4446 12.819
13.4598 12.680
13.4749 12.717
13.4901 12.634
13.5053 12.553
13.5205 12.325
13.5356 12.150
13.5508 12.031
13.5660 12.363
13.5812 12.594
13.5963 12.351
13.6115 12.087
13.6267 11.909
13.6419 12.053
13.6570 12.093
13.6722 12.094
13.6874 12.067
13.7026 11.929
13.7177 11.927
13.7329 12.195
13.7481 12.311
13.7633 12.235
13.7784 12.093
13.7936 12.129
13.8088 12.155
13.8239 12.090
13.8391 12.179
13.8543 12.351
13.8695 12.361
13.8846 12.167
13.8998 12.191
13.9150 12.042
13.9302 11.987
13.9453 12.124
13.9605 12.133
13.9757 11.974
13.9909 11.807
14.0060 11.750
14.0212 11.772
14.0364 11.670
14.0516 11.584
14.0667 11.597
14.0819 11.637
14.0971 11.847
14.1123 11.735
14.1274 11.656
14.1426 11.511
14.1578 12.001
14.1730 12.035
14.1881 11.901
14.2033 11.733
14.2185 11.714
14.2337 11.745
14.2488 11.947
14.2640 11.996
14.2792 11.670
14.2944 11.950
14.3095 12.185
14.3247 12.198
14.3399 12.068
14.3551 12.182
14.3702 12.779
14.3854 12.887
14.4006 12.882
14.4158 13.223
14.4309 13.130
14.4461 12.798
14.4613 12.704
14.4765 12.573
14.4916 12.262
14.5068 12.056
14.5220 11.706
14.5372 11.395
14.5523 11.429
14.5675 11.367
14.5827 11.577
14.5979 10.983
14.6130 10.987
14.6282 10.388
14.6434 10.443
14.6586 10.939
14.6737 10.784
14.6889 10.842
14.7041 10.791
14.7193 10.550
14.7344 10.494
14.7496 10.620
14.7648 10.328
14.7800 10.543
14.7951 10.644
14.8103 10.709
14.8255 10.082
14.8407 10.246
14.8558 10.694
14.8710 10.597
14.8862 10.564
14.9014 10.204
14.9165 10.701
14.9317 10.653
14.9469 10.222
14.9621 10.673
14.9772 10.251
14.9924 10.246
15.0076 10.427
15.0228 10.439
15.0379 10.401
15.0531 10.343
15.0683 10.114
15.0835 10.270
15.0986 10.131
15.1138 10.022
15.1290 10.149
15.1442 10.399
15.1593 9.937
15.1745 10.341
15.1897 10.040
15.2049 10.057
15.2200 10.041
15.2352 10.240
15.2504 10.015
15.2656 9.811
15.2807 9.896
15.2959 10.244
15.3111 10.085
15.3263 9.996
15.3414 10.132
15.3566 10.093
15.3718 10.229
15.3870 10.253
15.4021 10.045
15.4173 10.214
15.4325 10.081
15.4477 10.065
15.4628 10.162
15.4780 10.303
15.4932 10.143
15.5084 10.037
15.5235 10.177
15.5387 9.958
15.5539 10.084
15.5691 10.145
15.5842 9.769
15.5994 10.009
15.6146 9.584
15.6298 9.698
15.6449 10.179
15.6601 9.720
15.6753 9.997
15.6905 9.751
15.7056 9.957
15.7208 9.559
15.7360 9.921
15.7512 9.448
15.7663 9.532
15.7815 9.526
15.7967 9.683
15.8119 9.582
15.8270 9.731
15.8422 9.665
15.8574 10.150
15.8726 9.845
15.8877 9.311
15.9029 9.441
15.9181 9.416
15.9333 9.665
15.9484 9.519
15.9636 9.695
15.9788 9.685
15.9940 9.688
16.0091 9.542
16.0243 9.838
16.0395 9.619
16.0547 9.662
16.0698 9.658
16.0850 9.508
16.1002 9.404
16.1154 9.577
16.1305 9.439
16.1457 9.510
16.1609 9.413
16.1761 9.753
16.1912 9.681
16.2064 9.692
16.2216 9.612
16.2368 9.738
16.2519 9.557
16.2671 9.774
16.2823 9.833
16.2975 9.694
16.3126 9.442
16.3278 9.771
16.3430 9.853
16.3582 9.753
16.3733 9.773
16.3885 9.779
16.4037 9.835
16.4189 9.863
16.4340 10.019
16.4492 9.583
16.4644 9.486
16.4796 9.755
16.4947 9.785
16.5099 9.841
16.5251 9.868
16.5403 9.956
16.5554 9.819
16.5706 9.432
16.5858 9.748
16.6010 9.763
16.6161 9.731
16.6313 9.724
16.6465 9.840
16.6617 9.962
16.6768 9.826
16.6920 9.676
16.7072 9.709
16.7224 9.850
16.7375 9.871
16.7527 10.062
16.7679 10.075
16.7831 9.758
16.7982 9.713
16.8134 9.765
16.8286 9.839
16.8438 9.753
16.8589 9.794
16.8741 9.826
16.8893 9.692
16.9045 9.755
16.9196 9.757
16.9348 9.600
16.9500 9.607
16.9652 9.875
16.9803 9.682
16.9955 9.648
17.0107 9.738
17.0259 9.908
17.0410 10.152
17.0562 10.042
17.0714 10.106
17.0866 10.105
17.1017 10.458
17.1169 10.761
17.1321 10.960
17.1473 11.321
17.1624 11.576
17.1776 12.223
17.1928 13.071
17.2080 13.889
17.2231 15.064
17.2383 16.100
17.2535 17.256
17.2687 18.517
17.2838 18.814
17.2990 17.996
17.3142 16.745
17.3294 16.305
17.3445 16.396
17.3597 16.241
17.3749 15.895
17.3901 15.208
17.4052 14.260
17.4204 13.516
17.4356 12.994
17.4508 12.428
17.4659 11.787
17.4811 11.482
17.4963 11.519
17.5115 11.473
17.5266 11.307
17.5418 11.037
17.5570 10.927
17.5722 10.858
17.5873 10.796
17.6025 11.032
17.6177 11.365
17.6329 11.424
17.6480 11.371
17.6632 11.339
17.6784 11.499
17.6936 11.535
17.7087 11.389
17.7239 11.305
17.7391 11.191
17.7543 11.058
17.7694 10.882
17.7846 10.978
17.7998 10.863
17.8150 10.620
17.8301 10.544
17.8453 10.287
17.8605 9.991
17.8757 10.036
17.8908 10.179
17.9060 10.337
17.9212 10.315
17.9364 10.051
17.9515 9.854
17.9667 9.952
17.9819 9.934
17.9971 10.132
18.0122 10.295
18.0274 10.254
18.0426 10.277
18.0578 10.220
18.0729 10.227
18.0881 10.220
18.1033 10.129
18.1185 10.124
18.1336 9.874
18.1488 9.837
18.1640 10.066
18.1792 9.945
18.1943 9.834
18.2095 9.787
18.2247 9.774
18.2399 9.820
18.2550 9.725
18.2702 9.894
18.2854 9.934
18.3006 9.645
18.3157 9.828
18.3309 9.888
18.3461 9.714
18.3613 9.826
18.3764 9.801
18.3916 9.793
18.4068 9.773
18.4220 9.629
18.4371 9.766
18.4523 9.846
18.4675 9.747
18.4827 9.897
18.4978 9.778
18.5130 9.586
18.5282 9.668
18.5434 9.782
18.5585 9.713
18.5737 9.614
18.5889 9.649
18.6041 9.651
18.6192 9.728
18.6344 9.795
18.6496 9.745
18.6648 9.687
18.6799 9.794
18.6951 9.711
18.7103 9.761
18.7255 9.816
18.7406 9.742
18.7558 9.683
18.7710 9.823
18.7862 9.840
18.8013 9.849
18.8165 9.718
18.8317 9.611
18.8469 9.530
18.8620 9.507
18.8772 9.784
18.8924 9.942
18.9076 10.141
18.9227 9.968
18.9379 9.896
18.9531 10.098
18.9683 9.982
18.9834 9.840
18.9986 10.009
19.0138 10.103
19.0290 10.024
19.0441 10.221
19.0593 10.271
19.0745 10.245
19.0897 10.184
19.1048 10.266
19.1200 10.526
19.1352 10.392
19.1504 10.181
19.1655 10.450
19.1807 10.756
19.1959 10.830
19.2111 10.748
19.2262 10.650
19.2414 10.747
19.2566 10.799
19.2718 10.739
19.2869 10.734
19.3021 10.743
19.3173 10.955
19.3325 10.893
19.3476 10.804
19.3628 11.090
19.3780 11.030
19.3932 10.994
19.4083 11.213
19.4235 11.259
19.4387 11.140
19.4539 11.101
19.4690 11.208
19.4842 11.349
19.4994 11.268
19.5146 11.041
19.5297 11.160
19.5449 11.282
19.5601 11.278
19.5753 11.498
19.5904 11.710
19.6056 11.705
19.6208 11.609
19.6360 11.454
19.6511 11.563
19.6663 11.696
19.6815 11.758
19.6967 11.668
19.7118 11.678
19.7270 11.878
19.7422 11.960
19.7574 11.751
19.7725 11.785
19.7877 11.997
19.8029 12.005
19.8180 12.048
19.8332 12.241
19.8484 12.391
19.8636 12.473
19.8787 12.593
19.8939 13.068
19.9091 13.429
19.9243 13.463
19.9394 13.885
19.9546 14.254
19.9698 14.073
19.9850 14.260
20.0001 14.376
20.0153 14.205
20.0305 13.982
20.0457 13.639
20.0608 13.655
20.0760 13.619
20.0912 13.729
20.1064 13.741
20.1215 13.615
20.1367 13.457
20.1519 12.933
20.1671 12.760
20.1822 12.691
20.1974 12.664
20.2126 12.807
20.2278 12.807
20.2429 12.662
20.2581 12.334
20.2733 12.193
20.2885 11.991
20.3036 11.809
20.3188 12.145
20.3340 12.344
20.3492 12.213
20.3643 11.964
20.3795 11.957
20.3947 12.051
20.4099 11.784
20.4250 11.754
20.4402 12.025
20.4554 12.042
20.4706 11.901
20.4857 11.742
20.5009 11.505
20.5161 11.391
20.5313 11.323
20.5464 11.458
20.5616 11.403
20.5768 11.138
20.5920 11.168
20.6071 11.360
20.6223 11.392
20.6375 10.965
20.6527 10.710
20.6678 10.918
20.6830 10.683
20.6982 10.553
20.7134 10.513
20.7285 10.705
20.7437 10.230
20.7589 10.208
20.7741 10.290
20.7892 10.196
20.8044 10.404
20.8196 10.298
20.8348 10.362
20.8499 10.154
20.8651 9.969
20.8803 10.345
20.8955 10.113
20.9106 10.102
20.9258 9.884
20.9410 10.024
20.9562 10.280
20.9713 10.100
20.9865 10.301
21.0017 10.260
21.0169 9.910
21.0320 10.104
21.0472 10.014
21.0624 9.848
21.0776 10.062
21.0927 9.987
21.1079 9.786
21.1231 9.722
21.1383 9.869
21.1534 9.868
21.1686 9.974
21.1838 9.664
21.1990 9.712
21.2141 9.663
21.2293 9.591
21.2445 9.523
21.2597 10.047
21.2748 9.863
21.2900 9.449
21.3052 9.665
21.3204 9.616
21.3355 9.494
21.3507 9.365
21.3659 9.590
21.3811 9.836
21.3962 9.539
21.4114 9.327
21.4266 9.335
21.4418 9.607
21.4569 9.664
21.4721 9.521
21.4873 9.240
21.5025 9.344
21.5176 9.429
21.5328 9.109
21.5480 9.461
21.5632 9.285
21.5783 8.953
21.5935 9.133
21.6087 9.266
21.6239 9.249
21.6390 9.208
21.6542 9.279
21.6694 9.224
21.6846 9.132
21.6997 8.998
21.7149 9.105
21.7301 9.015
21.7453 9.034
21.7604 8.977
21.7756 9.078
21.7908 8.950
21.8060 8.843
21.8211 8.886
21.8363 9.128
21.8515 9.037
21.8667 8.926
21.8818 8.866
21.8970 8.956
21.9122 8.877
21.9274 8.994
21.9425 8.967
21.9577 8.823
21.9729 8.883
21.9881 8.841
22.0032 8.728
22.0184 8.845
22.0336 9.033
22.0488 8.906
22.0639 8.890
22.0791 8.791
22.0943 8.614
22.1095 8.732
22.1246 8.724
22.1398 8.711
22.1550 8.776
22.1702 8.499
22.1853 8.442
22.2005 8.347
22.2157 8.475
22.2309 8.735
22.2460 8.913
22.2612 8.591
22.2764 8.548
22.2916 8.479
22.3067 8.713
22.3219 8.515
22.3371 8.703
22.3523 8.785
22.3674 8.553
22.3826 8.332
22.3978 8.286
22.4130 8.341
22.4281 8.138
22.4433 8.744
22.4585 8.302
22.4737 8.408
22.4888 8.647
22.5040 8.242
22.5192 8.526
22.5344 8.349
22.5495 8.256
22.5647 8.548
22.5799 8.456
22.5951 7.981
22.6102 8.315
22.6254 8.624
22.6406 8.355
22.6558 8.322
22.6709 8.518
22.6861 8.289
22.7013 8.097
22.7165 8.140
22.7316 6.499
