'Id: "" Comment: "" Operator: "Lab Manager" Anode: "Mo" Scantype: "Still (Eiger2R_500K (1D mode))" TimePerStep: "300" X: "11.8" Y: "9.4" Z: "11.284" 
7.2532 18.927
7.2684 18.707
7.2836 19.373
7.2987 18.811
7.3139 18.686
7.3291 19.136
7.3443 19.194
7.3594 19.002
7.3746 19.276
7.3898 19.059
7.4050 19.310
7.4201 19.404
7.4353 19.441
7.4505 19.558
7.4657 19.227
7.4808 19.467
7.4960 19.134
7.5112 19.768
7.5264 20.137
7.5415 19.865
7.5567 19.739
7.5719 19.630
7.5871 19.976
7.6022 20.192
7.6174 20.341
7.6326 20.294
7.6478 19.883
7.6629 20.024
7.6781 20.229
7.6933 20.419
7.7085 20.448
7.7236 20.396
7.7388 20.331
7.7540 20.188
7.7692 20.292
7.7843 20.601
7.7995 20.551
7.8147 20.437
7.8299 20.472
7.8450 20.364
7.8602 20.456
7.8754 20.704
7.8905 20.738
7.9057 20.552
7.9209 20.681
7.9361 20.784
7.9512 21.057
7.9664 20.968
7.9816 20.978
7.9968 20.991
8.0119 21.006
8.0271 21.339
8.0423 21.251
8.0575 21.221
8.0726 20.811
8.0878 21.019
8.1030 20.967
8.1182 21.000
8.1333 20.966
8.1485 21.295
8.1637 20.863
8.1789 21.004
8.1940 21.464
8.2092 21.464
8.2244 21.105
8.2396 21.029
8.2547 21.202
8.2699 21.305
8.2851 21.538
8.3003 21.514
8.3154 21.906
8.3306 21.584
8.3458 21.239
8.3610 21.482
8.3761 21.621
8.3913 21.756
8.4065 21.812
8.4217 22.057
8.4368 21.904
8.4520 21.986
8.4672 21.816
8.4824 22.011
8.4975 21.449
8.5127 21.972
8.5279 21.865
8.5431 22.237
8.5582 22.420
8.5734 21.508
8.5886 22.306
8.6038 22.131
8.6189 22.485
8.6341 22.319
8.6493 21.772
8.6645 22.610
8.6796 22.566
8.6948 22.284
8.7100 22.343
8.7252 22.349
8.7403 22.019
8.7555 21.970
8.7707 22.327
8.7859 22.093
8.8010 22.446
8.8162 22.493
8.8314 22.618
8.8466 22.351
8.8617 22.265
8.8769 22.325
8.8921 22.769
8.9073 23.018
8.9224 22.550
8.9376 22.263
8.9528 22.714
8.9680 22.654
8.9831 22.458
8.9983 22.383
9.0135 22.284
9.0287 22.095
9.0438 22.079
9.0590 22.440
9.0742 22.798
9.0894 23.008
9.1045 22.559
9.1197 22.699
9.1349 22.748
9.1501 22.767
9.1652 22.667
9.1804 22.870
9.1956 23.196
9.2108 22.651
9.2259 22.928
9.2411 23.359
9.2563 22.907
9.2715 23.191
9.2866 22.656
9.3018 22.959
9.3170 22.604
9.3322 22.627
9.3473 22.614
9.3625 22.908
9.3777 23.007
9.3929 23.239
9.4080 23.149
9.4232 23.162
9.4384 23.293
9.4536 23.121
9.4687 23.104
9.4839 23.309
9.4991 23.495
9.5143 23.238
9.5294 23.083
9.5446 23.290
9.5598 23.407
9.5750 23.348
9.5901 23.616
9.6053 23.252
9.6205 23.325
9.6357 23.698
9.6508 23.846
9.6660 23.650
9.6812 23.520
9.6964 23.858
9.7115 24.069
9.7267 23.669
9.7419 23.774
9.7571 24.019
9.7722 23.969
9.7874 23.759
9.8026 23.606
9.8178 23.777
9.8329 23.658
9.8481 23.481
9.8633 23.591
9.8785 23.566
9.8936 23.277
9.9088 23.397
9.9240 23.662
9.9392 23.148
9.9543 23.029
9.9695 23.173
9.9847 23.266
9.9999 23.452
10.0150 23.216
10.0302 22.994
10.0454 23.043
10.0606 23.328
10.0757 23.532
10.0909 23.571
10.1061 23.650
10.1213 23.736
10.1364 23.731
10.1516 23.841
10.1668 23.788
10.1820 23.465
10.1971 23.320
10.2123 23.173
10.2275 23.160
10.2427 23.048
10.2578 22.744
10.2730 22.771
10.2882 22.891
10.3034 23.016
10.3185 23.086
10.3337 22.790
10.3489 22.945
10.3641 22.668
10.3792 22.445
10.3944 22.757
10.4096 22.696
10.4248 22.404
10.4399 22.348
10.4551 22.522
10.4703 22.619
10.4855 22.585
10.5006 22.398
10.5158 22.295
10.5310 22.459
10.5462 22.582
10.5613 22.698
10.5765 22.685
10.5917 22.842
10.6069 22.455
10.6220 22.370
10.6372 22.651
10.6524 22.618
10.6676 22.678
10.6827 22.757
10.6979 22.316
10.7131 22.433
10.7283 22.625
10.7434 22.524
10.7586 22.436
10.7738 22.526
10.7890 22.651
10.8041 22.505
10.8193 22.207
10.8345 22.305
10.8497 22.288
10.8648 22.327
10.8800 21.998
10.8952 22.065
10.9104 22.294
10.9255 21.865
10.9407 21.683
10.9559 21.807
10.9711 22.148
10.9862 22.149
11.0014 21.921
11.0166 21.876
11.0318 21.908
11.0469 22.031
11.0621 22.060
11.0773 22.002
11.0925 21.755
11.1076 21.825
11.1228 21.884
11.1380 22.007
11.1532 22.069
11.1683 22.105
11.1835 21.924
11.1987 21.984
11.2139 21.686
11.2290 21.664
11.2442 21.316
11.2594 21.487
11.2746 21.495
11.2897 21.427
11.3049 21.073
11.3201 21.096
11.3353 21.452
11.3504 21.354
11.3656 21.448
11.3808 21.389
11.3960 21.389
11.4111 21.283
11.4263 21.059
11.4415 20.941
11.4567 21.148
11.4718 21.010
11.4870 21.032
11.5022 20.976
11.5174 20.992
11.5325 20.907
11.5477 20.624
11.5629 20.474
11.5781 20.826
11.5932 20.925
11.6084 20.951
11.6236 20.476
11.6388 20.700
11.6539 20.642
11.6691 20.838
11.6843 20.869
11.6995 20.528
11.7146 20.117
11.7298 20.210
11.7450 20.186
11.7602 19.951
11.7753 19.769
11.7905 19.712
11.8057 19.757
11.8209 20.127
11.8360 20.016
11.8512 19.793
11.8664 19.800
11.8816 19.666
11.8967 19.766
11.9119 19.925
11.9271 19.539
11.9423 19.358
11.9574 19.636
11.9726 19.464
11.9878 19.363
12.0030 19.203
12.0181 18.974
12.0333 19.148
12.0485 18.854
12.0637 19.047
12.0788 18.874
12.0940 18.739
12.1092 19.006
12.1244 18.708
12.1395 18.473
12.1547 18.370
12.1699 18.391
12.1851 18.262
12.2002 18.176
12.2154 18.042
12.2306 18.149
12.2458 17.959
12.2609 18.114
12.2761 17.960
12.2913 18.091
12.3065 18.223
12.3216 17.827
12.3368 17.721
12.3520 17.268
12.3672 17.046
12.3823 17.073
12.3975 17.086
12.4127 16.975
12.4279 17.075
12.4430 17.058
12.4582 16.964
12.4734 16.923
12.4886 16.706
12.5037 16.498
12.5189 16.405
12.5341 16.286
12.5493 16.260
12.5644 16.430
12.5796 16.314
12.5948 16.242
12.6100 16.071
12.6251 15.661
12.6403 15.725
12.6555 15.955
12.6707 15.929
12.6858 15.876
12.7010 15.812
12.7162 15.583
12.7314 15.310
12.7465 15.292
12.7617 15.367
12.7769 15.340
12.7921 15.043
12.8072 14.912
12.8224 15.020
12.8376 14.884
12.8528 14.895
12.8679 14.951
12.8831 14.934
12.8983 14.961
12.9135 14.728
12.9286 14.465
12.9438 14.404
12.9590 14.372
12.9742 14.405
12.9893 14.468
13.0045 14.497
13.0197 14.424
13.0349 14.064
13.0500 14.036
13.0652 13.907
13.0804 13.916
13.0956 13.974
13.1107 13.759
13.1259 13.793
13.1411 13.819
13.1563 13.765
13.1714 13.653
13.1866 13.525
13.2018 13.499
13.2170 13.580
13.2321 13.400
13.2473 13.240
13.2625 13.103
13.2777 12.880
13.2928 13.029
13.3080 13.019
13.3232 12.831
13.3384 13.011
13.3535 13.228
13.3687 13.241
13.3839 13.211
13.3991 13.228
13.4142 13.033
13.4294 12.692
13.4446 12.440
13.4598 12.617
13.4749 13.052
13.4901 12.901
13.5053 12.365
13.5205 12.414
13.5356 12.464
13.5508 12.395
13.5660 12.634
13.5812 12.541
13.5963 12.166
13.6115 12.366
13.6267 12.442
13.6419 12.042
13.6570 11.910
13.6722 12.118
13.6874 12.144
13.7026 12.090
13.7177 11.997
13.7329 12.103
13.7481 11.950
13.7633 11.898
13.7784 12.160
13.7936 12.288
13.8088 12.243
13.8239 12.161
13.8391 12.290
13.8543 12.061
13.8695 11.979
13.8846 12.186
13.8998 12.356
13.9150 12.256
13.9302 12.186
13.9453 12.059
13.9605 11.802
13.9757 11.761
13.9909 11.778
14.0060 11.717
14.0212 11.927
14.0364 11.884
14.0516 11.780
14.0667 11.613
14.0819 11.626
14.0971 11.539
14.1123 11.546
14.1274 11.569
14.1426 11.598
14.1578 11.829
14.1730 11.616
14.1881 11.853
14.2033 11.786
14.2185 11.737
14.2337 12.044
14.2488 11.994
14.2640 11.830
14.2792 12.075
14.2944 12.147
14.3095 11.984
14.3247 12.234
14.3399 12.396
14.3551 12.507
14.3702 12.742
14.3854 13.301
14.4006 13.261
14.4158 13.135
14.4309 12.972
14.4461 12.749
14.4613 12.902
14.4765 12.158
14.4916 12.343
14.5068 12.150
14.5220 11.826
14.5372 11.419
14.5523 11.385
14.5675 11.485
14.5827 10.965
14.5979 10.745
14.6130 11.065
14.6282 11.227
14.6434 10.645
14.6586 10.966
14.6737 10.618
14.6889 10.851
14.7041 10.575
14.7193 10.610
14.7344 10.737
14.7496 10.643
14.7648 10.662
14.7800 10.605
14.7951 10.643
14.8103 10.528
14.8255 10.704
14.8407 10.645
14.8558 10.636
14.8710 10.846
14.8862 10.549
14.9014 10.488
14.9165 10.646
14.9317 10.854
14.9469 10.752
14.9621 10.763
14.9772 10.233
14.9924 10.265
15.0076 10.460
15.0228 10.436
15.0379 10.468
15.0531 10.314
15.0683 10.205
15.0835 10.071
15.0986 10.110
15.1138 10.349
15.1290 9.989
15.1442 10.502
15.1593 9.946
15.1745 9.953
15.1897 10.119
15.2049 10.262
15.2200 10.308
15.2352 9.889
15.2504 10.016
15.2656 10.026
15.2807 10.176
15.2959 10.136
15.3111 10.029
15.3263 10.079
15.3414 10.453
15.3566 10.007
15.3718 10.047
15.3870 10.102
15.4021 10.105
15.4173 10.187
15.4325 10.194
15.4477 10.041
15.4628 10.452
15.4780 10.165
15.4932 9.999
15.5084 9.701
15.5235 10.211
15.5387 10.107
15.5539 10.361
15.5691 9.958
15.5842 9.827
15.5994 9.565
15.6146 9.739
15.6298 9.790
15.6449 9.646
15.6601 9.801
15.6753 9.874
15.6905 9.851
15.7056 9.841
15.7208 9.996
15.7360 9.751
15.7512 9.701
15.7663 9.734
15.7815 9.676
15.7967 9.559
15.8119 9.709
15.8270 10.002
15.8422 9.957
15.8574 9.708
15.8726 9.715
15.8877 9.517
15.9029 9.611
15.9181 9.513
15.9333 9.711
15.9484 9.908
15.9636 9.765
15.9788 9.665
15.9940 9.684
16.0091 9.504
16.0243 9.662
16.0395 9.593
16.0547 9.525
16.0698 9.587
16.0850 9.419
16.1002 9.676
16.1154 9.863
16.1305 9.644
16.1457 9.806
16.1609 9.831
16.1761 9.888
16.1912 9.867
16.2064 9.982
16.2216 9.813
16.2368 9.657
16.2519 9.655
16.2671 9.427
16.2823 9.699
16.2975 9.820
16.3126 9.929
16.3278 9.871
16.3430 9.570
16.3582 10.012
16.3733 10.000
16.3885 9.797
16.4037 9.938
16.4189 9.925
16.4340 9.674
16.4492 9.822
16.4644 9.900
16.4796 9.777
16.4947 9.799
16.5099 9.758
16.5251 9.789
16.5403 9.745
16.5554 9.637
16.5706 9.715
16.5858 9.701
16.6010 9.901
16.6161 9.804
16.6313 9.554
16.6465 9.682
16.6617 9.751
16.6768 9.840
16.6920 9.848
16.7072 10.136
16.7224 10.128
16.7375 9.884
16.7527 9.825
16.7679 9.904
16.7831 10.089
16.7982 9.742
16.8134 9.724
16.8286 9.836
16.8438 9.946
16.8589 9.858
16.8741 9.833
16.8893 9.765
16.9045 9.774
16.9196 9.747
16.9348 9.781
16.9500 9.713
16.9652 9.706
16.9803 9.916
16.9955 9.818
17.0107 9.777
17.0259 9.944
17.0410 10.082
17.0562 10.225
17.0714 10.547
17.0866 10.439
17.1017 10.427
17.1169 10.708
17.1321 10.908
17.1473 11.259
17.1624 11.785
17.1776 12.372
17.1928 13.102
17.2080 13.801
17.2231 14.749
17.2383 16.131
17.2535 17.470
17.2687 18.610
17.2838 18.793
17.2990 17.984
17.3142 16.983
17.3294 16.355
17.3445 16.395
17.3597 16.191
17.3749 15.809
17.3901 15.318
17.4052 14.323
17.4204 13.471
17.4356 12.851
17.4508 12.197
17.4659 11.881
17.4811 11.860
17.4963 11.606
17.5115 11.262
17.5266 11.050
17.5418 11.063
17.5570 11.099
17.5722 10.983
17.5873 10.974
17.6025 11.220
17.6177 11.391
17.6329 11.421
17.6480 11.454
17.6632 11.574
17.6784 11.677
17.6936 11.591
17.7087 11.445
17.7239 11.455
17.7391 11.109
17.7543 10.781
17.7694 10.954
17.7846 10.776
17.7998 10.832
17.8150 10.676
17.8301 10.480
17.8453 10.475
17.8605 10.170
17.8757 10.191
17.8908 10.128
17.9060 10.070
17.9212 10.094
17.9364 9.878
17.9515 9.995
17.9667 10.034
17.9819 9.967
17.9971 10.040
18.0122 10.201
18.0274 10.103
18.0426 10.183
18.0578 10.295
18.0729 10.087
18.0881 10.029
18.1033 9.960
18.1185 9.912
18.1336 9.878
18.1488 9.856
18.1640 10.022
18.1792 9.845
18.1943 9.939
18.2095 9.749
18.2247 9.770
18.2399 9.857
18.2550 9.919
18.2702 10.142
18.2854 9.905
18.3006 9.746
18.3157 9.931
18.3309 10.001
18.3461 9.997
18.3613 9.875
18.3764 9.730
18.3916 9.727
18.4068 9.595
18.4220 9.695
18.4371 9.552
18.4523 9.874
18.4675 10.017
18.4827 9.925
18.4978 10.002
18.5130 9.845
18.5282 9.659
18.5434 9.611
18.5585 9.692
18.5737 9.609
18.5889 9.344
18.6041 9.570
18.6192 9.846
18.6344 9.766
18.6496 9.831
18.6648 9.663
18.6799 9.709
18.6951 9.785
18.7103 9.904
18.7255 9.880
18.7406 9.792
18.7558 9.763
18.7710 9.837
18.7862 10.029
18.8013 9.654
18.8165 9.443
18.8317 9.680
18.8469 9.661
18.8620 9.849
18.8772 9.825
18.8924 9.856
18.9076 9.943
18.9227 9.988
18.9379 10.213
18.9531 10.091
18.9683 9.788
18.9834 9.901
18.9986 9.994
19.0138 10.170
19.0290 10.233
19.0441 10.186
19.0593 10.448
19.0745 10.672
19.0897 10.401
19.1048 10.441
19.1200 10.336
19.1352 10.249
19.1504 10.382
19.1655 10.223
19.1807 10.297
19.1959 10.683
19.2111 10.791
19.2262 10.835
19.2414 10.765
19.2566 10.902
19.2718 10.917
19.2869 10.895
19.3021 10.981
19.3173 11.135
19.3325 11.067
19.3476 11.128
19.3628 11.170
19.3780 11.099
19.3932 11.359
19.4083 11.351
19.4235 11.283
19.4387 11.315
19.4539 11.287
19.4690 11.479
19.4842 11.426
19.4994 11.305
19.5146 11.118
19.5297 11.136
19.5449 11.453
19.5601 11.748
19.5753 11.674
19.5904 11.596
19.6056 11.577
19.6208 11.453
19.6360 11.466
19.6511 11.590
19.6663 11.668
19.6815 11.541
19.6967 11.807
19.7118 11.845
19.7270 11.727
19.7422 11.861
19.7574 11.773
19.7725 11.595
19.7877 11.586
19.8029 11.564
19.8180 11.614
19.8332 11.915
19.8484 12.429
19.8636 12.561
19.8787 12.548
19.8939 12.911
19.9091 13.034
19.9243 13.045
19.9394 13.721
19.9546 14.087
19.9698 14.266
19.9850 14.334
20.0001 14.177
20.0153 14.035
20.0305 13.906
20.0457 13.621
20.0608 13.520
20.0760 13.684
20.0912 13.663
20.1064 13.555
20.1215 13.421
20.1367 13.271
20.1519 12.965
20.1671 12.825
20.1822 12.762
20.1974 12.808
20.2126 12.667
20.2278 12.846
20.2429 12.812
20.2581 12.281
20.2733 12.177
20.2885 12.114
20.3036 11.659
20.3188 11.787
20.3340 12.125
20.3492 12.228
20.3643 12.243
20.3795 12.088
20.3947 11.942
20.4099 12.042
20.4250 11.831
20.4402 11.790
20.4554 12.052
20.4706 12.007
20.4857 11.762
20.5009 11.685
20.5161 11.449
20.5313 11.317
20.5464 11.484
20.5616 11.403
20.5768 11.182
20.5920 11.135
20.6071 11.080
20.6223 10.926
20.6375 10.704
20.6527 10.789
20.6678 10.816
20.6830 10.445
20.6982 10.794
20.7134 10.662
20.7285 10.398
20.7437 10.249
20.7589 10.215
20.7741 10.165
20.7892 10.383
20.8044 10.400
20.8196 10.495
20.8348 10.592
20.8499 10.358
20.8651 10.160
20.8803 10.179
20.8955 10.071
20.9106 10.091
20.9258 9.859
20.9410 9.964
20.9562 10.200
20.9713 10.393
20.9865 10.101
21.0017 9.807
21.0169 10.280
21.0320 10.032
21.0472 9.786
21.0624 9.929
21.0776 9.965
21.0927 10.041
21.1079 9.974
21.1231 10.114
21.1383 9.712
21.1534 9.771
21.1686 9.969
21.1838 9.966
21.1990 10.161
21.2141 9.420
21.2293 10.020
21.2445 9.773
21.2597 9.787
21.2748 9.703
21.2900 9.703
21.3052 9.630
21.3204 9.739
21.3355 9.651
21.3507 9.747
21.3659 9.708
21.3811 9.461
21.3962 9.315
21.4114 9.198
21.4266 9.399
21.4418 9.580
21.4569 9.685
21.4721 9.534
21.4873 9.362
21.5025 9.244
21.5176 9.211
21.5328 9.355
21.5480 9.323
21.5632 9.462
21.5783 9.399
21.5935 9.022
21.6087 8.960
21.6239 9.151
21.6390 9.136
21.6542 9.035
21.6694 9.198
21.6846 9.222
21.6997 9.277
21.7149 9.121
21.7301 8.931
21.7453 8.947
21.7604 9.081
21.7756 9.178
21.7908 9.028
21.8060 8.978
21.8211 9.034
21.8363 9.026
21.8515 9.232
21.8667 9.055
21.8818 9.060
21.8970 9.015
21.9122 8.814
21.9274 8.991
21.9425 9.089
21.9577 8.904
21.9729 8.982
21.9881 9.033
22.0032 8.789
22.0184 8.775
22.0336 8.782
22.0488 8.897
22.0639 8.894
22.0791 8.713
22.0943 8.619
22.1095 8.638
22.1246 8.519
22.1398 8.374
22.1550 8.422
22.1702 8.618
22.1853 8.447
22.2005 8.632
22.2157 8.860
22.2309 8.913
22.2460 8.756
22.2612 8.496
22.2764 8.606
22.2916 8.531
22.3067 8.507
22.3219 8.566
22.3371 8.522
22.3523 8.553
22.3674 8.516
22.3826 8.506
22.3978 8.771
22.4130 8.500
22.4281 8.679
22.4433 8.559
22.4585 8.415
22.4737 8.656
22.4888 8.449
22.5040 8.458
22.5192 8.436
22.5344 8.473
22.5495 8.632
22.5647 8.442
22.5799 8.211
22.5951 8.256
22.6102 8.337
22.6254 8.531
22.6406 8.206
22.6558 8.348
22.6709 8.562
22.6861 8.578
22.7013 8.281
22.7165 7.799
22.7316 6.391
