'Id: "" Comment: "" Operator: "Lab Manager" Anode: "Mo" Scantype: "Still (Eiger2R_500K (1D mode))" TimePerStep: "300" X: "11.8" Y: "9.4" Z: "11.284" 
7.2532 18.847
7.2684 18.785
7.2836 18.770
7.2987 18.828
7.3139 18.803
7.3291 19.234
7.3443 18.892
7.3594 18.888
7.3746 18.914
7.3898 19.445
7.4050 19.222
7.4201 19.782
7.4353 19.707
7.4505 19.579
7.4657 19.383
7.4808 19.454
7.4960 19.736
7.5112 20.084
7.5264 19.978
7.5415 19.695
7.5567 19.672
7.5719 19.788
7.5871 19.638
7.6022 19.872
7.6174 19.927
7.6326 20.140
7.6478 20.149
7.6629 20.051
7.6781 20.426
7.6933 20.457
7.7085 20.481
7.7236 20.448
7.7388 20.297
7.7540 20.578
7.7692 20.495
7.7843 20.656
7.7995 20.712
7.8147 20.753
7.8299 20.864
7.8450 21.017
7.8602 21.121
7.8754 21.325
7.8905 21.049
7.9057 20.950
7.9209 21.408
7.9361 21.375
7.9512 21.183
7.9664 20.998
7.9816 21.065
7.9968 20.977
8.0119 20.994
8.0271 21.287
8.0423 21.403
8.0575 21.567
8.0726 21.612
8.0878 21.612
8.1030 21.454
8.1182 21.438
8.1333 21.520
8.1485 21.228
8.1637 21.475
8.1789 21.691
8.1940 21.525
8.2092 21.690
8.2244 21.688
8.2396 21.495
8.2547 21.513
8.2699 21.792
8.2851 21.489
8.3003 21.537
8.3154 21.680
8.3306 21.607
8.3458 21.878
8.3610 21.823
8.3761 21.602
8.3913 21.825
8.4065 22.092
8.4217 21.774
8.4368 21.799
8.4520 22.336
8.4672 21.808
8.4824 21.782
8.4975 22.337
8.5127 22.078
8.5279 21.779
8.5431 22.323
8.5582 22.376
8.5734 22.368
8.5886 22.934
8.6038 22.332
8.6189 22.152
8.6341 22.182
8.6493 22.589
8.6645 22.222
8.6796 22.638
8.6948 22.287
8.7100 22.378
8.7252 22.966
8.7403 22.875
8.7555 22.955
8.7707 22.844
8.7859 22.754
8.8010 22.764
8.8162 22.593
8.8314 22.627
8.8466 22.799
8.8617 22.782
8.8769 22.658
8.8921 22.839
8.9073 22.800
8.9224 22.329
8.9376 22.809
8.9528 22.894
8.9680 23.258
8.9831 22.508
8.9983 22.554
9.0135 23.090
9.0287 23.203
9.0438 22.512
9.0590 22.608
9.0742 22.600
9.0894 22.891
9.1045 22.928
9.1197 23.084
9.1349 22.962
9.1501 23.005
9.1652 23.345
9.1804 22.995
9.1956 22.701
9.2108 22.974
9.2259 22.979
9.2411 22.831
9.2563 23.084
9.2715 23.200
9.2866 23.184
9.3018 23.041
9.3170 23.191
9.3322 23.352
9.3473 23.287
9.3625 23.199
9.3777 23.015
9.3929 23.240
9.4080 23.116
9.4232 22.909
9.4384 23.207
9.4536 23.236
9.4687 23.530
9.4839 23.446
9.4991 23.180
9.5143 23.131
9.5294 23.420
9.5446 23.528
9.5598 23.476
9.5750 23.401
9.5901 23.361
9.6053 23.565
9.6205 23.671
9.6357 23.610
9.6508 23.562
9.6660 23.860
9.6812 23.848
9.6964 23.699
9.7115 23.777
9.7267 24.168
9.7419 23.999
9.7571 23.694
9.7722 24.016
9.7874 23.829
9.8026 23.798
9.8178 23.913
9.8329 23.471
9.8481 23.048
9.8633 23.277
9.8785 23.529
9.8936 23.667
9.9088 23.628
9.9240 23.531
9.9392 23.118
9.9543 23.374
9.9695 23.619
9.9847 23.508
9.9999 23.916
10.0150 23.796
10.0302 23.538
10.0454 23.500
10.0606 23.606
10.0757 23.627
10.0909 23.902
10.1061 24.186
10.1213 24.012
10.1364 23.665
10.1516 23.799
10.1668 23.798
10.1820 23.652
10.1971 23.816
10.2123 24.076
10.2275 24.255
10.2427 24.094
10.2578 24.042
10.2730 24.063
10.2882 23.608
10.3034 23.168
10.3185 23.031
10.3337 23.065
10.3489 23.249
10.3641 23.088
10.3792 22.586
10.3944 22.931
10.4096 22.871
10.4248 22.779
10.4399 22.687
10.4551 22.636
10.4703 22.638
10.4855 22.940
10.5006 22.829
10.5158 22.755
10.5310 23.021
10.5462 22.873
10.5613 22.861
10.5765 22.767
10.5917 22.818
10.6069 22.620
10.6220 22.386
10.6372 22.781
10.6524 22.552
10.6676 22.742
10.6827 22.709
10.6979 22.097
10.7131 22.215
10.7283 22.672
10.7434 22.614
10.7586 22.416
10.7738 22.286
10.7890 22.137
10.8041 22.291
10.8193 22.507
10.8345 22.452
10.8497 22.346
10.8648 22.210
10.8800 22.301
10.8952 22.362
10.9104 22.212
10.9255 22.222
10.9407 22.253
10.9559 22.322
10.9711 22.165
10.9862 22.293
11.0014 22.473
11.0166 22.306
11.0318 22.069
11.0469 22.268
11.0621 22.236
11.0773 22.296
11.0925 22.136
11.1076 21.977
11.1228 21.803
11.1380 21.701
11.1532 21.782
11.1683 21.708
11.1835 21.902
11.1987 21.882
11.2139 22.020
11.2290 21.848
11.2442 21.755
11.2594 22.010
11.2746 22.055
11.2897 21.934
11.3049 22.192
11.3201 21.969
11.3353 21.516
11.3504 21.667
11.3656 21.712
11.3808 21.423
11.3960 21.310
11.4111 21.321
11.4263 21.338
11.4415 21.333
11.4567 21.166
11.4718 21.317
11.4870 21.362
11.5022 21.196
11.5174 21.159
11.5325 20.891
11.5477 21.082
11.5629 21.001
11.5781 20.571
11.5932 20.689
11.6084 20.884
11.6236 20.499
11.6388 20.630
11.6539 20.482
11.6691 20.121
11.6843 20.453
11.6995 20.840
11.7146 20.587
11.7298 20.332
11.7450 20.112
11.7602 20.134
11.7753 20.302
11.7905 19.918
11.8057 19.655
11.8209 19.798
11.8360 20.005
11.8512 20.032
11.8664 19.984
11.8816 19.818
11.8967 19.825
11.9119 19.509
11.9271 19.283
11.9423 19.259
11.9574 19.389
11.9726 19.638
11.9878 19.377
12.0030 19.282
12.0181 19.584
12.0333 19.394
12.0485 18.774
12.0637 18.849
12.0788 18.737
12.0940 18.341
12.1092 18.480
12.1244 18.617
12.1395 18.621
12.1547 18.531
12.1699 18.248
12.1851 18.280
12.2002 18.280
12.2154 18.240
12.2306 18.205
12.2458 17.852
12.2609 17.828
12.2761 18.036
12.2913 17.947
12.3065 17.830
12.3216 17.749
12.3368 17.617
12.3520 17.496
12.3672 17.356
12.3823 17.654
12.3975 17.416
12.4127 17.090
12.4279 17.002
12.4430 16.983
12.4582 17.070
12.4734 16.588
12.4886 16.639
12.5037 17.023
12.5189 16.753
12.5341 16.751
12.5493 16.546
12.5644 16.252
12.5796 16.250
12.5948 16.245
12.6100 16.312
12.6251 15.913
12.6403 15.638
12.6555 15.657
12.6707 15.686
12.6858 15.833
12.7010 15.583
12.7162 15.138
12.7314 15.433
12.7465 15.622
12.7617 15.451
12.7769 15.252
12.7921 15.142
12.8072 15.212
12.8224 15.278
12.8376 14.981
12.8528 14.953
12.8679 14.878
12.8831 14.717
12.8983 14.431
12.9135 14.609
12.9286 14.896
12.9438 14.796
12.9590 14.764
12.9742 14.759
12.9893 14.595
13.0045 14.215
13.0197 14.206
13.0349 14.279
13.0500 14.132
13.0652 13.967
13.0804 13.778
13.0956 13.878
13.1107 13.658
13.1259 13.534
13.1411 13.630
13.1563 13.472
13.1714 13.518
13.1866 13.605
13.2018 13.576
13.2170 13.262
13.2321 13.414
13.2473 13.559
13.2625 13.458
13.2777 13.701
13.2928 13.315
13.3080 12.933
13.3232 13.027
13.3384 12.937
13.3535 12.941
13.3687 13.036
13.3839 13.004
13.3991 13.038
13.4142 13.102
13.4294 13.155
13.4446 12.904
13.4598 12.849
13.4749 12.767
13.4901 12.597
13.5053 12.559
13.5205 12.464
13.5356 12.425
13.5508 12.362
13.5660 12.342
13.5812 12.436
13.5963 12.326
13.6115 12.289
13.6267 12.145
13.6419 12.047
13.6570 11.923
13.6722 11.784
13.6874 11.948
13.7026 12.036
13.7177 12.033
13.7329 11.894
13.7481 11.683
13.7633 11.783
13.7784 12.333
13.7936 12.232
13.8088 12.125
13.8239 11.984
13.8391 11.844
13.8543 12.068
13.8695 12.359
13.8846 12.171
13.8998 12.124
13.9150 11.974
13.9302 11.822
13.9453 11.800
13.9605 11.720
13.9757 11.663
13.9909 11.497
14.0060 11.722
14.0212 11.756
14.0364 11.786
14.0516 11.545
14.0667 11.553
14.0819 11.510
14.0971 11.377
14.1123 11.468
14.1274 11.592
14.1426 11.487
14.1578 11.442
14.1730 11.533
14.1881 11.542
14.2033 11.617
14.2185 11.774
14.2337 11.854
14.2488 11.944
14.2640 12.026
14.2792 12.006
14.2944 12.358
14.3095 12.474
14.3247 12.563
14.3399 12.778
14.3551 13.029
14.3702 12.832
14.3854 13.038
14.4006 13.139
14.4158 13.237
14.4309 13.110
14.4461 12.878
14.4613 12.996
14.4765 12.938
14.4916 12.504
14.5068 12.864
14.5220 12.392
14.5372 12.374
14.5523 12.104
14.5675 12.035
14.5827 11.603
14.5979 11.879
14.6130 11.646
14.6282 11.595
14.6434 11.263
14.6586 11.447
14.6737 11.325
14.6889 11.287
14.7041 11.124
14.7193 11.031
14.7344 11.012
14.7496 10.948
14.7648 10.918
14.7800 11.159
14.7951 10.982
14.8103 10.829
14.8255 10.819
14.8407 10.995
14.8558 10.684
14.8710 10.640
14.8862 10.649
14.9014 10.535
14.9165 11.220
14.9317 10.949
14.9469 10.673
14.9621 10.603
14.9772 10.129
14.9924 10.181
15.0076 10.411
15.0228 10.299
15.0379 10.698
15.0531 10.378
15.0683 10.626
15.0835 10.586
15.0986 10.438
15.1138 10.277
15.1290 10.593
15.1442 10.418
15.1593 10.609
15.1745 10.659
15.1897 10.654
15.2049 10.016
15.2200 10.698
15.2352 10.211
15.2504 10.530
15.2656 9.978
15.2807 10.296
15.2959 10.270
15.3111 10.582
15.3263 10.234
15.3414 10.583
15.3566 10.807
15.3718 10.182
15.3870 10.468
15.4021 10.352
15.4173 10.651
15.4325 10.801
15.4477 10.621
15.4628 10.453
15.4780 10.657
15.4932 10.112
15.5084 10.411
15.5235 10.526
15.5387 10.220
15.5539 10.432
15.5691 10.514
15.5842 10.216
15.5994 10.024
15.6146 10.203
15.6298 10.129
15.6449 10.318
15.6601 10.046
15.6753 9.813
15.6905 9.844
15.7056 10.192
15.7208 9.823
15.7360 9.813
15.7512 9.742
15.7663 9.810
15.7815 9.808
15.7967 9.920
15.8119 9.829
15.8270 10.041
15.8422 9.749
15.8574 9.840
15.8726 9.715
15.8877 9.665
15.9029 9.877
15.9181 9.840
15.9333 9.810
15.9484 9.880
15.9636 9.870
15.9788 9.894
15.9940 9.923
16.0091 9.905
16.0243 9.873
16.0395 9.721
16.0547 9.405
16.0698 9.560
16.0850 9.683
16.1002 9.785
16.1154 9.687
16.1305 10.070
16.1457 9.903
16.1609 9.706
16.1761 9.804
16.1912 9.567
16.2064 9.701
16.2216 9.913
16.2368 9.760
16.2519 9.701
16.2671 9.653
16.2823 9.843
16.2975 10.026
16.3126 10.171
16.3278 9.967
16.3430 9.708
16.3582 9.689
16.3733 10.098
16.3885 10.130
16.4037 10.166
16.4189 10.103
16.4340 9.688
16.4492 10.053
16.4644 10.016
16.4796 9.952
16.4947 9.758
16.5099 9.591
16.5251 9.576
16.5403 9.812
16.5554 9.996
16.5706 9.723
16.5858 9.714
16.6010 9.595
16.6161 9.586
16.6313 9.762
16.6465 9.708
16.6617 9.864
16.6768 10.044
16.6920 10.009
16.7072 10.135
16.7224 10.087
16.7375 10.098
16.7527 10.052
16.7679 9.977
16.7831 9.946
16.7982 9.806
16.8134 10.028
16.8286 9.997
16.8438 9.752
16.8589 9.720
16.8741 9.848
16.8893 9.810
16.9045 9.678
16.9196 9.588
16.9348 9.653
16.9500 9.721
16.9652 9.823
16.9803 9.920
16.9955 9.910
17.0107 10.020
17.0259 10.135
17.0410 10.084
17.0562 10.121
17.0714 10.170
17.0866 10.307
17.1017 10.587
17.1169 11.052
17.1321 11.288
17.1473 11.365
17.1624 11.859
17.1776 12.356
17.1928 12.791
17.2080 14.013
17.2231 15.367
17.2383 16.485
17.2535 17.547
17.2687 18.429
17.2838 18.910
17.2990 18.218
17.3142 17.000
17.3294 16.374
17.3445 16.172
17.3597 15.827
17.3749 15.799
17.3901 15.430
17.4052 14.414
17.4204 13.418
17.4356 12.533
17.4508 11.890
17.4659 11.651
17.4811 11.710
17.4963 11.581
17.5115 11.473
17.5266 11.291
17.5418 11.256
17.5570 11.271
17.5722 11.234
17.5873 11.532
17.6025 11.793
17.6177 11.808
17.6329 11.667
17.6480 11.327
17.6632 11.001
17.6784 11.124
17.6936 11.315
17.7087 11.110
17.7239 10.827
17.7391 10.868
17.7543 10.925
17.7694 10.712
17.7846 10.781
17.7998 10.689
17.8150 10.879
17.8301 11.111
17.8453 11.116
17.8605 11.007
17.8757 10.746
17.8908 10.679
17.9060 10.986
17.9212 10.945
17.9364 10.535
17.9515 10.452
17.9667 10.508
17.9819 10.439
17.9971 10.443
18.0122 10.431
18.0274 10.432
18.0426 10.267
18.0578 10.165
18.0729 10.183
18.0881 9.898
18.1033 9.848
18.1185 10.261
18.1336 10.347
18.1488 10.152
18.1640 10.234
18.1792 10.180
18.1943 10.037
18.2095 9.767
18.2247 9.703
18.2399 9.728
18.2550 9.856
18.2702 9.983
18.2854 9.943
18.3006 9.980
18.3157 9.849
18.3309 9.862
18.3461 9.850
18.3613 9.831
18.3764 9.945
18.3916 9.750
18.4068 9.724
18.4220 9.647
18.4371 9.844
18.4523 9.961
18.4675 9.672
18.4827 9.758
18.4978 9.899
18.5130 9.831
18.5282 9.861
18.5434 9.798
18.5585 9.619
18.5737 9.488
18.5889 9.825
18.6041 10.046
18.6192 9.723
18.6344 9.656
18.6496 9.796
18.6648 9.810
18.6799 9.708
18.6951 9.785
18.7103 9.875
18.7255 9.774
18.7406 9.762
18.7558 9.872
18.7710 9.853
18.7862 9.912
18.8013 9.595
18.8165 9.496
18.8317 9.654
18.8469 9.835
18.8620 9.943
18.8772 10.094
18.8924 10.113
18.9076 9.715
18.9227 9.704
18.9379 9.815
18.9531 10.096
18.9683 10.150
18.9834 10.016
18.9986 9.985
19.0138 10.064
19.0290 10.055
19.0441 10.168
19.0593 10.288
19.0745 10.347
19.0897 10.347
19.1048 10.016
19.1200 10.135
19.1352 10.340
19.1504 10.099
19.1655 10.170
19.1807 10.571
19.1959 10.611
19.2111 10.346
19.2262 10.554
19.2414 10.619
19.2566 10.529
19.2718 10.527
19.2869 10.579
19.3021 10.605
19.3173 10.854
19.3325 10.917
19.3476 10.816
19.3628 10.969
19.3780 11.139
19.3932 11.165
19.4083 11.207
19.4235 11.303
19.4387 11.272
19.4539 11.206
19.4690 11.445
19.4842 11.347
19.4994 11.329
19.5146 11.317
19.5297 11.322
19.5449 11.382
19.5601 11.280
19.5753 11.644
19.5904 11.606
19.6056 11.564
19.6208 11.736
19.6360 11.561
19.6511 11.547
19.6663 11.790
19.6815 11.686
19.6967 11.573
19.7118 11.691
19.7270 11.786
19.7422 11.602
19.7574 11.542
19.7725 11.557
19.7877 11.609
19.8029 11.820
19.8180 11.935
19.8332 12.143
19.8484 12.274
19.8636 12.368
19.8787 12.718
19.8939 13.089
19.9091 13.021
19.9243 12.986
19.9394 13.483
19.9546 14.136
19.9698 14.247
19.9850 14.368
20.0001 14.560
20.0153 14.049
20.0305 13.844
20.0457 13.760
20.0608 13.455
20.0760 13.598
20.0912 13.731
20.1064 13.641
20.1215 13.618
20.1367 13.710
20.1519 13.504
20.1671 13.244
20.1822 12.982
20.1974 12.773
20.2126 12.678
20.2278 12.839
20.2429 12.836
20.2581 12.609
20.2733 12.335
20.2885 11.922
20.3036 11.581
20.3188 11.745
20.3340 11.919
20.3492 11.990
20.3643 11.593
20.3795 11.207
20.3947 11.141
20.4099 11.083
20.4250 10.914
20.4402 10.639
20.4554 10.494
20.4706 10.693
20.4857 10.738
20.5009 10.906
20.5161 10.756
20.5313 10.948
20.5464 10.768
20.5616 10.864
20.5768 10.795
20.5920 10.710
20.6071 10.785
20.6223 10.855
20.6375 10.802
20.6527 10.891
20.6678 10.656
20.6830 10.725
20.6982 10.659
20.7134 10.739
20.7285 10.890
20.7437 10.685
20.7589 10.596
20.7741 10.565
20.7892 10.586
20.8044 10.256
20.8196 10.512
20.8348 10.198
20.8499 10.152
20.8651 10.385
20.8803 10.134
20.8955 10.022
20.9106 10.056
20.9258 10.212
20.9410 10.110
20.9562 10.323
20.9713 10.157
20.9865 10.153
21.0017 10.357
21.0169 9.714
21.0320 10.061
21.0472 10.058
21.0624 9.862
21.0776 9.794
21.0927 9.775
21.1079 10.141
21.1231 9.711
21.1383 9.784
21.1534 9.981
21.1686 9.604
21.1838 9.633
21.1990 9.668
21.2141 9.444
21.2293 9.696
21.2445 9.503
21.2597 9.313
21.2748 9.716
21.2900 9.527
21.3052 9.981
21.3204 9.404
21.3355 9.554
21.3507 9.437
21.3659 9.640
21.3811 9.498
21.3962 9.609
21.4114 9.365
21.4266 9.470
21.4418 9.420
21.4569 9.413
21.4721 9.195
21.4873 9.314
21.5025 9.361
21.5176 9.264
21.5328 9.360
21.5480 9.198
21.5632 9.134
21.5783 9.136
21.5935 9.106
21.6087 9.023
21.6239 9.100
21.6390 9.125
21.6542 9.320
21.6694 9.108
21.6846 9.159
21.6997 9.428
21.7149 9.313
21.7301 8.963
21.7453 8.892
21.7604 9.104
21.7756 8.926
21.7908 8.833
21.8060 9.063
21.8211 9.120
21.8363 9.116
21.8515 9.136
21.8667 8.882
21.8818 8.877
21.8970 9.035
21.9122 9.059
21.9274 9.110
21.9425 9.029
21.9577 9.065
21.9729 9.040
21.9881 8.920
22.0032 8.822
22.0184 8.775
22.0336 8.808
22.0488 8.739
22.0639 8.767
22.0791 8.864
22.0943 8.713
22.1095 8.736
22.1246 8.890
22.1398 8.600
22.1550 8.452
22.1702 8.459
22.1853 8.616
22.2005 8.774
22.2157 8.718
22.2309 8.819
22.2460 8.819
22.2612 8.678
22.2764 8.754
22.2916 8.716
22.3067 8.512
22.3219 8.511
22.3371 8.333
22.3523 8.483
22.3674 8.532
22.3826 8.547
22.3978 8.445
22.4130 8.354
22.4281 8.364
22.4433 8.485
22.4585 8.497
22.4737 8.560
22.4888 8.640
22.5040 8.358
22.5192 8.549
22.5344 8.747
22.5495 8.325
22.5647 8.708
22.5799 8.646
22.5951 8.511
22.6102 8.536
22.6254 8.653
22.6406 8.639
22.6558 8.586
22.6709 8.393
22.6861 8.374
22.7013 8.611
22.7165 7.792
22.7316 6.468
