'Id: "" Comment: "" Operator: "Lab Manager" Anode: "Mo" Scantype: "Still (Eiger2R_500K (1D mode))" TimePerStep: "300" X: "11.8" Y: "9.4" Z: "11.284" 
7.2532 19.030
7.2684 19.147
7.2836 19.152
7.2987 19.123
7.3139 19.551
7.3291 19.214
7.3443 19.466
7.3594 19.502
7.3746 19.643
7.3898 19.695
7.4050 19.807
7.4201 19.837
7.4353 19.652
7.4505 19.810
7.4657 19.736
7.4808 19.970
7.4960 19.818
7.5112 20.061
7.5264 19.864
7.5415 19.822
7.5567 19.998
7.5719 20.081
7.5871 19.972
7.6022 19.888
7.6174 20.043
7.6326 19.992
7.6478 20.294
7.6629 20.291
7.6781 20.198
7.6933 20.482
7.7085 20.375
7.7236 20.410
7.7388 20.528
7.7540 20.423
7.7692 20.640
7.7843 20.487
7.7995 20.362
7.8147 20.537
7.8299 20.604
7.8450 20.926
7.8602 21.057
7.8754 20.935
7.8905 21.176
7.9057 20.850
7.9209 20.970
7.9361 21.184
7.9512 21.010
7.9664 21.203
7.9816 21.195
7.9968 21.152
8.0119 20.986
8.0271 21.239
8.0423 21.262
8.0575 21.697
8.0726 21.679
8.0878 21.575
8.1030 21.428
8.1182 21.226
8.1333 21.340
8.1485 21.366
8.1637 21.897
8.1789 21.781
8.1940 21.668
8.2092 21.623
8.2244 21.987
8.2396 22.201
8.2547 22.120
8.2699 21.548
8.2851 21.654
8.3003 21.639
8.3154 21.613
8.3306 21.737
8.3458 21.452
8.3610 21.913
8.3761 22.377
8.3913 21.876
8.4065 21.867
8.4217 22.160
8.4368 22.175
8.4520 22.144
8.4672 22.363
8.4824 22.131
8.4975 22.045
8.5127 21.787
8.5279 22.414
8.5431 22.105
8.5582 22.579
8.5734 22.552
8.5886 22.313
8.6038 22.105
8.6189 22.285
8.6341 22.404
8.6493 22.653
8.6645 22.234
8.6796 22.092
8.6948 22.348
8.7100 21.822
8.7252 22.818
8.7403 22.048
8.7555 22.641
8.7707 22.778
8.7859 22.458
8.8010 22.805
8.8162 22.328
8.8314 22.543
8.8466 22.605
8.8617 22.732
8.8769 22.741
8.8921 22.576
8.9073 22.834
8.9224 22.604
8.9376 22.456
8.9528 22.638
8.9680 22.497
8.9831 22.365
8.9983 21.976
9.0135 22.573
9.0287 22.906
9.0438 22.920
9.0590 22.989
9.0742 22.897
9.0894 23.035
9.1045 22.836
9.1197 22.455
9.1349 22.967
9.1501 22.945
9.1652 22.701
9.1804 22.951
9.1956 23.081
9.2108 22.694
9.2259 22.516
9.2411 22.693
9.2563 22.888
9.2715 22.893
9.2866 22.655
9.3018 22.994
9.3170 23.030
9.3322 22.805
9.3473 22.604
9.3625 22.936
9.3777 23.058
9.3929 23.232
9.4080 23.192
9.4232 23.214
9.4384 23.234
9.4536 22.970
9.4687 22.642
9.4839 22.966
9.4991 23.088
9.5143 22.833
9.5294 23.223
9.5446 23.041
9.5598 22.707
9.5750 23.086
9.5901 23.497
9.6053 23.425
9.6205 23.774
9.6357 23.795
9.6508 23.488
9.6660 23.388
9.6812 23.390
9.6964 23.852
9.7115 24.132
9.7267 23.947
9.7419 24.260
9.7571 24.436
9.7722 24.128
9.7874 24.206
9.8026 24.037
9.8178 23.747
9.8329 23.711
9.8481 23.735
9.8633 23.729
9.8785 23.659
9.8936 23.788
9.9088 23.553
9.9240 23.644
9.9392 24.136
9.9543 24.181
9.9695 24.047
9.9847 24.304
9.9999 23.967
10.0150 23.785
10.0302 23.896
10.0454 23.518
10.0606 23.330
10.0757 23.455
10.0909 23.602
10.1061 23.824
10.1213 23.716
10.1364 23.434
10.1516 24.069
10.1668 24.008
10.1820 23.544
10.1971 23.633
10.2123 23.776
10.2275 24.055
10.2427 23.998
10.2578 24.022
10.2730 23.689
10.2882 23.390
10.3034 23.500
10.3185 23.601
10.3337 23.534
10.3489 23.560
10.3641 23.527
10.3792 23.187
10.3944 23.264
10.4096 23.024
10.4248 22.873
10.4399 22.957
10.4551 22.895
10.4703 22.909
10.4855 22.827
10.5006 22.986
10.5158 23.077
10.5310 22.954
10.5462 22.755
10.5613 22.541
10.5765 22.614
10.5917 22.760
10.6069 22.751
10.6220 22.629
10.6372 22.842
10.6524 22.761
10.6676 22.617
10.6827 22.770
10.6979 22.715
10.7131 23.047
10.7283 22.394
10.7434 21.978
10.7586 22.488
10.7738 22.514
10.7890 22.066
10.8041 22.380
10.8193 22.406
10.8345 22.306
10.8497 22.374
10.8648 22.206
10.8800 21.982
10.8952 22.079
10.9104 22.257
10.9255 22.345
10.9407 22.515
10.9559 22.246
10.9711 21.922
10.9862 22.062
11.0014 21.966
11.0166 21.977
11.0318 21.748
11.0469 21.859
11.0621 21.710
11.0773 21.667
11.0925 21.437
11.1076 21.508
11.1228 21.655
11.1380 21.656
11.1532 21.657
11.1683 21.791
11.1835 21.769
11.1987 21.867
11.2139 21.634
11.2290 21.596
11.2442 21.919
11.2594 22.160
11.2746 21.657
11.2897 21.606
11.3049 21.693
11.3201 21.468
11.3353 21.558
11.3504 21.882
11.3656 21.404
11.3808 21.401
11.3960 21.051
11.4111 21.182
11.4263 21.701
11.4415 21.597
11.4567 21.199
11.4718 21.274
11.4870 21.098
11.5022 20.984
11.5174 21.283
11.5325 21.503
11.5477 21.046
11.5629 21.119
11.5781 21.042
11.5932 20.777
11.6084 21.083
11.6236 20.920
11.6388 20.645
11.6539 20.414
11.6691 20.737
11.6843 20.750
11.6995 20.380
11.7146 20.408
11.7298 20.353
11.7450 20.451
11.7602 20.200
11.7753 20.156
11.7905 20.465
11.8057 20.115
11.8209 20.034
11.8360 19.994
11.8512 19.530
11.8664 19.591
11.8816 19.708
11.8967 19.817
11.9119 19.486
11.9271 19.245
11.9423 19.527
11.9574 19.406
11.9726 19.288
11.9878 19.048
12.0030 19.292
12.0181 19.221
12.0333 19.147
12.0485 18.895
12.0637 18.863
12.0788 18.819
12.0940 18.799
12.1092 18.887
12.1244 18.759
12.1395 18.503
12.1547 18.091
12.1699 18.059
12.1851 18.166
12.2002 18.210
12.2154 18.102
12.2306 18.229
12.2458 18.055
12.2609 17.980
12.2761 17.639
12.2913 17.755
12.3065 17.682
12.3216 17.621
12.3368 17.704
12.3520 17.952
12.3672 17.648
12.3823 17.459
12.3975 17.175
12.4127 17.008
12.4279 17.179
12.4430 17.022
12.4582 16.845
12.4734 17.089
12.4886 16.801
12.5037 16.524
12.5189 16.623
12.5341 16.646
12.5493 16.385
12.5644 16.334
12.5796 16.305
12.5948 16.489
12.6100 16.204
12.6251 16.069
12.6403 16.018
12.6555 15.727
12.6707 15.677
12.6858 15.724
12.7010 15.790
12.7162 15.651
12.7314 15.291
12.7465 15.251
12.7617 15.394
12.7769 15.227
12.7921 15.063
12.8072 15.082
12.8224 14.863
12.8376 14.916
12.8528 15.080
12.8679 14.923
12.8831 14.776
12.8983 14.857
12.9135 14.838
12.9286 14.767
12.9438 14.768
12.9590 14.712
12.9742 14.562
12.9893 14.473
13.0045 14.333
13.0197 14.292
13.0349 14.141
13.0500 14.009
13.0652 14.012
13.0804 14.022
13.0956 13.809
13.1107 13.728
13.1259 13.549
13.1411 13.400
13.1563 13.525
13.1714 13.627
13.1866 13.846
13.2018 13.614
13.2170 13.291
13.2321 13.193
13.2473 13.260
13.2625 13.442
13.2777 13.416
13.2928 13.324
13.3080 13.144
13.3232 13.092
13.3384 13.109
13.3535 12.927
13.3687 13.257
13.3839 13.252
13.3991 13.023
13.4142 13.325
13.4294 13.181
13.4446 12.728
13.4598 12.616
13.4749 12.770
13.4901 12.650
13.5053 12.384
13.5205 12.335
13.5356 12.312
13.5508 12.261
13.5660 12.378
13.5812 12.290
13.5963 12.163
13.6115 12.089
13.6267 11.950
13.6419 12.161
13.6570 12.135
13.6722 11.958
13.6874 11.944
13.7026 12.178
13.7177 11.928
13.7329 12.002
13.7481 12.015
13.7633 11.771
13.7784 12.109
13.7936 12.290
13.8088 12.301
13.8239 12.162
13.8391 11.915
13.8543 12.124
13.8695 12.147
13.8846 12.275
13.8998 12.275
13.9150 12.113
13.9302 11.911
13.9453 11.876
13.9605 11.875
13.9757 11.573
13.9909 11.433
14.0060 11.240
14.0212 11.375
14.0364 11.436
14.0516 11.664
14.0667 11.347
14.0819 11.241
14.0971 11.202
14.1123 11.188
14.1274 11.218
14.1426 11.254
14.1578 11.208
14.1730 11.478
14.1881 11.323
14.2033 11.319
14.2185 11.387
14.2337 11.584
14.2488 11.521
14.2640 11.430
14.2792 11.416
14.2944 11.559
14.3095 11.574
14.3247 11.633
14.3399 11.860
14.3551 12.070
14.3702 12.265
14.3854 12.577
14.4006 12.745
14.4158 13.283
14.4309 13.244
14.4461 13.449
14.4613 13.380
14.4765 13.300
14.4916 13.243
14.5068 13.458
14.5220 13.068
14.5372 13.017
14.5523 13.194
14.5675 13.002
14.5827 12.578
14.5979 12.425
14.6130 12.061
14.6282 11.966
14.6434 11.822
14.6586 11.892
14.6737 11.837
14.6889 11.379
14.7041 11.354
14.7193 11.206
14.7344 11.608
14.7496 11.480
14.7648 11.340
14.7800 11.231
14.7951 11.178
14.8103 11.136
14.8255 10.914
14.8407 11.271
14.8558 11.000
14.8710 11.043
14.8862 11.150
14.9014 11.252
14.9165 11.004
14.9317 11.262
14.9469 10.648
14.9621 10.625
14.9772 10.426
14.9924 10.293
15.0076 10.430
15.0228 11.044
15.0379 10.690
15.0531 10.396
15.0683 10.460
15.0835 10.384
15.0986 10.243
15.1138 10.346
15.1290 10.678
15.1442 10.532
15.1593 10.548
15.1745 10.657
15.1897 10.378
15.2049 10.350
15.2200 10.533
15.2352 10.490
15.2504 10.455
15.2656 10.280
15.2807 10.764
15.2959 10.622
15.3111 10.264
15.3263 9.862
15.3414 10.410
15.3566 10.320
15.3718 10.463
15.3870 10.285
15.4021 10.172
15.4173 10.647
15.4325 10.543
15.4477 10.594
15.4628 10.382
15.4780 10.455
15.4932 10.394
15.5084 10.420
15.5235 10.376
15.5387 10.595
15.5539 10.473
15.5691 10.185
15.5842 10.233
15.5994 10.067
15.6146 10.272
15.6298 10.192
15.6449 10.055
15.6601 10.192
15.6753 10.173
15.6905 9.979
15.7056 10.206
15.7208 10.164
15.7360 10.129
15.7512 10.145
15.7663 9.837
15.7815 9.818
15.7967 9.623
15.8119 9.971
15.8270 10.013
15.8422 9.920
15.8574 10.005
15.8726 9.664
15.8877 9.629
15.9029 9.474
15.9181 9.468
15.9333 9.842
15.9484 9.586
15.9636 9.916
15.9788 9.892
15.9940 9.530
16.0091 9.724
16.0243 9.720
16.0395 9.934
16.0547 9.674
16.0698 9.558
16.0850 9.798
16.1002 9.716
16.1154 9.868
16.1305 9.616
16.1457 9.432
16.1609 9.595
16.1761 9.829
16.1912 9.818
16.2064 9.787
16.2216 9.880
16.2368 9.835
16.2519 10.100
16.2671 9.820
16.2823 9.923
16.2975 10.204
16.3126 10.236
16.3278 9.996
16.3430 10.073
16.3582 10.221
16.3733 10.270
16.3885 10.135
16.4037 10.247
16.4189 10.171
16.4340 10.084
16.4492 9.995
16.4644 9.958
16.4796 9.954
16.4947 9.769
16.5099 9.787
16.5251 9.807
16.5403 9.869
16.5554 9.858
16.5706 9.809
16.5858 9.732
16.6010 9.689
16.6161 9.827
16.6313 9.866
16.6465 9.758
16.6617 9.677
16.6768 9.644
16.6920 9.924
16.7072 10.146
16.7224 10.066
16.7375 10.190
16.7527 10.139
16.7679 10.000
16.7831 9.798
16.7982 9.826
16.8134 10.037
16.8286 10.036
16.8438 10.056
16.8589 9.942
16.8741 10.020
16.8893 9.964
16.9045 9.969
16.9196 9.821
16.9348 9.857
16.9500 9.892
16.9652 9.872
16.9803 9.847
16.9955 9.920
17.0107 9.881
17.0259 9.885
17.0410 10.000
17.0562 9.993
17.0714 10.077
17.0866 10.350
17.1017 10.619
17.1169 10.757
17.1321 10.810
17.1473 11.138
17.1624 11.898
17.1776 12.569
17.1928 13.155
17.2080 14.025
17.2231 15.040
17.2383 16.081
17.2535 17.412
17.2687 18.627
17.2838 18.769
17.2990 17.765
17.3142 16.906
17.3294 16.231
17.3445 15.753
17.3597 15.918
17.3749 16.038
17.3901 15.141
17.4052 13.953
17.4204 13.215
17.4356 12.463
17.4508 11.914
17.4659 11.540
17.4811 11.412
17.4963 11.267
17.5115 11.052
17.5266 10.786
17.5418 10.550
17.5570 10.489
17.5722 10.447
17.5873 10.514
17.6025 10.627
17.6177 10.535
17.6329 10.247
17.6480 10.117
17.6632 10.221
17.6784 10.320
17.6936 10.163
17.7087 10.142
17.7239 10.266
17.7391 10.404
17.7543 10.540
17.7694 10.871
17.7846 11.249
17.7998 11.281
17.8150 11.663
17.8301 12.262
17.8453 12.297
17.8605 12.203
17.8757 12.489
17.8908 12.599
17.9060 12.214
17.9212 12.048
17.9364 11.898
17.9515 11.770
17.9667 11.653
17.9819 11.426
17.9971 10.973
18.0122 10.773
18.0274 10.960
18.0426 10.754
18.0578 10.485
18.0729 10.394
18.0881 10.257
18.1033 10.078
18.1185 10.105
18.1336 10.149
18.1488 10.186
18.1640 10.168
18.1792 10.096
18.1943 10.053
18.2095 9.937
18.2247 9.944
18.2399 10.065
18.2550 10.059
18.2702 9.959
18.2854 9.877
18.3006 9.844
18.3157 9.820
18.3309 9.856
18.3461 9.916
18.3613 9.922
18.3764 9.926
18.3916 10.065
18.4068 10.244
18.4220 10.115
18.4371 9.647
18.4523 9.573
18.4675 9.739
18.4827 9.915
18.4978 9.584
18.5130 9.725
18.5282 9.871
18.5434 9.846
18.5585 9.783
18.5737 9.896
18.5889 9.747
18.6041 9.765
18.6192 9.918
18.6344 9.856
18.6496 10.000
18.6648 9.925
18.6799 9.661
18.6951 9.819
18.7103 9.713
18.7255 9.684
18.7406 9.907
18.7558 9.765
18.7710 9.865
18.7862 9.750
18.8013 9.777
18.8165 10.013
18.8317 9.925
18.8469 9.813
18.8620 9.862
18.8772 9.820
18.8924 9.830
18.9076 9.979
18.9227 9.948
18.9379 10.066
18.9531 10.196
18.9683 10.163
18.9834 9.960
18.9986 9.933
19.0138 10.279
19.0290 10.320
19.0441 10.158
19.0593 10.417
19.0745 10.370
19.0897 10.408
19.1048 10.448
19.1200 10.472
19.1352 10.603
19.1504 10.759
19.1655 10.730
19.1807 10.592
19.1959 10.674
19.2111 10.744
19.2262 10.681
19.2414 10.713
19.2566 10.725
19.2718 10.826
19.2869 10.860
19.3021 10.702
19.3173 10.723
19.3325 10.927
19.3476 11.306
19.3628 11.222
19.3780 11.134
19.3932 11.193
19.4083 11.226
19.4235 11.266
19.4387 11.107
19.4539 11.299
19.4690 11.134
19.4842 10.936
19.4994 11.296
19.5146 11.551
19.5297 11.566
19.5449 11.454
19.5601 11.434
19.5753 11.570
19.5904 11.768
19.6056 11.704
19.6208 11.658
19.6360 11.510
19.6511 11.327
19.6663 11.504
19.6815 11.566
19.6967 11.437
19.7118 11.358
19.7270 11.642
19.7422 11.853
19.7574 11.536
19.7725 11.332
19.7877 11.673
19.8029 11.882
19.8180 11.991
19.8332 11.851
19.8484 11.937
19.8636 12.449
19.8787 12.309
19.8939 12.536
19.9091 13.012
19.9243 13.385
19.9394 13.993
19.9546 14.156
19.9698 14.257
19.9850 14.555
20.0001 14.642
20.0153 14.357
20.0305 14.131
20.0457 14.100
20.0608 13.870
20.0760 13.809
20.0912 13.956
20.1064 13.953
20.1215 13.890
20.1367 13.459
20.1519 13.171
20.1671 13.011
20.1822 12.706
20.1974 12.735
20.2126 12.776
20.2278 12.606
20.2429 12.428
20.2581 12.287
20.2733 12.039
20.2885 11.716
20.3036 11.593
20.3188 11.803
20.3340 11.663
20.3492 11.546
20.3643 11.503
20.3795 11.129
20.3947 10.999
20.4099 10.986
20.4250 10.894
20.4402 11.088
20.4554 11.067
20.4706 10.831
20.4857 10.820
20.5009 10.814
20.5161 10.894
20.5313 10.872
20.5464 10.694
20.5616 10.988
20.5768 10.896
20.5920 10.620
20.6071 10.788
20.6223 10.912
20.6375 10.803
20.6527 10.710
20.6678 10.746
20.6830 10.573
20.6982 10.842
20.7134 10.630
20.7285 10.793
20.7437 10.612
20.7589 10.661
20.7741 10.753
20.7892 10.609
20.8044 10.459
20.8196 10.553
20.8348 10.525
20.8499 10.429
20.8651 10.507
20.8803 10.693
20.8955 10.714
20.9106 10.711
20.9258 10.467
20.9410 10.214
20.9562 10.091
20.9713 10.606
20.9865 10.707
21.0017 10.715
21.0169 10.484
21.0320 10.710
21.0472 10.403
21.0624 10.271
21.0776 10.259
21.0927 10.065
21.1079 10.180
21.1231 10.309
21.1383 9.844
21.1534 9.980
21.1686 9.931
21.1838 9.781
21.1990 10.112
21.2141 9.655
21.2293 9.806
21.2445 9.749
21.2597 9.726
21.2748 9.607
21.2900 9.587
21.3052 9.640
21.3204 9.664
21.3355 9.375
21.3507 9.402
21.3659 9.304
21.3811 9.357
21.3962 9.375
21.4114 9.405
21.4266 9.338
21.4418 9.438
21.4569 9.511
21.4721 9.365
21.4873 9.177
21.5025 9.417
21.5176 9.141
21.5328 9.117
21.5480 9.105
21.5632 9.315
21.5783 9.141
21.5935 9.210
21.6087 9.200
21.6239 8.939
21.6390 9.108
21.6542 9.239
21.6694 9.358
21.6846 9.079
21.6997 9.148
21.7149 8.944
21.7301 9.145
21.7453 9.180
21.7604 9.112
21.7756 9.195
21.7908 9.058
21.8060 9.033
21.8211 9.206
21.8363 9.018
21.8515 9.006
21.8667 9.006
21.8818 8.869
21.8970 8.900
21.9122 8.904
21.9274 8.957
21.9425 8.893
21.9577 8.827
21.9729 8.935
21.9881 9.015
22.0032 8.962
22.0184 8.862
22.0336 8.864
22.0488 8.953
22.0639 8.864
22.0791 8.696
22.0943 8.557
22.1095 8.581
22.1246 8.518
22.1398 8.600
22.1550 8.691
22.1702 8.648
22.1853 8.669
22.2005 8.690
22.2157 8.650
22.2309 8.631
22.2460 8.710
22.2612 8.540
22.2764 8.405
22.2916 8.366
22.3067 8.296
22.3219 8.295
22.3371 8.359
22.3523 8.471
22.3674 8.642
22.3826 8.461
22.3978 8.477
22.4130 8.349
22.4281 8.524
22.4433 8.739
22.4585 8.757
22.4737 8.337
22.4888 8.359
22.5040 8.260
22.5192 8.519
22.5344 8.224
22.5495 8.493
22.5647 8.291
22.5799 8.244
22.5951 8.496
22.6102 8.632
22.6254 8.528
22.6406 8.417
22.6558 8.594
22.6709 8.198
22.6861 8.611
22.7013 8.174
22.7165 7.790
22.7316 6.304
