'Id: "" Comment: "" Operator: "Lab Manager" Anode: "Mo" Scantype: "Still (Eiger2R_500K (1D mode))" TimePerStep: "300" X: "11.8" Y: "9.4" Z: "11.284" 
7.2532 18.768
7.2684 18.914
7.2836 18.639
7.2987 18.634
7.3139 18.636
7.3291 19.014
7.3443 18.613
7.3594 19.091
7.3746 19.141
7.3898 18.929
7.4050 19.318
7.4201 19.062
7.4353 19.292
7.4505 19.400
7.4657 19.149
7.4808 19.613
7.4960 19.298
7.5112 19.342
7.5264 19.502
7.5415 19.741
7.5567 20.048
7.5719 19.764
7.5871 19.649
7.6022 19.930
7.6174 19.826
7.6326 20.004
7.6478 20.141
7.6629 20.041
7.6781 20.133
7.6933 20.130
7.7085 20.201
7.7236 20.085
7.7388 20.470
7.7540 20.525
7.7692 20.218
7.7843 20.293
7.7995 20.361
7.8147 20.386
7.8299 20.483
7.8450 20.682
7.8602 20.860
7.8754 20.885
7.8905 20.505
7.9057 20.704
7.9209 20.518
7.9361 20.510
7.9512 21.042
7.9664 20.973
7.9816 20.843
7.9968 21.192
8.0119 21.283
8.0271 21.081
8.0423 21.077
8.0575 21.334
8.0726 21.312
8.0878 21.223
8.1030 21.463
8.1182 21.722
8.1333 21.396
8.1485 21.408
8.1637 21.491
8.1789 21.392
8.1940 21.269
8.2092 21.291
8.2244 21.497
8.2396 21.562
8.2547 21.631
8.2699 21.539
8.2851 21.609
8.3003 21.338
8.3154 21.718
8.3306 21.977
8.3458 21.886
8.3610 21.711
8.3761 21.593
8.3913 21.632
8.4065 21.260
8.4217 21.943
8.4368 21.589
8.4520 21.718
8.4672 21.929
8.4824 21.822
8.4975 22.753
8.5127 22.034
8.5279 21.549
8.5431 22.028
8.5582 22.056
8.5734 21.419
8.5886 21.820
8.6038 21.691
8.6189 21.900
8.6341 22.176
8.6493 22.270
8.6645 22.214
8.6796 22.425
8.6948 22.664
8.7100 21.930
8.7252 22.357
8.7403 22.290
8.7555 22.143
8.7707 22.366
8.7859 22.207
8.8010 22.128
8.8162 22.244
8.8314 22.418
8.8466 22.869
8.8617 22.547
8.8769 22.848
8.8921 22.204
8.9073 21.938
8.9224 22.509
8.9376 22.398
8.9528 22.536
8.9680 22.601
8.9831 22.333
8.9983 22.259
9.0135 22.339
9.0287 22.558
9.0438 22.571
9.0590 22.898
9.0742 22.587
9.0894 22.771
9.1045 23.034
9.1197 23.393
9.1349 22.994
9.1501 22.871
9.1652 23.000
9.1804 22.921
9.1956 22.827
9.2108 22.778
9.2259 22.788
9.2411 22.905
9.2563 22.809
9.2715 22.812
9.2866 22.843
9.3018 22.899
9.3170 23.121
9.3322 23.107
9.3473 23.080
9.3625 22.937
9.3777 22.645
9.3929 23.042
9.4080 23.114
9.4232 22.985
9.4384 22.702
9.4536 22.608
9.4687 23.024
9.4839 23.166
9.4991 22.952
9.5143 22.597
9.5294 22.894
9.5446 23.111
9.5598 23.162
9.5750 23.259
9.5901 23.200
9.6053 23.189
9.6205 23.214
9.6357 23.282
9.6508 23.621
9.6660 23.596
9.6812 23.708
9.6964 24.204
9.7115 24.037
9.7267 23.632
9.7419 23.591
9.7571 23.981
9.7722 24.108
9.7874 23.677
9.8026 23.488
9.8178 23.652
9.8329 23.631
9.8481 23.434
9.8633 23.188
9.8785 23.093
9.8936 23.212
9.9088 23.202
9.9240 23.163
9.9392 23.181
9.9543 23.187
9.9695 23.337
9.9847 23.461
9.9999 23.079
10.0150 23.147
10.0302 23.008
10.0454 23.057
10.0606 23.480
10.0757 23.132
10.0909 23.216
10.1061 23.623
10.1213 23.697
10.1364 23.415
10.1516 23.195
10.1668 22.942
10.1820 22.959
10.1971 23.188
10.2123 23.553
10.2275 23.041
10.2427 22.811
10.2578 22.906
10.2730 22.920
10.2882 22.762
10.3034 22.771
10.3185 22.871
10.3337 22.629
10.3489 22.382
10.3641 22.738
10.3792 22.819
10.3944 22.639
10.4096 22.380
10.4248 22.601
10.4399 22.296
10.4551 22.411
10.4703 22.803
10.4855 22.331
10.5006 22.110
10.5158 22.102
10.5310 22.347
10.5462 22.471
10.5613 22.301
10.5765 22.796
10.5917 22.762
10.6069 22.457
10.6220 22.893
10.6372 23.116
10.6524 22.816
10.6676 22.547
10.6827 22.520
10.6979 22.318
10.7131 22.276
10.7283 22.153
10.7434 21.880
10.7586 22.170
10.7738 22.335
10.7890 22.315
10.8041 22.381
10.8193 22.073
10.8345 21.573
10.8497 21.771
10.8648 22.155
10.8800 21.848
10.8952 21.834
10.9104 21.818
10.9255 21.718
10.9407 21.999
10.9559 22.072
10.9711 22.230
10.9862 22.411
11.0014 22.667
11.0166 22.680
11.0318 21.999
11.0469 21.725
11.0621 21.764
11.0773 22.237
11.0925 21.619
11.1076 21.556
11.1228 21.907
11.1380 22.010
11.1532 21.802
11.1683 22.188
11.1835 21.771
11.1987 21.628
11.2139 21.867
11.2290 21.718
11.2442 21.640
11.2594 21.725
11.2746 21.483
11.2897 21.659
11.3049 21.354
11.3201 21.417
11.3353 21.342
11.3504 21.219
11.3656 21.298
11.3808 21.359
11.3960 21.466
11.4111 21.330
11.4263 21.401
11.4415 21.046
11.4567 21.173
11.4718 21.385
11.4870 20.989
11.5022 21.082
11.5174 21.257
11.5325 20.989
11.5477 20.984
11.5629 21.039
11.5781 21.051
11.5932 20.652
11.6084 20.669
11.6236 20.720
11.6388 20.976
11.6539 20.854
11.6691 20.518
11.6843 20.739
11.6995 20.551
11.7146 20.420
11.7298 20.451
11.7450 20.645
11.7602 20.339
11.7753 20.228
11.7905 20.345
11.8057 20.214
11.8209 20.194
11.8360 20.029
11.8512 19.859
11.8664 19.928
11.8816 19.736
11.8967 19.427
11.9119 19.657
11.9271 19.587
11.9423 19.753
11.9574 19.870
11.9726 19.350
11.9878 19.193
12.0030 19.397
12.0181 19.155
12.0333 18.773
12.0485 18.917
12.0637 19.352
12.0788 19.276
12.0940 19.057
12.1092 18.796
12.1244 18.402
12.1395 18.389
12.1547 18.334
12.1699 18.445
12.1851 18.168
12.2002 17.991
12.2154 17.640
12.2306 17.927
12.2458 18.060
12.2609 17.761
12.2761 17.708
12.2913 17.595
12.3065 17.512
12.3216 17.511
12.3368 17.512
12.3520 17.590
12.3672 17.497
12.3823 17.375
12.3975 17.302
12.4127 17.181
12.4279 17.351
12.4430 17.158
12.4582 17.067
12.4734 17.092
12.4886 16.633
12.5037 16.638
12.5189 16.741
12.5341 16.657
12.5493 16.422
12.5644 16.347
12.5796 16.076
12.5948 16.294
12.6100 16.440
12.6251 16.271
12.6403 15.993
12.6555 15.960
12.6707 15.751
12.6858 15.526
12.7010 15.473
12.7162 15.666
12.7314 15.375
12.7465 15.337
12.7617 15.482
12.7769 15.550
12.7921 15.514
12.8072 15.067
12.8224 14.933
12.8376 15.105
12.8528 14.995
12.8679 14.845
12.8831 14.674
12.8983 14.799
12.9135 14.757
12.9286 14.409
12.9438 14.412
12.9590 14.518
12.9742 14.408
12.9893 14.308
13.0045 14.249
13.0197 14.076
13.0349 14.068
13.0500 14.019
13.0652 13.869
13.0804 14.000
13.0956 13.991
13.1107 13.741
13.1259 13.824
13.1411 13.918
13.1563 13.831
13.1714 13.520
13.1866 13.509
13.2018 13.639
13.2170 13.341
13.2321 13.212
13.2473 13.278
13.2625 13.173
13.2777 13.096
13.2928 13.203
13.3080 13.158
13.3232 13.157
13.3384 13.133
13.3535 13.127
13.3687 13.076
13.3839 12.870
13.3991 12.818
13.4142 12.930
13.4294 12.868
13.4446 13.000
13.4598 12.899
13.4749 12.733
13.4901 12.905
13.5053 12.824
13.5205 12.692
13.5356 12.640
13.5508 12.590
13.5660 12.534
13.5812 12.392
13.5963 12.263
13.6115 12.278
13.6267 12.214
13.6419 12.172
13.6570 12.128
13.6722 11.913
13.6874 11.910
13.7026 12.133
13.7177 12.198
13.7329 11.953
13.7481 11.980
13.7633 12.207
13.7784 12.286
13.7936 12.132
13.8088 12.032
13.8239 12.057
13.8391 12.289
13.8543 12.171
13.8695 12.251
13.8846 12.283
13.8998 12.269
13.9150 12.242
13.9302 12.004
13.9453 12.181
13.9605 12.192
13.9757 12.140
13.9909 12.042
14.0060 12.029
14.0212 11.614
14.0364 11.818
14.0516 11.905
14.0667 11.920
14.0819 11.834
14.0971 11.599
14.1123 11.645
14.1274 11.829
14.1426 11.740
14.1578 11.676
14.1730 11.584
14.1881 11.951
14.2033 11.963
14.2185 11.718
14.2337 11.687
14.2488 11.644
14.2640 11.861
14.2792 11.940
14.2944 11.827
14.3095 11.985
14.3247 12.368
14.3399 12.450
14.3551 12.458
14.3702 12.608
14.3854 12.743
14.4006 12.982
14.4158 13.116
14.4309 12.983
14.4461 12.513
14.4613 12.574
14.4765 12.540
14.4916 12.157
14.5068 11.642
14.5220 11.736
14.5372 11.638
14.5523 11.608
14.5675 11.487
14.5827 11.183
14.5979 10.937
14.6130 11.129
14.6282 10.901
14.6434 10.913
14.6586 10.807
14.6737 10.499
14.6889 10.557
14.7041 10.740
14.7193 10.533
14.7344 10.686
14.7496 10.651
14.7648 10.498
14.7800 10.513
14.7951 10.360
14.8103 10.823
14.8255 10.527
14.8407 10.412
14.8558 10.481
14.8710 10.404
14.8862 10.418
14.9014 10.386
14.9165 10.849
14.9317 10.577
14.9469 10.463
14.9621 9.976
14.9772 10.121
14.9924 10.247
15.0076 10.293
15.0228 10.463
15.0379 10.454
15.0531 10.236
15.0683 9.936
15.0835 10.123
15.0986 10.178
15.1138 10.161
15.1290 10.043
15.1442 10.322
15.1593 9.997
15.1745 9.846
15.1897 10.016
15.2049 10.150
15.2200 10.033
15.2352 10.055
15.2504 9.923
15.2656 9.932
15.2807 9.784
15.2959 10.027
15.3111 9.933
15.3263 9.890
15.3414 9.990
15.3566 10.092
15.3718 10.003
15.3870 10.040
15.4021 10.150
15.4173 10.015
15.4325 10.224
15.4477 10.456
15.4628 10.170
15.4780 10.536
15.4932 10.010
15.5084 10.300
15.5235 9.889
15.5387 10.035
15.5539 10.148
15.5691 9.800
15.5842 9.951
15.5994 9.763
15.6146 9.658
15.6298 10.073
15.6449 9.758
15.6601 9.935
15.6753 9.815
15.6905 9.821
15.7056 9.594
15.7208 9.491
15.7360 9.911
15.7512 9.934
15.7663 9.684
15.7815 10.023
15.7967 9.620
15.8119 9.765
15.8270 9.671
15.8422 9.622
15.8574 9.634
15.8726 9.321
15.8877 9.334
15.9029 9.343
15.9181 9.496
15.9333 9.424
15.9484 9.528
15.9636 9.708
15.9788 9.610
15.9940 9.246
16.0091 9.839
16.0243 9.988
16.0395 9.668
16.0547 9.765
16.0698 9.618
16.0850 9.778
16.1002 9.581
16.1154 9.608
16.1305 9.672
16.1457 9.564
16.1609 9.511
16.1761 9.659
16.1912 9.689
16.2064 9.693
16.2216 9.745
16.2368 9.849
16.2519 9.752
16.2671 9.618
16.2823 9.761
16.2975 9.885
16.3126 9.742
16.3278 9.691
16.3430 9.745
16.3582 9.679
16.3733 9.791
16.3885 9.855
16.4037 9.769
16.4189 9.662
16.4340 9.703
16.4492 9.534
16.4644 9.649
16.4796 9.688
16.4947 9.683
16.5099 9.576
16.5251 9.579
16.5403 9.662
16.5554 9.619
16.5706 9.686
16.5858 9.631
16.6010 9.712
16.6161 9.735
16.6313 9.634
16.6465 9.578
16.6617 9.764
16.6768 9.812
16.6920 9.820
16.7072 9.814
16.7224 9.633
16.7375 9.854
16.7527 10.050
16.7679 9.865
16.7831 9.741
16.7982 9.645
16.8134 9.586
16.8286 9.991
16.8438 10.069
16.8589 9.879
16.8741 9.723
16.8893 9.733
16.9045 9.613
16.9196 9.657
16.9348 9.737
16.9500 9.725
16.9652 9.756
16.9803 9.699
16.9955 9.641
17.0107 9.719
17.0259 9.806
17.0410 9.902
17.0562 10.016
17.0714 10.099
17.0866 10.350
17.1017 10.360
17.1169 10.459
17.1321 10.820
17.1473 11.344
17.1624 11.824
17.1776 12.424
17.1928 13.146
17.2080 13.982
17.2231 14.984
17.2383 16.184
17.2535 17.388
17.2687 18.440
17.2838 18.736
17.2990 18.133
17.3142 16.994
17.3294 16.200
17.3445 16.029
17.3597 16.007
17.3749 15.963
17.3901 15.236
17.4052 14.251
17.4204 13.404
17.4356 12.746
17.4508 12.105
17.4659 11.682
17.4811 11.616
17.4963 11.429
17.5115 11.237
17.5266 11.030
17.5418 11.033
17.5570 11.096
17.5722 10.995
17.5873 11.109
17.6025 11.171
17.6177 11.181
17.6329 11.315
17.6480 11.392
17.6632 11.532
17.6784 11.305
17.6936 11.188
17.7087 11.186
17.7239 11.075
17.7391 11.194
17.7543 11.142
17.7694 11.153
17.7846 10.984
17.7998 10.734
17.8150 10.460
17.8301 10.309
17.8453 10.487
17.8605 10.378
17.8757 10.369
17.8908 10.357
17.9060 10.180
17.9212 10.308
17.9364 10.353
17.9515 10.076
17.9667 10.027
17.9819 10.080
17.9971 10.036
18.0122 10.134
18.0274 10.426
18.0426 10.292
18.0578 10.110
18.0729 10.145
18.0881 10.105
18.1033 9.907
18.1185 9.930
18.1336 10.190
18.1488 10.043
18.1640 9.925
18.1792 9.913
18.1943 9.759
18.2095 9.831
18.2247 9.963
18.2399 9.871
18.2550 9.967
18.2702 10.085
18.2854 9.942
18.3006 10.113
18.3157 10.061
18.3309 9.813
18.3461 9.702
18.3613 9.627
18.3764 9.552
18.3916 9.812
18.4068 9.893
18.4220 9.787
18.4371 9.737
18.4523 9.968
18.4675 9.911
18.4827 9.805
18.4978 9.898
18.5130 9.660
18.5282 9.784
18.5434 9.980
18.5585 9.872
18.5737 9.934
18.5889 9.639
18.6041 9.608
18.6192 9.875
18.6344 9.670
18.6496 9.748
18.6648 9.748
18.6799 9.716
18.6951 9.628
18.7103 9.747
18.7255 9.870
18.7406 9.839
18.7558 9.733
18.7710 9.852
18.7862 9.796
18.8013 9.619
18.8165 9.560
18.8317 9.723
18.8469 9.977
18.8620 9.851
18.8772 9.757
18.8924 10.033
18.9076 10.173
18.9227 10.021
18.9379 9.919
18.9531 9.872
18.9683 10.107
18.9834 10.381
18.9986 10.335
19.0138 10.311
19.0290 10.207
19.0441 10.251
19.0593 10.310
19.0745 10.093
19.0897 10.133
19.1048 10.384
19.1200 10.310
19.1352 10.393
19.1504 10.492
19.1655 10.546
19.1807 10.582
19.1959 10.701
19.2111 10.796
19.2262 10.924
19.2414 10.855
19.2566 11.064
19.2718 11.112
19.2869 11.000
19.3021 10.946
19.3173 10.881
19.3325 10.955
19.3476 10.914
19.3628 11.256
19.3780 11.185
19.3932 11.007
19.4083 11.222
19.4235 11.349
19.4387 11.276
19.4539 11.390
19.4690 11.493
19.4842 11.338
19.4994 11.279
19.5146 11.347
19.5297 11.411
19.5449 11.657
19.5601 11.667
19.5753 11.375
19.5904 11.461
19.6056 11.776
19.6208 11.641
19.6360 11.569
19.6511 11.700
19.6663 11.810
19.6815 11.765
19.6967 11.790
19.7118 11.849
19.7270 11.892
19.7422 11.859
19.7574 11.835
19.7725 11.920
19.7877 11.843
19.8029 11.972
19.8180 12.172
19.8332 12.527
19.8484 12.563
19.8636 12.624
19.8787 12.767
19.8939 12.761
19.9091 13.190
19.9243 13.715
19.9394 13.989
19.9546 14.219
19.9698 14.476
19.9850 14.549
20.0001 14.681
20.0153 14.239
20.0305 13.864
20.0457 14.007
20.0608 14.306
20.0760 13.777
20.0912 13.764
20.1064 13.801
20.1215 13.430
20.1367 13.248
20.1519 13.276
20.1671 13.223
20.1822 13.116
20.1974 12.886
20.2126 12.562
20.2278 12.781
20.2429 13.016
20.2581 12.634
20.2733 12.630
20.2885 12.527
20.3036 12.039
20.3188 11.832
20.3340 11.942
20.3492 12.089
20.3643 11.860
20.3795 11.800
20.3947 11.950
20.4099 11.985
20.4250 11.912
20.4402 11.873
20.4554 11.888
20.4706 11.766
20.4857 11.761
20.5009 11.752
20.5161 11.644
20.5313 11.240
20.5464 11.243
20.5616 11.166
20.5768 11.333
20.5920 11.081
20.6071 11.468
20.6223 11.282
20.6375 10.918
20.6527 10.818
20.6678 10.662
20.6830 10.373
20.6982 10.551
20.7134 10.597
20.7285 10.437
20.7437 10.424
20.7589 10.635
20.7741 10.531
20.7892 10.665
20.8044 10.840
20.8196 10.620
20.8348 10.195
20.8499 10.344
20.8651 10.460
20.8803 10.226
20.8955 10.212
20.9106 10.060
20.9258 10.515
20.9410 10.203
20.9562 10.076
20.9713 10.039
20.9865 10.477
21.0017 10.303
21.0169 10.063
21.0320 10.005
21.0472 10.063
21.0624 10.203
21.0776 10.212
21.0927 9.995
21.1079 10.123
21.1231 9.732
21.1383 9.843
21.1534 9.950
21.1686 9.989
21.1838 9.680
21.1990 9.777
21.2141 9.860
21.2293 9.671
21.2445 9.757
21.2597 9.796
21.2748 9.610
21.2900 9.719
21.3052 9.537
21.3204 10.032
21.3355 9.595
21.3507 9.370
21.3659 9.560
21.3811 9.500
21.3962 9.376
21.4114 9.891
21.4266 9.392
21.4418 9.784
21.4569 9.362
21.4721 9.363
21.4873 9.283
21.5025 9.335
21.5176 9.500
21.5328 9.687
21.5480 9.156
21.5632 9.250
21.5783 9.218
21.5935 9.128
21.6087 9.188
21.6239 9.553
21.6390 9.249
21.6542 9.246
21.6694 9.170
21.6846 9.203
21.6997 9.193
21.7149 8.993
21.7301 9.201
21.7453 9.501
21.7604 9.234
21.7756 8.995
21.7908 9.048
21.8060 9.038
21.8211 9.078
21.8363 9.078
21.8515 9.186
21.8667 9.003
21.8818 8.816
21.8970 8.949
21.9122 9.020
21.9274 8.905
21.9425 9.037
21.9577 8.989
21.9729 8.771
21.9881 8.886
22.0032 9.045
22.0184 9.094
22.0336 8.933
22.0488 8.881
22.0639 8.817
22.0791 8.650
22.0943 8.733
22.1095 8.965
22.1246 8.817
22.1398 8.692
22.1550 8.727
22.1702 8.660
22.1853 8.650
22.2005 8.709
22.2157 8.637
22.2309 8.542
22.2460 8.632
22.2612 8.595
22.2764 8.649
22.2916 8.688
22.3067 8.580
22.3219 8.424
22.3371 8.316
22.3523 8.532
22.3674 8.512
22.3826 8.248
22.3978 8.319
22.4130 8.707
22.4281 8.533
22.4433 8.599
22.4585 8.601
22.4737 8.608
22.4888 8.585
22.5040 8.370
22.5192 8.354
22.5344 8.581
22.5495 8.066
22.5647 8.648
22.5799 8.567
22.5951 8.245
22.6102 8.225
22.6254 8.386
22.6406 8.412
22.6558 8.399
22.6709 8.246
22.6861 8.489
22.7013 8.205
22.7165 7.856
22.7316 6.354
