'Id: "" Comment: "" Operator: "Lab Manager" Anode: "Mo" Scantype: "Still (Eiger2R_500K (1D mode))" TimePerStep: "300" X: "11.8" Y: "9.4" Z: "11.284" 
7.2532 18.592
7.2684 18.606
7.2836 18.614
7.2987 18.769
7.3139 18.991
7.3291 18.686
7.3443 19.053
7.3594 19.175
7.3746 18.850
7.3898 18.772
7.4050 19.159
7.4201 19.188
7.4353 18.845
7.4505 19.141
7.4657 19.587
7.4808 20.044
7.4960 19.655
7.5112 19.591
7.5264 19.332
7.5415 19.499
7.5567 19.815
7.5719 19.632
7.5871 19.863
7.6022 20.167
7.6174 20.066
7.6326 19.961
7.6478 19.996
7.6629 20.131
7.6781 20.072
7.6933 20.026
7.7085 20.433
7.7236 20.212
7.7388 19.806
7.7540 20.089
7.7692 20.406
7.7843 20.551
7.7995 20.696
7.8147 20.517
7.8299 20.534
7.8450 20.798
7.8602 20.794
7.8754 20.709
7.8905 20.641
7.9057 20.644
7.9209 20.586
7.9361 20.156
7.9512 20.401
7.9664 20.790
7.9816 20.819
7.9968 20.817
8.0119 20.735
8.0271 20.879
8.0423 20.893
8.0575 20.579
8.0726 20.513
8.0878 20.738
8.1030 21.005
8.1182 20.875
8.1333 21.005
8.1485 21.216
8.1637 21.497
8.1789 21.488
8.1940 21.328
8.2092 21.327
8.2244 21.336
8.2396 21.228
8.2547 21.700
8.2699 21.566
8.2851 21.416
8.3003 21.525
8.3154 21.460
8.3306 21.628
8.3458 21.453
8.3610 21.726
8.3761 21.734
8.3913 21.866
8.4065 21.736
8.4217 21.736
8.4368 21.873
8.4520 21.722
8.4672 22.134
8.4824 21.957
8.4975 21.955
8.5127 22.025
8.5279 21.607
8.5431 22.076
8.5582 22.138
8.5734 22.063
8.5886 21.487
8.6038 22.296
8.6189 22.129
8.6341 21.701
8.6493 21.989
8.6645 22.238
8.6796 22.062
8.6948 21.696
8.7100 21.604
8.7252 22.359
8.7403 22.183
8.7555 22.525
8.7707 22.094
8.7859 21.999
8.8010 21.866
8.8162 22.270
8.8314 22.212
8.8466 22.357
8.8617 22.475
8.8769 22.395
8.8921 22.064
8.9073 22.050
8.9224 22.014
8.9376 22.482
8.9528 22.610
8.9680 22.131
8.9831 22.540
8.9983 22.377
9.0135 22.529
9.0287 22.588
9.0438 22.640
9.0590 22.453
9.0742 22.315
9.0894 22.692
9.1045 22.694
9.1197 22.772
9.1349 22.633
9.1501 22.844
9.1652 22.529
9.1804 22.535
9.1956 22.629
9.2108 22.514
9.2259 22.487
9.2411 22.782
9.2563 22.754
9.2715 22.485
9.2866 22.701
9.3018 23.200
9.3170 23.322
9.3322 22.907
9.3473 22.792
9.3625 22.918
9.3777 23.300
9.3929 22.977
9.4080 22.793
9.4232 22.946
9.4384 23.045
9.4536 23.028
9.4687 22.732
9.4839 22.875
9.4991 23.218
9.5143 23.123
9.5294 22.925
9.5446 22.675
9.5598 22.873
9.5750 22.977
9.5901 22.953
9.6053 22.985
9.6205 23.208
9.6357 23.616
9.6508 23.373
9.6660 23.223
9.6812 23.521
9.6964 23.707
9.7115 23.898
9.7267 24.214
9.7419 24.087
9.7571 23.779
9.7722 23.481
9.7874 23.694
9.8026 23.936
9.8178 23.403
9.8329 22.992
9.8481 23.091
9.8633 22.954
9.8785 22.863
9.8936 23.087
9.9088 23.011
9.9240 22.954
9.9392 23.120
9.9543 22.911
9.9695 22.988
9.9847 23.067
9.9999 23.085
10.0150 23.040
10.0302 22.719
10.0454 22.700
10.0606 22.757
10.0757 22.814
10.0909 23.186
10.1061 23.255
10.1213 23.166
10.1364 23.307
10.1516 23.221
10.1668 22.789
10.1820 22.803
10.1971 22.857
10.2123 23.139
10.2275 23.072
10.2427 22.661
10.2578 22.695
10.2730 22.628
10.2882 22.458
10.3034 22.316
10.3185 22.592
10.3337 22.528
10.3489 22.557
10.3641 22.615
10.3792 22.594
10.3944 22.789
10.4096 22.716
10.4248 22.471
10.4399 22.616
10.4551 22.860
10.4703 22.937
10.4855 22.640
10.5006 22.487
10.5158 22.611
10.5310 22.520
10.5462 22.484
10.5613 22.190
10.5765 22.140
10.5917 22.516
10.6069 22.269
10.6220 22.226
10.6372 22.399
10.6524 22.396
10.6676 22.594
10.6827 22.447
10.6979 22.516
10.7131 22.357
10.7283 22.544
10.7434 22.125
10.7586 22.223
10.7738 22.232
10.7890 22.376
10.8041 21.949
10.8193 21.917
10.8345 21.914
10.8497 22.198
10.8648 21.843
10.8800 21.959
10.8952 21.926
10.9104 21.687
10.9255 22.128
10.9407 22.068
10.9559 21.755
10.9711 21.717
10.9862 22.035
11.0014 22.219
11.0166 22.268
11.0318 22.060
11.0469 21.838
11.0621 21.771
11.0773 21.601
11.0925 21.914
11.1076 21.612
11.1228 21.400
11.1380 21.522
11.1532 21.925
11.1683 21.756
11.1835 21.757
11.1987 21.905
11.2139 21.570
11.2290 21.438
11.2442 21.761
11.2594 21.902
11.2746 21.656
11.2897 21.949
11.3049 22.135
11.3201 21.418
11.3353 21.349
11.3504 21.321
11.3656 21.401
11.3808 21.564
11.3960 21.267
11.4111 21.115
11.4263 21.174
11.4415 20.872
11.4567 21.030
11.4718 21.219
11.4870 21.119
11.5022 21.157
11.5174 20.969
11.5325 21.072
11.5477 21.080
11.5629 21.110
11.5781 21.103
11.5932 20.887
11.6084 20.812
11.6236 20.897
11.6388 21.048
11.6539 20.879
11.6691 21.119
11.6843 20.577
11.6995 20.499
11.7146 20.239
11.7298 20.079
11.7450 20.487
11.7602 20.198
11.7753 20.288
11.7905 20.322
11.8057 19.773
11.8209 19.756
11.8360 19.954
11.8512 20.099
11.8664 20.099
11.8816 19.687
11.8967 19.608
11.9119 19.605
11.9271 19.756
11.9423 19.478
11.9574 19.273
11.9726 19.283
11.9878 19.391
12.0030 19.243
12.0181 18.953
12.0333 19.100
12.0485 18.836
12.0637 18.897
12.0788 18.777
12.0940 18.762
12.1092 18.682
12.1244 18.784
12.1395 18.565
12.1547 18.377
12.1699 18.302
12.1851 18.166
12.2002 17.823
12.2154 17.902
12.2306 17.862
12.2458 17.687
12.2609 18.065
12.2761 17.762
12.2913 17.560
12.3065 17.764
12.3216 17.660
12.3368 17.495
12.3520 17.478
12.3672 17.363
12.3823 17.357
12.3975 16.893
12.4127 16.745
12.4279 16.751
12.4430 16.458
12.4582 16.663
12.4734 16.848
12.4886 16.654
12.5037 16.427
12.5189 16.507
12.5341 16.339
12.5493 16.537
12.5644 16.168
12.5796 16.144
12.5948 16.035
12.6100 15.904
12.6251 15.907
12.6403 15.953
12.6555 15.820
12.6707 15.741
12.6858 15.599
12.7010 15.441
12.7162 15.348
12.7314 15.149
12.7465 14.995
12.7617 15.006
12.7769 15.318
12.7921 15.380
12.8072 15.077
12.8224 14.960
12.8376 14.912
12.8528 14.810
12.8679 14.772
12.8831 14.899
12.8983 14.736
12.9135 14.658
12.9286 14.512
12.9438 14.513
12.9590 14.702
12.9742 14.539
12.9893 14.246
13.0045 14.247
13.0197 14.246
13.0349 14.190
13.0500 14.034
13.0652 13.773
13.0804 13.864
13.0956 13.858
13.1107 13.868
13.1259 13.819
13.1411 13.673
13.1563 13.769
13.1714 13.869
13.1866 13.570
13.2018 13.360
13.2170 13.563
13.2321 13.271
13.2473 13.164
13.2625 13.195
13.2777 13.063
13.2928 13.292
13.3080 13.252
13.3232 13.182
13.3384 13.259
13.3535 13.119
13.3687 13.014
13.3839 12.831
13.3991 12.803
13.4142 12.972
13.4294 12.825
13.4446 12.830
13.4598 12.960
13.4749 12.912
13.4901 12.622
13.5053 12.478
13.5205 12.344
13.5356 12.368
13.5508 12.330
13.5660 12.498
13.5812 12.449
13.5963 12.012
13.6115 12.209
13.6267 12.324
13.6419 11.986
13.6570 11.668
13.6722 11.856
13.6874 11.915
13.7026 11.776
13.7177 11.766
13.7329 11.913
13.7481 11.694
13.7633 11.922
13.7784 12.092
13.7936 12.097
13.8088 12.270
13.8239 12.233
13.8391 12.042
13.8543 12.335
13.8695 12.309
13.8846 12.208
13.8998 12.424
13.9150 12.114
13.9302 12.123
13.9453 11.818
13.9605 11.887
13.9757 11.834
13.9909 11.822
14.0060 11.746
14.0212 11.567
14.0364 11.744
14.0516 11.864
14.0667 11.695
14.0819 11.788
14.0971 11.761
14.1123 11.541
14.1274 11.599
14.1426 11.794
14.1578 11.839
14.1730 11.928
14.1881 11.766
14.2033 11.921
14.2185 11.882
14.2337 12.078
14.2488 11.907
14.2640 12.021
14.2792 11.893
14.2944 11.940
14.3095 11.778
14.3247 12.110
14.3399 12.066
14.3551 12.129
14.3702 12.588
14.3854 12.759
14.4006 13.097
14.4158 13.147
14.4309 12.916
14.4461 12.686
14.4613 12.530
14.4765 12.398
14.4916 12.128
14.5068 11.710
14.5220 11.450
14.5372 11.358
14.5523 11.580
14.5675 11.357
14.5827 11.253
14.5979 11.086
14.6130 11.181
14.6282 10.806
14.6434 10.874
14.6586 10.811
14.6737 10.853
14.6889 10.876
14.7041 10.733
14.7193 10.786
14.7344 10.523
14.7496 10.821
14.7648 10.634
14.7800 10.801
14.7951 10.586
14.8103 10.583
14.8255 10.463
14.8407 10.312
14.8558 10.417
14.8710 10.357
14.8862 10.585
14.9014 10.754
14.9165 10.484
14.9317 10.388
14.9469 10.492
14.9621 10.417
14.9772 10.165
14.9924 10.118
15.0076 10.332
15.0228 10.266
15.0379 10.015
15.0531 10.224
15.0683 10.218
15.0835 10.228
15.0986 10.421
15.1138 10.153
15.1290 9.836
15.1442 10.224
15.1593 10.107
15.1745 10.272
15.1897 9.926
15.2049 10.076
15.2200 10.419
15.2352 9.741
15.2504 9.938
15.2656 10.163
15.2807 10.267
15.2959 9.862
15.3111 10.010
15.3263 9.904
15.3414 10.113
15.3566 9.782
15.3718 10.237
15.3870 9.957
15.4021 10.071
15.4173 9.833
15.4325 10.057
15.4477 10.109
15.4628 9.985
15.4780 9.970
15.4932 10.139
15.5084 10.196
15.5235 10.013
15.5387 10.136
15.5539 10.119
15.5691 9.845
15.5842 9.679
15.5994 10.037
15.6146 10.263
15.6298 9.965
15.6449 9.600
15.6601 9.797
15.6753 9.773
15.6905 9.689
15.7056 9.609
15.7208 9.625
15.7360 9.357
15.7512 9.615
15.7663 9.624
15.7815 9.545
15.7967 9.539
15.8119 9.684
15.8270 9.874
15.8422 9.759
15.8574 9.409
15.8726 9.551
15.8877 9.520
15.9029 9.496
15.9181 9.617
15.9333 9.440
15.9484 9.411
15.9636 9.510
15.9788 9.804
15.9940 9.774
16.0091 9.798
16.0243 9.626
16.0395 9.562
16.0547 9.601
16.0698 9.676
16.0850 9.704
16.1002 9.644
16.1154 9.651
16.1305 9.847
16.1457 9.657
16.1609 9.599
16.1761 9.607
16.1912 9.511
16.2064 9.531
16.2216 9.677
16.2368 9.858
16.2519 9.945
16.2671 10.071
16.2823 9.845
16.2975 9.675
16.3126 9.939
16.3278 9.722
16.3430 9.811
16.3582 9.768
16.3733 9.804
16.3885 9.733
16.4037 9.738
16.4189 9.577
16.4340 9.598
16.4492 9.707
16.4644 9.774
16.4796 9.579
16.4947 9.546
16.5099 9.546
16.5251 9.549
16.5403 9.479
16.5554 9.768
16.5706 9.795
16.5858 9.590
16.6010 9.484
16.6161 9.393
16.6313 9.584
16.6465 9.889
16.6617 9.794
16.6768 9.739
16.6920 10.077
16.7072 10.066
16.7224 9.863
16.7375 9.879
16.7527 9.778
16.7679 9.840
16.7831 9.622
16.7982 9.826
16.8134 10.041
16.8286 9.687
16.8438 9.411
16.8589 9.597
16.8741 9.837
16.8893 9.757
16.9045 9.909
16.9196 9.780
16.9348 9.765
16.9500 9.929
16.9652 9.973
16.9803 9.849
16.9955 9.782
17.0107 9.941
17.0259 10.006
17.0410 9.986
17.0562 10.091
17.0714 10.309
17.0866 10.417
17.1017 10.494
17.1169 10.749
17.1321 10.953
17.1473 11.213
17.1624 11.660
17.1776 12.236
17.1928 13.041
17.2080 13.947
17.2231 15.091
17.2383 16.202
17.2535 17.395
17.2687 18.569
17.2838 18.436
17.2990 17.775
17.3142 17.148
17.3294 16.556
17.3445 16.298
17.3597 16.214
17.3749 16.044
17.3901 15.271
17.4052 14.206
17.4204 13.364
17.4356 12.619
17.4508 12.091
17.4659 11.803
17.4811 11.437
17.4963 11.445
17.5115 11.254
17.5266 11.043
17.5418 11.117
17.5570 10.802
17.5722 10.953
17.5873 11.161
17.6025 11.072
17.6177 11.203
17.6329 11.274
17.6480 11.408
17.6632 11.379
17.6784 11.240
17.6936 11.331
17.7087 11.479
17.7239 11.429
17.7391 11.158
17.7543 11.220
17.7694 11.247
17.7846 11.092
17.7998 10.943
17.8150 10.696
17.8301 10.480
17.8453 10.380
17.8605 10.349
17.8757 10.331
17.8908 10.554
17.9060 10.474
17.9212 10.230
17.9364 9.928
17.9515 9.944
17.9667 10.121
17.9819 10.164
17.9971 10.351
18.0122 10.327
18.0274 10.174
18.0426 10.173
18.0578 10.425
18.0729 10.432
18.0881 10.123
18.1033 9.871
18.1185 9.762
18.1336 10.147
18.1488 10.187
18.1640 9.983
18.1792 10.074
18.1943 9.858
18.2095 9.794
18.2247 9.802
18.2399 9.743
18.2550 9.686
18.2702 9.821
18.2854 10.060
18.3006 10.127
18.3157 10.017
18.3309 9.989
18.3461 9.807
18.3613 9.918
18.3764 9.862
18.3916 9.860
18.4068 10.039
18.4220 9.771
18.4371 9.700
18.4523 9.937
18.4675 9.923
18.4827 9.829
18.4978 9.881
18.5130 9.928
18.5282 9.796
18.5434 9.648
18.5585 9.666
18.5737 9.742
18.5889 9.737
18.6041 9.724
18.6192 9.647
18.6344 9.686
18.6496 9.805
18.6648 9.779
18.6799 9.878
18.6951 9.781
18.7103 9.914
18.7255 9.919
18.7406 9.630
18.7558 9.587
18.7710 9.871
18.7862 10.053
18.8013 9.697
18.8165 9.580
18.8317 9.737
18.8469 9.773
18.8620 9.696
18.8772 9.925
18.8924 10.190
18.9076 10.068
18.9227 10.125
18.9379 10.163
18.9531 10.167
18.9683 10.198
18.9834 10.118
18.9986 10.131
19.0138 9.841
19.0290 9.803
19.0441 10.017
19.0593 10.197
19.0745 10.193
19.0897 10.220
19.1048 10.279
19.1200 10.252
19.1352 10.148
19.1504 10.271
19.1655 10.567
19.1807 10.693
19.1959 10.567
19.2111 10.749
19.2262 10.873
19.2414 10.540
19.2566 10.746
19.2718 10.896
19.2869 10.894
19.3021 10.978
19.3173 10.976
19.3325 10.823
19.3476 10.915
19.3628 11.061
19.3780 11.014
19.3932 11.104
19.4083 11.135
19.4235 10.752
19.4387 10.810
19.4539 11.138
19.4690 11.273
19.4842 11.263
19.4994 11.357
19.5146 11.282
19.5297 11.288
19.5449 11.556
19.5601 11.465
19.5753 11.473
19.5904 11.467
19.6056 11.377
19.6208 11.410
19.6360 11.734
19.6511 11.824
19.6663 11.523
19.6815 11.765
19.6967 11.954
19.7118 11.724
19.7270 11.799
19.7422 11.877
19.7574 11.864
19.7725 11.789
19.7877 11.727
19.8029 11.831
19.8180 11.947
19.8332 12.075
19.8484 12.021
19.8636 12.197
19.8787 12.629
19.8939 12.643
19.9091 13.138
19.9243 13.508
19.9394 13.706
19.9546 13.855
19.9698 13.988
19.9850 14.227
20.0001 14.235
20.0153 14.038
20.0305 14.092
20.0457 13.948
20.0608 13.838
20.0760 13.778
20.0912 13.624
20.1064 13.606
20.1215 13.462
20.1367 13.283
20.1519 13.094
20.1671 13.002
20.1822 12.787
20.1974 12.707
20.2126 12.801
20.2278 12.704
20.2429 12.642
20.2581 12.382
20.2733 12.121
20.2885 11.710
20.3036 11.716
20.3188 11.658
20.3340 11.961
20.3492 12.247
20.3643 12.172
20.3795 11.959
20.3947 11.812
20.4099 11.796
20.4250 11.660
20.4402 12.013
20.4554 11.905
20.4706 11.720
20.4857 11.564
20.5009 11.687
20.5161 11.589
20.5313 11.446
20.5464 11.428
20.5616 10.978
20.5768 10.928
20.5920 11.233
20.6071 11.297
20.6223 10.861
20.6375 10.914
20.6527 10.579
20.6678 10.660
20.6830 10.732
20.6982 10.407
20.7134 10.534
20.7285 10.451
20.7437 10.255
20.7589 10.273
20.7741 10.501
20.7892 10.312
20.8044 10.256
20.8196 10.044
20.8348 10.012
20.8499 10.420
20.8651 10.526
20.8803 10.167
20.8955 10.169
20.9106 10.379
20.9258 10.031
20.9410 10.194
20.9562 9.916
20.9713 10.319
20.9865 10.272
21.0017 10.215
21.0169 10.195
21.0320 9.964
21.0472 9.906
21.0624 10.150
21.0776 9.820
21.0927 9.883
21.1079 9.633
21.1231 10.268
21.1383 9.744
21.1534 9.663
21.1686 10.134
21.1838 9.710
21.1990 9.928
21.2141 9.532
21.2293 9.845
21.2445 9.735
21.2597 9.672
21.2748 9.434
21.2900 9.727
21.3052 9.212
21.3204 9.349
21.3355 9.577
21.3507 9.899
21.3659 9.240
21.3811 9.759
21.3962 9.437
21.4114 9.106
21.4266 9.196
21.4418 9.429
21.4569 9.401
21.4721 9.440
21.4873 9.385
21.5025 9.546
21.5176 9.382
21.5328 9.443
21.5480 9.055
21.5632 9.250
21.5783 9.278
21.5935 9.365
21.6087 9.320
21.6239 9.268
21.6390 9.223
21.6542 9.332
21.6694 9.402
21.6846 9.295
21.6997 9.222
21.7149 9.208
21.7301 9.055
21.7453 9.068
21.7604 8.834
21.7756 8.904
21.7908 8.825
21.8060 8.967
21.8211 9.144
21.8363 8.889
21.8515 8.977
21.8667 9.033
21.8818 9.160
21.8970 9.236
21.9122 9.070
21.9274 8.809
21.9425 8.871
21.9577 8.948
21.9729 8.795
21.9881 8.837
22.0032 8.848
22.0184 8.786
22.0336 8.756
22.0488 8.771
22.0639 8.574
22.0791 8.492
22.0943 8.675
22.1095 8.768
22.1246 8.785
22.1398 8.693
22.1550 8.740
22.1702 8.802
22.1853 8.768
22.2005 8.772
22.2157 8.623
22.2309 8.527
22.2460 8.385
22.2612 8.338
22.2764 8.498
22.2916 8.518
22.3067 8.491
22.3219 8.417
22.3371 8.465
22.3523 8.472
22.3674 8.384
22.3826 8.515
22.3978 8.595
22.4130 8.452
22.4281 8.273
22.4433 8.354
22.4585 8.450
22.4737 8.376
22.4888 8.198
22.5040 8.450
22.5192 8.434
22.5344 8.317
22.5495 8.705
22.5647 8.320
22.5799 8.349
22.5951 8.538
22.6102 8.461
22.6254 8.560
22.6406 8.553
22.6558 8.473
22.6709 8.163
22.6861 8.264
22.7013 8.033
22.7165 8.133
22.7316 6.499
