'Id: "" Comment: "" Operator: "Lab Manager" Anode: "Mo" Scantype: "Still (Eiger2R_500K (1D mode))" TimePerStep: "300" X: "11.8" Y: "9.4" Z: "11.284" 
7.2532 18.993
7.2684 18.898
7.2836 18.754
7.2987 18.610
7.3139 19.289
7.3291 19.120
7.3443 19.336
7.3594 19.618
7.3746 19.560
7.3898 19.483
7.4050 19.677
7.4201 19.670
7.4353 19.341
7.4505 19.620
7.4657 19.729
7.4808 19.568
7.4960 19.335
7.5112 19.558
7.5264 19.838
7.5415 19.877
7.5567 19.827
7.5719 19.729
7.5871 19.740
7.6022 20.310
7.6174 20.032
7.6326 20.011
7.6478 20.304
7.6629 20.442
7.6781 20.347
7.6933 20.401
7.7085 20.446
7.7236 20.519
7.7388 20.440
7.7540 20.420
7.7692 20.452
7.7843 20.404
7.7995 20.677
7.8147 20.844
7.8299 20.762
7.8450 20.724
7.8602 20.765
7.8754 21.015
7.8905 21.026
7.9057 21.006
7.9209 21.104
7.9361 21.274
7.9512 21.359
7.9664 21.298
7.9816 21.084
7.9968 20.955
8.0119 21.074
8.0271 21.136
8.0423 20.970
8.0575 21.145
8.0726 21.211
8.0878 20.741
8.1030 21.022
8.1182 21.164
8.1333 21.533
8.1485 21.667
8.1637 21.429
8.1789 21.109
8.1940 21.711
8.2092 21.904
8.2244 21.908
8.2396 21.566
8.2547 21.411
8.2699 21.714
8.2851 21.833
8.3003 21.534
8.3154 22.033
8.3306 21.867
8.3458 22.006
8.3610 21.649
8.3761 21.745
8.3913 21.850
8.4065 21.601
8.4217 22.038
8.4368 22.333
8.4520 22.323
8.4672 22.235
8.4824 22.177
8.4975 22.586
8.5127 22.123
8.5279 22.730
8.5431 22.482
8.5582 21.996
8.5734 21.840
8.5886 21.833
8.6038 22.867
8.6189 22.254
8.6341 22.131
8.6493 22.444
8.6645 22.253
8.6796 22.995
8.6948 23.228
8.7100 22.777
8.7252 22.765
8.7403 22.721
8.7555 22.719
8.7707 22.542
8.7859 23.265
8.8010 22.542
8.8162 22.131
8.8314 22.200
8.8466 22.344
8.8617 23.026
8.8769 22.434
8.8921 22.251
8.9073 22.840
8.9224 22.558
8.9376 22.825
8.9528 22.533
8.9680 22.649
8.9831 23.025
8.9983 22.747
9.0135 23.160
9.0287 22.695
9.0438 22.601
9.0590 23.060
9.0742 22.885
9.0894 23.052
9.1045 23.213
9.1197 22.920
9.1349 23.013
9.1501 22.941
9.1652 22.803
9.1804 23.013
9.1956 22.861
9.2108 22.613
9.2259 23.189
9.2411 23.022
9.2563 22.837
9.2715 22.909
9.2866 23.087
9.3018 23.079
9.3170 23.194
9.3322 23.239
9.3473 23.129
9.3625 23.048
9.3777 23.260
9.3929 23.099
9.4080 23.186
9.4232 23.513
9.4384 23.458
9.4536 23.119
9.4687 23.228
9.4839 23.211
9.4991 23.272
9.5143 23.323
9.5294 23.143
9.5446 23.169
9.5598 23.287
9.5750 23.529
9.5901 23.272
9.6053 23.264
9.6205 23.603
9.6357 23.934
9.6508 24.042
9.6660 23.799
9.6812 23.855
9.6964 23.836
9.7115 23.848
9.7267 23.973
9.7419 24.253
9.7571 24.073
9.7722 23.738
9.7874 23.761
9.8026 23.783
9.8178 23.849
9.8329 23.879
9.8481 23.532
9.8633 23.537
9.8785 23.733
9.8936 23.444
9.9088 23.250
9.9240 23.055
9.9392 23.100
9.9543 23.749
9.9695 23.952
9.9847 23.708
9.9999 23.787
10.0150 23.685
10.0302 23.724
10.0454 24.023
10.0606 23.774
10.0757 23.719
10.0909 23.883
10.1061 23.929
10.1213 23.708
10.1364 23.700
10.1516 23.919
10.1668 23.799
10.1820 23.792
10.1971 23.999
10.2123 23.988
10.2275 24.000
10.2427 24.086
10.2578 24.025
10.2730 23.785
10.2882 23.812
10.3034 23.614
10.3185 23.605
10.3337 23.338
10.3489 23.085
10.3641 22.876
10.3792 22.926
10.3944 22.999
10.4096 22.940
10.4248 23.006
10.4399 23.272
10.4551 23.438
10.4703 22.899
10.4855 22.894
10.5006 23.009
10.5158 23.091
10.5310 22.991
10.5462 22.990
10.5613 22.559
10.5765 22.638
10.5917 22.998
10.6069 22.967
10.6220 22.793
10.6372 22.820
10.6524 22.592
10.6676 22.750
10.6827 22.905
10.6979 22.886
10.7131 23.246
10.7283 22.524
10.7434 22.676
10.7586 22.741
10.7738 21.981
10.7890 22.270
10.8041 22.405
10.8193 22.550
10.8345 22.464
10.8497 22.140
10.8648 21.941
10.8800 22.205
10.8952 21.959
10.9104 22.263
10.9255 22.427
10.9407 22.308
10.9559 22.275
10.9711 22.172
10.9862 22.050
11.0014 22.290
11.0166 22.254
11.0318 22.364
11.0469 22.226
11.0621 21.921
11.0773 22.179
11.0925 21.869
11.1076 21.695
11.1228 21.609
11.1380 21.961
11.1532 22.096
11.1683 22.190
11.1835 21.909
11.1987 21.636
11.2139 22.013
11.2290 21.990
11.2442 21.996
11.2594 21.989
11.2746 21.744
11.2897 21.894
11.3049 21.553
11.3201 21.599
11.3353 22.061
11.3504 21.601
11.3656 21.342
11.3808 21.372
11.3960 21.103
11.4111 21.260
11.4263 21.500
11.4415 21.341
11.4567 21.230
11.4718 21.011
11.4870 21.379
11.5022 21.083
11.5174 21.037
11.5325 21.334
11.5477 21.002
11.5629 20.942
11.5781 21.106
11.5932 21.413
11.6084 20.956
11.6236 20.884
11.6388 20.991
11.6539 20.456
11.6691 20.929
11.6843 20.461
11.6995 20.455
11.7146 20.532
11.7298 20.602
11.7450 20.279
11.7602 20.502
11.7753 20.298
11.7905 20.121
11.8057 20.174
11.8209 19.930
11.8360 19.910
11.8512 19.711
11.8664 19.438
11.8816 19.447
11.8967 19.776
11.9119 19.854
11.9271 19.689
11.9423 19.564
11.9574 19.516
11.9726 19.644
11.9878 19.720
12.0030 19.424
12.0181 18.921
12.0333 19.223
12.0485 19.412
12.0637 19.102
12.0788 18.788
12.0940 18.738
12.1092 18.626
12.1244 18.687
12.1395 18.551
12.1547 18.427
12.1699 18.231
12.1851 18.272
12.2002 18.490
12.2154 18.436
12.2306 18.044
12.2458 17.994
12.2609 17.895
12.2761 17.914
12.2913 18.082
12.3065 18.169
12.3216 17.932
12.3368 17.715
12.3520 17.470
12.3672 17.427
12.3823 17.417
12.3975 17.355
12.4127 17.481
12.4279 17.171
12.4430 17.059
12.4582 17.332
12.4734 17.578
12.4886 17.517
12.5037 17.121
12.5189 16.844
12.5341 16.670
12.5493 16.592
12.5644 16.561
12.5796 16.321
12.5948 16.302
12.6100 16.217
12.6251 16.041
12.6403 16.128
12.6555 16.128
12.6707 15.746
12.6858 15.616
12.7010 15.550
12.7162 15.453
12.7314 15.696
12.7465 15.550
12.7617 15.267
12.7769 15.078
12.7921 15.129
12.8072 15.371
12.8224 15.335
12.8376 15.153
12.8528 14.969
12.8679 14.801
12.8831 14.814
12.8983 14.840
12.9135 15.055
12.9286 14.919
12.9438 14.539
12.9590 14.499
12.9742 14.628
12.9893 14.845
13.0045 14.733
13.0197 14.346
13.0349 14.354
13.0500 14.470
13.0652 14.172
13.0804 13.947
13.0956 13.969
13.1107 13.883
13.1259 13.689
13.1411 13.688
13.1563 13.628
13.1714 13.464
13.1866 13.525
13.2018 13.496
13.2170 13.436
13.2321 13.434
13.2473 13.233
13.2625 12.997
13.2777 12.988
13.2928 13.095
13.3080 13.081
13.3232 12.917
13.3384 12.807
13.3535 12.811
13.3687 12.838
13.3839 12.987
13.3991 13.307
13.4142 13.232
13.4294 12.716
13.4446 12.745
13.4598 12.982
13.4749 12.614
13.4901 12.273
13.5053 12.366
13.5205 12.314
13.5356 12.306
13.5508 12.337
13.5660 12.260
13.5812 12.046
13.5963 12.089
13.6115 12.265
13.6267 12.234
13.6419 12.220
13.6570 12.145
13.6722 12.049
13.6874 11.994
13.7026 12.156
13.7177 12.240
13.7329 12.017
13.7481 12.067
13.7633 12.100
13.7784 12.270
13.7936 12.050
13.8088 12.168
13.8239 12.222
13.8391 12.013
13.8543 12.184
13.8695 12.463
13.8846 12.191
13.8998 12.191
13.9150 12.256
13.9302 12.197
13.9453 11.824
13.9605 11.662
13.9757 11.606
13.9909 11.684
14.0060 11.859
14.0212 11.495
14.0364 11.216
14.0516 11.488
14.0667 11.744
14.0819 11.442
14.0971 11.698
14.1123 11.545
14.1274 11.659
14.1426 11.724
14.1578 11.511
14.1730 11.792
14.1881 11.615
14.2033 11.668
14.2185 11.847
14.2337 11.932
14.2488 11.858
14.2640 11.948
14.2792 11.915
14.2944 12.087
14.3095 12.115
14.3247 12.565
14.3399 12.665
14.3551 12.564
14.3702 13.027
14.3854 13.155
14.4006 13.250
14.4158 13.063
14.4309 13.019
14.4461 13.038
14.4613 13.050
14.4765 12.544
14.4916 12.517
14.5068 12.464
14.5220 12.340
14.5372 12.020
14.5523 11.707
14.5675 11.476
14.5827 11.430
14.5979 11.671
14.6130 11.632
14.6282 11.365
14.6434 11.166
14.6586 11.325
14.6737 10.736
14.6889 10.891
14.7041 11.171
14.7193 11.041
14.7344 11.087
14.7496 10.564
14.7648 10.826
14.7800 10.939
14.7951 10.481
14.8103 10.862
14.8255 10.812
14.8407 10.717
14.8558 10.850
14.8710 10.640
14.8862 10.483
14.9014 10.577
14.9165 11.093
14.9317 10.740
14.9469 10.579
14.9621 10.582
14.9772 10.796
14.9924 10.258
15.0076 10.551
15.0228 10.352
15.0379 10.528
15.0531 10.504
15.0683 10.339
15.0835 10.661
15.0986 10.663
15.1138 10.256
15.1290 10.324
15.1442 10.329
15.1593 10.681
15.1745 10.578
15.1897 10.538
15.2049 10.076
15.2200 10.598
15.2352 10.481
15.2504 10.455
15.2656 10.267
15.2807 10.300
15.2959 10.492
15.3111 10.444
15.3263 10.431
15.3414 10.310
15.3566 10.368
15.3718 10.375
15.3870 10.456
15.4021 10.289
15.4173 10.375
15.4325 10.628
15.4477 10.415
15.4628 10.389
15.4780 10.207
15.4932 10.427
15.5084 10.587
15.5235 10.436
15.5387 10.436
15.5539 10.408
15.5691 10.285
15.5842 10.031
15.5994 10.554
15.6146 10.426
15.6298 9.897
15.6449 10.097
15.6601 9.909
15.6753 9.765
15.6905 9.938
15.7056 9.725
15.7208 9.993
15.7360 9.909
15.7512 9.604
15.7663 9.850
15.7815 9.620
15.7967 9.823
15.8119 9.972
15.8270 9.814
15.8422 9.886
15.8574 9.864
15.8726 9.772
15.8877 9.859
15.9029 9.669
15.9181 9.675
15.9333 10.044
15.9484 9.814
15.9636 9.797
15.9788 9.809
15.9940 9.645
16.0091 9.623
16.0243 9.763
16.0395 9.644
16.0547 9.697
16.0698 9.682
16.0850 9.838
16.1002 9.565
16.1154 9.542
16.1305 9.658
16.1457 9.703
16.1609 9.496
16.1761 9.724
16.1912 9.770
16.2064 9.949
16.2216 9.846
16.2368 9.827
16.2519 9.923
16.2671 9.655
16.2823 9.960
16.2975 10.284
16.3126 10.101
16.3278 10.276
16.3430 10.301
16.3582 10.388
16.3733 10.355
16.3885 10.153
16.4037 10.071
16.4189 10.145
16.4340 9.906
16.4492 9.886
16.4644 9.900
16.4796 9.810
16.4947 9.871
16.5099 9.764
16.5251 9.587
16.5403 9.586
16.5554 9.637
16.5706 9.594
16.5858 9.755
16.6010 9.843
16.6161 9.691
16.6313 9.720
16.6465 9.802
16.6617 9.927
16.6768 9.938
16.6920 9.755
16.7072 9.936
16.7224 10.047
16.7375 9.972
16.7527 9.937
16.7679 10.062
16.7831 9.963
16.7982 9.893
16.8134 10.113
16.8286 9.946
16.8438 9.712
16.8589 9.915
16.8741 9.890
16.8893 9.831
16.9045 9.898
16.9196 9.812
16.9348 9.518
16.9500 9.500
16.9652 9.622
16.9803 9.926
16.9955 9.911
17.0107 9.788
17.0259 9.797
17.0410 10.158
17.0562 10.086
17.0714 9.964
17.0866 10.314
17.1017 10.645
17.1169 10.741
17.1321 10.995
17.1473 11.395
17.1624 11.754
17.1776 12.312
17.1928 13.009
17.2080 13.828
17.2231 14.895
17.2383 16.372
17.2535 17.691
17.2687 18.493
17.2838 18.602
17.2990 17.834
17.3142 17.021
17.3294 16.598
17.3445 16.293
17.3597 16.073
17.3749 15.944
17.3901 15.319
17.4052 14.118
17.4204 13.188
17.4356 12.511
17.4508 12.088
17.4659 11.713
17.4811 11.301
17.4963 11.599
17.5115 11.822
17.5266 11.356
17.5418 11.217
17.5570 11.306
17.5722 11.418
17.5873 11.743
17.6025 11.809
17.6177 11.600
17.6329 11.213
17.6480 11.008
17.6632 11.158
17.6784 11.074
17.6936 10.751
17.7087 10.924
17.7239 11.086
17.7391 10.888
17.7543 10.772
17.7694 10.807
17.7846 10.782
17.7998 10.875
17.8150 10.923
17.8301 10.937
17.8453 10.646
17.8605 10.472
17.8757 10.663
17.8908 10.646
17.9060 10.640
17.9212 10.602
17.9364 10.624
17.9515 10.685
17.9667 10.691
17.9819 10.503
17.9971 10.432
18.0122 10.505
18.0274 10.536
18.0426 10.357
18.0578 10.212
18.0729 10.236
18.0881 10.004
18.1033 9.970
18.1185 10.114
18.1336 10.277
18.1488 10.207
18.1640 9.996
18.1792 9.982
18.1943 9.923
18.2095 9.955
18.2247 10.041
18.2399 9.661
18.2550 9.640
18.2702 9.893
18.2854 9.741
18.3006 9.766
18.3157 9.784
18.3309 10.006
18.3461 9.979
18.3613 9.858
18.3764 9.662
18.3916 9.718
18.4068 9.809
18.4220 9.693
18.4371 9.661
18.4523 9.664
18.4675 9.729
18.4827 9.829
18.4978 9.895
18.5130 9.895
18.5282 9.910
18.5434 9.740
18.5585 9.642
18.5737 9.694
18.5889 9.810
18.6041 9.788
18.6192 9.903
18.6344 10.014
18.6496 9.715
18.6648 9.487
18.6799 9.512
18.6951 9.600
18.7103 9.481
18.7255 9.397
18.7406 9.522
18.7558 9.596
18.7710 9.604
18.7862 9.630
18.8013 9.565
18.8165 9.478
18.8317 9.643
18.8469 9.764
18.8620 9.730
18.8772 9.878
18.8924 9.878
18.9076 9.776
18.9227 9.980
18.9379 10.215
18.9531 9.895
18.9683 9.901
18.9834 9.979
18.9986 9.973
19.0138 9.955
19.0290 10.000
19.0441 10.258
19.0593 10.227
19.0745 10.248
19.0897 10.495
19.1048 10.434
19.1200 10.274
19.1352 10.387
19.1504 10.416
19.1655 10.490
19.1807 10.640
19.1959 10.742
19.2111 10.824
19.2262 10.726
19.2414 10.805
19.2566 11.105
19.2718 11.036
19.2869 10.739
19.3021 10.978
19.3173 11.131
19.3325 11.020
19.3476 10.834
19.3628 10.814
19.3780 11.030
19.3932 11.182
19.4083 11.211
19.4235 11.323
19.4387 11.342
19.4539 11.312
19.4690 11.506
19.4842 11.591
19.4994 11.573
19.5146 11.579
19.5297 11.530
19.5449 11.590
19.5601 11.450
19.5753 11.589
19.5904 11.802
19.6056 11.863
19.6208 11.754
19.6360 11.675
19.6511 11.786
19.6663 11.812
19.6815 11.751
19.6967 11.637
19.7118 11.635
19.7270 11.706
19.7422 11.559
19.7574 11.395
19.7725 11.561
19.7877 11.831
19.8029 11.850
19.8180 11.852
19.8332 11.888
19.8484 11.935
19.8636 12.272
19.8787 12.779
19.8939 12.982
19.9091 13.181
19.9243 13.462
19.9394 13.564
19.9546 13.736
19.9698 14.061
19.9850 14.367
20.0001 14.254
20.0153 13.932
20.0305 13.976
20.0457 13.821
20.0608 13.586
20.0760 13.708
20.0912 13.640
20.1064 13.548
20.1215 13.548
20.1367 13.364
20.1519 13.089
20.1671 12.765
20.1822 12.718
20.1974 12.805
20.2126 12.965
20.2278 12.819
20.2429 12.811
20.2581 12.237
20.2733 11.962
20.2885 12.193
20.3036 12.009
20.3188 11.818
20.3340 11.720
20.3492 11.685
20.3643 11.523
20.3795 11.421
20.3947 11.497
20.4099 11.262
20.4250 11.096
20.4402 10.979
20.4554 10.821
20.4706 10.865
20.4857 10.939
20.5009 10.578
20.5161 10.820
20.5313 10.892
20.5464 10.845
20.5616 11.026
20.5768 10.934
20.5920 10.848
20.6071 10.748
20.6223 10.671
20.6375 10.773
20.6527 10.938
20.6678 10.706
20.6830 10.838
20.6982 10.890
20.7134 10.602
20.7285 10.455
20.7437 10.456
20.7589 10.651
20.7741 10.514
20.7892 10.592
20.8044 10.627
20.8196 10.351
20.8348 10.336
20.8499 10.176
20.8651 10.141
20.8803 10.501
20.8955 10.384
20.9106 10.355
20.9258 10.366
20.9410 10.216
20.9562 10.310
20.9713 10.330
20.9865 10.094
21.0017 9.958
21.0169 9.767
21.0320 9.766
21.0472 10.120
21.0624 10.376
21.0776 9.724
21.0927 10.033
21.1079 9.654
21.1231 9.746
21.1383 9.721
21.1534 9.800
21.1686 9.917
21.1838 10.041
21.1990 9.858
21.2141 9.610
21.2293 9.654
21.2445 10.160
21.2597 9.892
21.2748 9.603
21.2900 9.793
21.3052 9.430
21.3204 9.593
21.3355 9.764
21.3507 9.640
21.3659 9.269
21.3811 9.920
21.3962 9.670
21.4114 9.693
21.4266 9.446
21.4418 9.345
21.4569 9.373
21.4721 9.516
21.4873 9.421
21.5025 9.371
21.5176 9.048
21.5328 9.273
21.5480 9.154
21.5632 9.262
21.5783 9.235
21.5935 9.057
21.6087 9.138
21.6239 9.214
21.6390 9.403
21.6542 9.107
21.6694 9.136
21.6846 8.997
21.6997 9.067
21.7149 9.017
21.7301 9.044
21.7453 9.259
21.7604 9.002
21.7756 9.074
21.7908 9.013
21.8060 9.044
21.8211 9.115
21.8363 8.909
21.8515 9.166
21.8667 9.181
21.8818 8.897
21.8970 8.884
21.9122 9.094
21.9274 8.983
21.9425 8.853
21.9577 9.004
21.9729 8.792
21.9881 8.805
22.0032 8.943
22.0184 8.949
22.0336 9.006
22.0488 8.780
22.0639 8.788
22.0791 8.821
22.0943 8.623
22.1095 8.611
22.1246 8.629
22.1398 8.743
22.1550 8.746
22.1702 8.709
22.1853 8.694
22.2005 8.413
22.2157 8.377
22.2309 8.541
22.2460 8.556
22.2612 8.651
22.2764 8.642
22.2916 8.620
22.3067 8.695
22.3219 8.606
22.3371 8.635
22.3523 8.725
22.3674 8.690
22.3826 8.363
22.3978 8.416
22.4130 8.615
22.4281 8.620
22.4433 8.529
22.4585 8.534
22.4737 8.470
22.4888 8.420
22.5040 8.621
22.5192 8.156
22.5344 8.022
22.5495 8.223
22.5647 8.553
22.5799 8.287
22.5951 8.556
22.6102 8.166
22.6254 8.554
22.6406 8.592
22.6558 8.577
22.6709 8.556
22.6861 8.368
22.7013 8.316
22.7165 7.973
22.7316 6.476
