'Id: "" Comment: "" Operator: "Lab Manager" Anode: "Mo" Scantype: "Still (Eiger2R_500K (1D mode))" TimePerStep: "300" X: "11.8" Y: "9.4" Z: "11.284" 
7.2532 19.042
7.2684 18.567
7.2836 18.874
7.2987 19.114
7.3139 19.487
7.3291 18.745
7.3443 19.157
7.3594 19.288
7.3746 19.372
7.3898 19.171
7.4050 18.776
7.4201 19.336
7.4353 19.292
7.4505 19.351
7.4657 19.490
7.4808 19.499
7.4960 19.401
7.5112 19.387
7.5264 19.347
7.5415 19.461
7.5567 19.837
7.5719 20.035
7.5871 20.031
7.6022 20.021
7.6174 20.127
7.6326 19.736
7.6478 19.828
7.6629 20.072
7.6781 20.120
7.6933 19.868
7.7085 20.126
7.7236 20.357
7.7388 20.110
7.7540 20.026
7.7692 20.199
7.7843 20.204
7.7995 20.543
7.8147 20.645
7.8299 20.385
7.8450 20.198
7.8602 20.330
7.8754 20.456
7.8905 20.471
7.9057 20.402
7.9209 20.708
7.9361 20.998
7.9512 20.496
7.9664 20.167
7.9816 20.414
7.9968 21.032
8.0119 20.946
8.0271 20.928
8.0423 20.809
8.0575 20.836
8.0726 20.882
8.0878 20.804
8.1030 20.853
8.1182 20.923
8.1333 21.086
8.1485 21.154
8.1637 21.368
8.1789 21.610
8.1940 21.111
8.2092 21.439
8.2244 21.213
8.2396 21.444
8.2547 21.262
8.2699 21.254
8.2851 21.615
8.3003 21.591
8.3154 21.430
8.3306 21.649
8.3458 21.525
8.3610 21.672
8.3761 21.978
8.3913 21.585
8.4065 21.716
8.4217 21.787
8.4368 21.992
8.4520 21.587
8.4672 21.940
8.4824 22.442
8.4975 21.914
8.5127 22.229
8.5279 21.424
8.5431 22.238
8.5582 21.572
8.5734 22.217
8.5886 21.952
8.6038 22.056
8.6189 22.354
8.6341 21.694
8.6493 22.087
8.6645 22.115
8.6796 21.989
8.6948 22.350
8.7100 21.860
8.7252 21.930
8.7403 22.931
8.7555 22.412
8.7707 22.581
8.7859 21.869
8.8010 22.739
8.8162 22.556
8.8314 22.447
8.8466 22.073
8.8617 22.329
8.8769 22.430
8.8921 22.689
8.9073 21.914
8.9224 22.198
8.9376 22.659
8.9528 22.423
8.9680 22.304
8.9831 22.594
8.9983 22.637
9.0135 22.742
9.0287 22.455
9.0438 22.024
9.0590 22.273
9.0742 22.315
9.0894 22.301
9.1045 22.812
9.1197 22.648
9.1349 22.657
9.1501 22.568
9.1652 22.485
9.1804 22.856
9.1956 22.827
9.2108 22.612
9.2259 22.897
9.2411 23.030
9.2563 22.897
9.2715 22.751
9.2866 22.740
9.3018 22.859
9.3170 22.782
9.3322 22.663
9.3473 22.633
9.3625 22.352
9.3777 22.636
9.3929 22.661
9.4080 22.711
9.4232 22.892
9.4384 22.859
9.4536 22.877
9.4687 22.913
9.4839 22.853
9.4991 22.989
9.5143 22.883
9.5294 22.872
9.5446 23.030
9.5598 23.375
9.5750 23.055
9.5901 23.242
9.6053 23.279
9.6205 22.943
9.6357 22.868
9.6508 22.898
9.6660 23.198
9.6812 23.406
9.6964 23.603
9.7115 23.857
9.7267 23.937
9.7419 23.837
9.7571 23.812
9.7722 23.685
9.7874 23.409
9.8026 23.490
9.8178 23.574
9.8329 23.401
9.8481 23.267
9.8633 23.413
9.8785 23.068
9.8936 23.116
9.9088 23.259
9.9240 22.821
9.9392 23.126
9.9543 23.435
9.9695 23.224
9.9847 23.084
9.9999 23.048
10.0150 22.817
10.0302 22.762
10.0454 22.999
10.0606 22.756
10.0757 22.724
10.0909 23.294
10.1061 23.381
10.1213 23.416
10.1364 23.262
10.1516 23.057
10.1668 23.579
10.1820 23.584
10.1971 23.262
10.2123 23.094
10.2275 23.110
10.2427 23.089
10.2578 23.084
10.2730 22.898
10.2882 22.506
10.3034 22.588
10.3185 22.856
10.3337 22.720
10.3489 22.611
10.3641 22.684
10.3792 22.666
10.3944 22.837
10.4096 23.164
10.4248 22.954
10.4399 22.405
10.4551 22.420
10.4703 22.727
10.4855 22.299
10.5006 22.348
10.5158 22.457
10.5310 22.575
10.5462 22.531
10.5613 22.469
10.5765 22.222
10.5917 22.579
10.6069 22.486
10.6220 22.196
10.6372 22.493
10.6524 22.714
10.6676 22.708
10.6827 22.452
10.6979 22.564
10.7131 22.543
10.7283 21.974
10.7434 22.032
10.7586 22.234
10.7738 22.498
10.7890 22.520
10.8041 22.551
10.8193 22.452
10.8345 21.914
10.8497 21.894
10.8648 22.181
10.8800 22.031
10.8952 21.951
10.9104 22.317
10.9255 22.138
10.9407 22.025
10.9559 21.853
10.9711 22.124
10.9862 22.121
11.0014 21.960
11.0166 21.966
11.0318 22.020
11.0469 21.932
11.0621 21.678
11.0773 21.341
11.0925 21.417
11.1076 21.844
11.1228 21.739
11.1380 21.890
11.1532 21.660
11.1683 21.657
11.1835 21.632
11.1987 21.379
11.2139 21.654
11.2290 21.525
11.2442 21.238
11.2594 21.479
11.2746 21.130
11.2897 21.350
11.3049 21.319
11.3201 21.746
11.3353 21.438
11.3504 21.424
11.3656 21.125
11.3808 21.271
11.3960 20.916
11.4111 20.965
11.4263 21.576
11.4415 21.404
11.4567 21.340
11.4718 21.359
11.4870 21.096
11.5022 20.744
11.5174 21.136
11.5325 21.026
11.5477 21.171
11.5629 20.919
11.5781 20.837
11.5932 20.936
11.6084 20.868
11.6236 20.555
11.6388 20.875
11.6539 20.699
11.6691 20.179
11.6843 20.602
11.6995 20.589
11.7146 20.548
11.7298 20.600
11.7450 20.401
11.7602 20.204
11.7753 20.179
11.7905 19.950
11.8057 20.035
11.8209 20.084
11.8360 19.717
11.8512 19.933
11.8664 19.976
11.8816 19.974
11.8967 19.747
11.9119 19.434
11.9271 19.575
11.9423 19.468
11.9574 19.299
11.9726 19.488
11.9878 19.141
12.0030 19.034
12.0181 18.847
12.0333 18.880
12.0485 18.810
12.0637 18.667
12.0788 18.665
12.0940 18.704
12.1092 18.626
12.1244 18.828
12.1395 18.564
12.1547 18.234
12.1699 18.317
12.1851 18.075
12.2002 18.002
12.2154 17.967
12.2306 17.901
12.2458 17.967
12.2609 17.964
12.2761 17.905
12.2913 18.097
12.3065 18.138
12.3216 17.748
12.3368 17.493
12.3520 17.197
12.3672 17.242
12.3823 17.470
12.3975 17.345
12.4127 17.070
12.4279 16.947
12.4430 16.828
12.4582 16.636
12.4734 16.448
12.4886 16.397
12.5037 16.523
12.5189 16.618
12.5341 16.271
12.5493 16.320
12.5644 16.265
12.5796 16.315
12.5948 16.520
12.6100 16.227
12.6251 15.904
12.6403 15.786
12.6555 15.767
12.6707 15.849
12.6858 15.675
12.7010 15.690
12.7162 15.718
12.7314 15.482
12.7465 15.235
12.7617 15.196
12.7769 15.512
12.7921 15.420
12.8072 14.983
12.8224 14.976
12.8376 14.963
12.8528 15.020
12.8679 14.876
12.8831 14.651
12.8983 14.502
12.9135 14.462
12.9286 14.411
12.9438 14.487
12.9590 14.580
12.9742 14.471
12.9893 14.522
13.0045 14.442
13.0197 14.236
13.0349 14.252
13.0500 14.188
13.0652 14.039
13.0804 13.918
13.0956 13.873
13.1107 13.923
13.1259 13.895
13.1411 13.766
13.1563 13.645
13.1714 13.551
13.1866 13.413
13.2018 13.447
13.2170 13.505
13.2321 13.365
13.2473 13.215
13.2625 13.216
13.2777 13.352
13.2928 13.295
13.3080 13.114
13.3232 13.016
13.3384 13.137
13.3535 13.234
13.3687 13.236
13.3839 12.949
13.3991 12.568
13.4142 12.817
13.4294 12.777
13.4446 12.741
13.4598 12.934
13.4749 12.795
13.4901 12.669
13.5053 12.638
13.5205 12.408
13.5356 12.593
13.5508 12.743
13.5660 12.496
13.5812 12.290
13.5963 12.285
13.6115 12.224
13.6267 12.273
13.6419 12.195
13.6570 12.058
13.6722 12.179
13.6874 12.333
13.7026 12.344
13.7177 12.059
13.7329 11.861
13.7481 11.997
13.7633 11.877
13.7784 12.269
13.7936 12.255
13.8088 12.167
13.8239 12.171
13.8391 12.344
13.8543 12.509
13.8695 12.481
13.8846 12.129
13.8998 12.245
13.9150 11.950
13.9302 11.936
13.9453 12.215
13.9605 12.138
13.9757 12.109
13.9909 11.503
14.0060 11.384
14.0212 11.649
14.0364 11.537
14.0516 11.541
14.0667 11.458
14.0819 11.377
14.0971 11.609
14.1123 11.772
14.1274 11.568
14.1426 11.350
14.1578 11.203
14.1730 11.358
14.1881 11.717
14.2033 11.647
14.2185 11.654
14.2337 11.701
14.2488 11.768
14.2640 12.098
14.2792 12.055
14.2944 11.908
14.3095 12.017
14.3247 12.398
14.3399 12.182
14.3551 12.228
14.3702 12.633
14.3854 12.440
14.4006 13.004
14.4158 13.018
14.4309 12.552
14.4461 12.307
14.4613 12.514
14.4765 12.460
14.4916 11.745
14.5068 11.870
14.5220 11.748
14.5372 11.748
14.5523 11.594
14.5675 11.030
14.5827 11.167
14.5979 11.293
14.6130 10.973
14.6282 10.816
14.6434 10.858
14.6586 10.827
14.6737 10.594
14.6889 10.592
14.7041 10.430
14.7193 10.585
14.7344 10.662
14.7496 10.537
14.7648 10.905
14.7800 10.788
14.7951 10.715
14.8103 10.627
14.8255 10.337
14.8407 10.469
14.8558 10.513
14.8710 10.572
14.8862 10.314
14.9014 10.807
14.9165 10.587
14.9317 10.856
14.9469 10.563
14.9621 10.037
14.9772 10.061
14.9924 10.040
15.0076 10.166
15.0228 10.294
15.0379 10.363
15.0531 10.392
15.0683 10.492
15.0835 10.448
15.0986 10.217
15.1138 10.196
15.1290 10.010
15.1442 10.118
15.1593 10.376
15.1745 10.009
15.1897 9.817
15.2049 10.023
15.2200 10.087
15.2352 10.085
15.2504 9.939
15.2656 9.897
15.2807 10.150
15.2959 10.299
15.3111 10.301
15.3263 10.077
15.3414 10.133
15.3566 10.042
15.3718 9.643
15.3870 10.232
15.4021 10.029
15.4173 10.364
15.4325 10.244
15.4477 10.336
15.4628 10.210
15.4780 10.074
15.4932 10.159
15.5084 10.297
15.5235 10.334
15.5387 10.102
15.5539 9.745
15.5691 9.696
15.5842 9.671
15.5994 9.965
15.6146 9.673
15.6298 9.442
15.6449 9.792
15.6601 9.858
15.6753 9.876
15.6905 9.820
15.7056 9.740
15.7208 9.821
15.7360 9.546
15.7512 9.746
15.7663 9.938
15.7815 9.537
15.7967 9.591
15.8119 9.586
15.8270 9.594
15.8422 9.819
15.8574 9.581
15.8726 9.611
15.8877 9.387
15.9029 9.562
15.9181 9.712
15.9333 9.800
15.9484 9.618
15.9636 9.476
15.9788 9.512
15.9940 9.565
16.0091 9.674
16.0243 9.655
16.0395 9.594
16.0547 9.628
16.0698 9.432
16.0850 9.697
16.1002 9.552
16.1154 9.406
16.1305 9.747
16.1457 9.743
16.1609 9.529
16.1761 9.658
16.1912 9.428
16.2064 9.594
16.2216 9.937
16.2368 9.830
16.2519 9.850
16.2671 9.547
16.2823 9.500
16.2975 9.943
16.3126 9.943
16.3278 9.895
16.3430 9.488
16.3582 9.606
16.3733 9.648
16.3885 9.654
16.4037 10.030
16.4189 9.562
16.4340 9.442
16.4492 9.453
16.4644 9.522
16.4796 9.817
16.4947 9.874
16.5099 9.641
16.5251 9.492
16.5403 9.469
16.5554 9.406
16.5706 9.678
16.5858 9.516
16.6010 9.179
16.6161 9.420
16.6313 9.873
16.6465 9.831
16.6617 9.661
16.6768 9.526
16.6920 9.856
16.7072 10.051
16.7224 9.406
16.7375 9.617
16.7527 10.097
16.7679 9.913
16.7831 9.585
16.7982 9.555
16.8134 9.612
16.8286 9.813
16.8438 9.760
16.8589 9.592
16.8741 9.806
16.8893 9.678
16.9045 9.584
16.9196 9.540
16.9348 9.432
16.9500 9.670
16.9652 9.691
16.9803 9.888
16.9955 10.024
17.0107 9.819
17.0259 9.705
17.0410 9.745
17.0562 9.846
17.0714 10.018
17.0866 10.255
17.1017 10.337
17.1169 10.535
17.1321 10.973
17.1473 11.237
17.1624 11.669
17.1776 12.060
17.1928 12.730
17.2080 13.933
17.2231 15.023
17.2383 16.241
17.2535 17.412
17.2687 18.118
17.2838 18.316
17.2990 17.785
17.3142 16.994
17.3294 16.282
17.3445 16.051
17.3597 16.044
17.3749 15.635
17.3901 15.212
17.4052 14.385
17.4204 13.290
17.4356 12.405
17.4508 11.951
17.4659 11.931
17.4811 11.574
17.4963 11.309
17.5115 11.363
17.5266 11.135
17.5418 10.834
17.5570 10.810
17.5722 11.026
17.5873 11.119
17.6025 11.101
17.6177 11.210
17.6329 11.386
17.6480 11.274
17.6632 11.225
17.6784 11.512
17.6936 11.468
17.7087 11.318
17.7239 11.191
17.7391 11.144
17.7543 11.232
17.7694 11.242
17.7846 11.058
17.7998 10.912
17.8150 10.804
17.8301 10.387
17.8453 10.216
17.8605 10.398
17.8757 10.445
17.8908 10.446
17.9060 10.317
17.9212 10.166
17.9364 10.004
17.9515 10.102
17.9667 10.109
17.9819 10.021
17.9971 10.066
18.0122 10.067
18.0274 10.232
18.0426 10.300
18.0578 10.229
18.0729 10.051
18.0881 10.000
18.1033 9.860
18.1185 9.869
18.1336 9.892
18.1488 10.235
18.1640 10.195
18.1792 10.149
18.1943 9.994
18.2095 9.934
18.2247 9.868
18.2399 9.871
18.2550 9.899
18.2702 9.777
18.2854 9.981
18.3006 9.911
18.3157 9.780
18.3309 9.888
18.3461 9.942
18.3613 10.011
18.3764 10.132
18.3916 9.987
18.4068 9.733
18.4220 9.617
18.4371 9.644
18.4523 9.903
18.4675 10.031
18.4827 9.795
18.4978 9.687
18.5130 9.850
18.5282 9.846
18.5434 9.880
18.5585 10.061
18.5737 9.733
18.5889 9.588
18.6041 9.777
18.6192 9.840
18.6344 9.787
18.6496 9.895
18.6648 9.991
18.6799 9.634
18.6951 9.790
18.7103 9.915
18.7255 9.584
18.7406 9.639
18.7558 9.715
18.7710 9.699
18.7862 9.825
18.8013 9.644
18.8165 9.630
18.8317 9.863
18.8469 9.967
18.8620 10.053
18.8772 10.043
18.8924 9.944
18.9076 9.968
18.9227 9.771
18.9379 9.816
18.9531 10.115
18.9683 9.885
18.9834 9.934
18.9986 10.300
19.0138 10.294
19.0290 10.272
19.0441 10.260
19.0593 10.221
19.0745 10.248
19.0897 10.358
19.1048 10.318
19.1200 10.470
19.1352 10.496
19.1504 10.513
19.1655 10.880
19.1807 10.759
19.1959 10.659
19.2111 10.534
19.2262 10.576
19.2414 10.697
19.2566 10.580
19.2718 10.691
19.2869 10.902
19.3021 10.950
19.3173 10.747
19.3325 10.901
19.3476 11.212
19.3628 11.332
19.3780 11.363
19.3932 11.268
19.4083 11.264
19.4235 11.264
19.4387 11.369
19.4539 11.439
19.4690 11.452
19.4842 11.441
19.4994 11.523
19.5146 11.599
19.5297 11.711
19.5449 11.448
19.5601 11.561
19.5753 11.698
19.5904 11.690
19.6056 11.829
19.6208 11.816
19.6360 11.691
19.6511 11.591
19.6663 11.646
19.6815 11.874
19.6967 12.069
19.7118 11.886
19.7270 11.869
19.7422 12.123
19.7574 12.149
19.7725 12.036
19.7877 12.064
19.8029 12.170
19.8180 12.173
19.8332 12.144
19.8484 12.267
19.8636 12.467
19.8787 12.654
19.8939 13.025
19.9091 13.100
19.9243 13.390
19.9394 13.976
19.9546 14.458
19.9698 14.618
19.9850 14.538
20.0001 14.519
20.0153 14.185
20.0305 13.907
20.0457 13.937
20.0608 13.926
20.0760 13.901
20.0912 13.582
20.1064 13.639
20.1215 13.947
20.1367 13.769
20.1519 13.198
20.1671 12.897
20.1822 12.695
20.1974 12.877
20.2126 13.008
20.2278 12.855
20.2429 12.821
20.2581 12.168
20.2733 11.881
20.2885 12.039
20.3036 11.951
20.3188 12.020
20.3340 12.155
20.3492 12.209
20.3643 12.351
20.3795 11.984
20.3947 11.660
20.4099 11.876
20.4250 11.498
20.4402 11.471
20.4554 11.650
20.4706 11.840
20.4857 11.616
20.5009 11.432
20.5161 11.631
20.5313 11.427
20.5464 11.418
20.5616 11.446
20.5768 11.324
20.5920 11.181
20.6071 10.937
20.6223 10.754
20.6375 11.006
20.6527 11.037
20.6678 10.814
20.6830 10.742
20.6982 10.965
20.7134 10.806
20.7285 10.617
20.7437 10.811
20.7589 10.647
20.7741 10.608
20.7892 10.240
20.8044 10.415
20.8196 10.528
20.8348 10.234
20.8499 10.359
20.8651 10.296
20.8803 10.567
20.8955 10.486
20.9106 10.308
20.9258 10.199
20.9410 10.064
20.9562 10.010
20.9713 10.281
20.9865 10.142
21.0017 10.173
21.0169 10.237
21.0320 10.003
21.0472 10.020
21.0624 10.180
21.0776 10.045
21.0927 9.795
21.1079 9.760
21.1231 9.959
21.1383 10.047
21.1534 9.854
21.1686 9.754
21.1838 9.997
21.1990 9.727
21.2141 10.059
21.2293 9.753
21.2445 9.817
21.2597 10.235
21.2748 9.821
21.2900 9.615
21.3052 9.851
21.3204 9.949
21.3355 9.581
21.3507 9.542
21.3659 9.538
21.3811 9.636
21.3962 9.627
21.4114 9.486
21.4266 9.460
21.4418 9.748
21.4569 9.325
21.4721 9.473
21.4873 9.260
21.5025 9.626
21.5176 9.600
21.5328 9.532
21.5480 9.198
21.5632 9.418
21.5783 9.318
21.5935 9.276
21.6087 9.628
21.6239 9.412
21.6390 9.217
21.6542 9.344
21.6694 9.049
21.6846 9.091
21.6997 9.148
21.7149 9.216
21.7301 8.831
21.7453 8.944
21.7604 8.919
21.7756 8.984
21.7908 8.949
21.8060 8.882
21.8211 9.129
21.8363 9.248
21.8515 9.411
21.8667 9.171
21.8818 9.141
21.8970 9.295
21.9122 9.286
21.9274 9.158
21.9425 9.076
21.9577 8.978
21.9729 8.768
21.9881 8.817
22.0032 8.820
22.0184 9.041
22.0336 9.151
22.0488 8.799
22.0639 8.820
22.0791 9.046
22.0943 8.944
22.1095 8.720
22.1246 8.654
22.1398 8.613
22.1550 8.468
22.1702 8.684
22.1853 8.875
22.2005 8.734
22.2157 8.502
22.2309 8.550
22.2460 8.407
22.2612 8.219
22.2764 8.500
22.2916 8.513
22.3067 8.448
22.3219 8.319
22.3371 8.370
22.3523 8.660
22.3674 8.687
22.3826 8.701
22.3978 8.447
22.4130 8.406
22.4281 8.249
22.4433 8.752
22.4585 8.562
22.4737 8.395
22.4888 8.661
22.5040 8.245
22.5192 8.163
22.5344 8.600
22.5495 8.442
22.5647 8.495
22.5799 8.591
22.5951 8.521
22.6102 8.192
22.6254 8.312
22.6406 8.123
22.6558 8.126
22.6709 8.344
22.6861 8.386
22.7013 8.325
22.7165 7.944
22.7316 6.335
