'Id: "" Comment: "" Operator: "Lab Manager" Anode: "Mo" Scantype: "Still (Eiger2R_500K (1D mode))" TimePerStep: "300" X: "11.8" Y: "9.4" Z: "11.284" 
7.2532 19.063
7.2684 19.267
7.2836 19.594
7.2987 19.097
7.3139 18.965
7.3291 19.375
7.3443 19.666
7.3594 19.627
7.3746 19.487
7.3898 19.472
7.4050 19.630
7.4201 19.504
7.4353 19.620
7.4505 20.300
7.4657 19.806
7.4808 19.516
7.4960 19.551
7.5112 19.745
7.5264 19.967
7.5415 19.627
7.5567 19.645
7.5719 20.075
7.5871 20.317
7.6022 20.399
7.6174 20.217
7.6326 20.174
7.6478 20.343
7.6629 20.707
7.6781 20.578
7.6933 20.512
7.7085 20.479
7.7236 20.571
7.7388 20.884
7.7540 20.906
7.7692 20.992
7.7843 21.050
7.7995 20.963
7.8147 20.930
7.8299 20.610
7.8450 20.344
7.8602 20.701
7.8754 20.854
7.8905 20.853
7.9057 20.764
7.9209 20.871
7.9361 21.163
7.9512 21.271
7.9664 21.001
7.9816 20.745
7.9968 21.183
8.0119 21.436
8.0271 21.382
8.0423 21.298
8.0575 21.745
8.0726 21.574
8.0878 21.786
8.1030 21.682
8.1182 21.767
8.1333 22.060
8.1485 21.958
8.1637 22.198
8.1789 22.391
8.1940 22.158
8.2092 22.003
8.2244 21.939
8.2396 21.940
8.2547 22.111
8.2699 22.010
8.2851 22.042
8.3003 22.010
8.3154 22.140
8.3306 21.792
8.3458 22.326
8.3610 21.793
8.3761 22.072
8.3913 22.292
8.4065 22.060
8.4217 22.066
8.4368 22.542
8.4520 22.413
8.4672 22.228
8.4824 22.156
8.4975 22.308
8.5127 22.025
8.5279 22.106
8.5431 21.946
8.5582 22.416
8.5734 21.885
8.5886 22.365
8.6038 22.584
8.6189 22.736
8.6341 22.555
8.6493 22.794
8.6645 22.081
8.6796 22.383
8.6948 22.580
8.7100 22.243
8.7252 22.247
8.7403 22.334
8.7555 22.739
8.7707 22.149
8.7859 22.809
8.8010 23.027
8.8162 23.081
8.8314 23.217
8.8466 22.817
8.8617 22.946
8.8769 22.973
8.8921 22.753
8.9073 22.588
8.9224 23.161
8.9376 22.898
8.9528 22.686
8.9680 22.835
8.9831 22.533
8.9983 22.789
9.0135 22.794
9.0287 22.986
9.0438 23.078
9.0590 23.225
9.0742 22.811
9.0894 22.986
9.1045 23.027
9.1197 22.850
9.1349 23.491
9.1501 23.149
9.1652 23.030
9.1804 23.191
9.1956 23.151
9.2108 23.042
9.2259 23.043
9.2411 23.295
9.2563 23.189
9.2715 23.375
9.2866 23.564
9.3018 23.336
9.3170 23.420
9.3322 23.289
9.3473 23.075
9.3625 23.652
9.3777 23.654
9.3929 23.639
9.4080 23.636
9.4232 23.263
9.4384 23.201
9.4536 23.437
9.4687 23.411
9.4839 23.562
9.4991 23.529
9.5143 23.376
9.5294 23.712
9.5446 23.950
9.5598 23.659
9.5750 23.681
9.5901 24.067
9.6053 23.892
9.6205 23.779
9.6357 24.111
9.6508 24.244
9.6660 24.054
9.6812 24.129
9.6964 24.493
9.7115 24.258
9.7267 24.255
9.7419 24.638
9.7571 24.557
9.7722 24.289
9.7874 23.989
9.8026 24.107
9.8178 24.414
9.8329 24.272
9.8481 23.931
9.8633 24.225
9.8785 24.533
9.8936 24.491
9.9088 24.759
9.9240 24.758
9.9392 24.757
9.9543 24.582
9.9695 24.289
9.9847 24.704
9.9999 24.613
10.0150 23.938
10.0302 23.805
10.0454 23.499
10.0606 23.546
10.0757 23.896
10.0909 23.866
10.1061 23.928
10.1213 24.111
10.1364 24.329
10.1516 24.340
10.1668 24.314
10.1820 24.213
10.1971 24.031
10.2123 23.861
10.2275 23.669
10.2427 23.815
10.2578 23.979
10.2730 23.439
10.2882 23.528
10.3034 23.530
10.3185 23.138
10.3337 23.426
10.3489 23.409
10.3641 23.181
10.3792 23.156
10.3944 23.400
10.4096 23.254
10.4248 23.411
10.4399 23.398
10.4551 23.183
10.4703 23.170
10.4855 23.158
10.5006 23.057
10.5158 23.046
10.5310 23.075
10.5462 23.122
10.5613 23.180
10.5765 23.055
10.5917 23.134
10.6069 23.279
10.6220 23.059
10.6372 22.870
10.6524 22.472
10.6676 22.877
10.6827 23.209
10.6979 22.997
10.7131 22.728
10.7283 22.665
10.7434 23.044
10.7586 22.893
10.7738 22.668
10.7890 22.838
10.8041 22.484
10.8193 22.427
10.8345 22.755
10.8497 22.561
10.8648 22.698
10.8800 22.560
10.8952 22.474
10.9104 22.552
10.9255 22.415
10.9407 22.476
10.9559 22.703
10.9711 22.680
10.9862 22.307
11.0014 22.188
11.0166 22.369
11.0318 22.467
11.0469 22.113
11.0621 21.892
11.0773 22.048
11.0925 21.855
11.1076 21.766
11.1228 22.369
11.1380 22.226
11.1532 21.962
11.1683 21.751
11.1835 22.063
11.1987 21.881
11.2139 21.856
11.2290 21.636
11.2442 21.483
11.2594 21.463
11.2746 21.704
11.2897 21.663
11.3049 21.674
11.3201 21.562
11.3353 21.789
11.3504 21.581
11.3656 21.818
11.3808 22.004
11.3960 22.411
11.4111 21.807
11.4263 21.293
11.4415 21.656
11.4567 21.500
11.4718 21.734
11.4870 21.400
11.5022 21.228
11.5174 21.489
11.5325 21.390
11.5477 21.765
11.5629 21.674
11.5781 21.675
11.5932 21.373
11.6084 21.193
11.6236 20.936
11.6388 20.861
11.6539 21.114
11.6691 20.939
11.6843 20.623
11.6995 20.776
11.7146 20.523
11.7298 20.428
11.7450 20.526
11.7602 20.496
11.7753 20.199
11.7905 20.108
11.8057 20.478
11.8209 20.191
11.8360 20.198
11.8512 20.308
11.8664 20.161
11.8816 19.966
11.8967 19.967
11.9119 19.581
11.9271 19.618
11.9423 19.809
11.9574 19.832
11.9726 19.634
11.9878 19.600
12.0030 19.677
12.0181 19.558
12.0333 19.318
12.0485 19.269
12.0637 19.141
12.0788 18.934
12.0940 18.973
12.1092 18.669
12.1244 18.464
12.1395 18.793
12.1547 18.875
12.1699 18.767
12.1851 18.758
12.2002 18.548
12.2154 18.303
12.2306 18.008
12.2458 17.943
12.2609 18.029
12.2761 18.056
12.2913 17.813
12.3065 18.016
12.3216 17.777
12.3368 17.815
12.3520 17.716
12.3672 17.511
12.3823 17.302
12.3975 17.069
12.4127 17.429
12.4279 17.165
12.4430 16.946
12.4582 17.124
12.4734 17.067
12.4886 16.744
12.5037 16.702
12.5189 16.438
12.5341 16.114
12.5493 16.320
12.5644 16.258
12.5796 16.617
12.5948 16.308
12.6100 16.064
12.6251 16.131
12.6403 16.064
12.6555 15.992
12.6707 15.774
12.6858 15.883
12.7010 15.742
12.7162 15.462
12.7314 15.478
12.7465 15.410
12.7617 15.360
12.7769 15.334
12.7921 15.275
12.8072 15.087
12.8224 15.140
12.8376 15.053
12.8528 15.066
12.8679 15.099
12.8831 15.072
12.8983 15.027
12.9135 14.698
12.9286 14.410
12.9438 14.444
12.9590 14.414
12.9742 14.434
12.9893 14.495
13.0045 14.323
13.0197 14.346
13.0349 14.338
13.0500 14.141
13.0652 14.048
13.0804 14.034
13.0956 13.759
13.1107 13.665
13.1259 13.845
13.1411 13.798
13.1563 13.873
13.1714 13.862
13.1866 13.631
13.2018 13.548
13.2170 13.481
13.2321 13.397
13.2473 13.549
13.2625 13.671
13.2777 13.542
13.2928 13.175
13.3080 13.035
13.3232 13.287
13.3384 13.338
13.3535 13.156
13.3687 13.164
13.3839 13.148
13.3991 12.943
13.4142 13.018
13.4294 12.992
13.4446 12.919
13.4598 12.752
13.4749 12.675
13.4901 12.473
13.5053 12.622
13.5205 12.752
13.5356 12.595
13.5508 12.561
13.5660 12.517
13.5812 12.369
13.5963 12.404
13.6115 12.384
13.6267 12.437
13.6419 12.217
13.6570 12.277
13.6722 12.119
13.6874 12.022
13.7026 12.112
13.7177 12.153
13.7329 12.095
13.7481 11.861
13.7633 11.950
13.7784 12.118
13.7936 12.088
13.8088 12.260
13.8239 12.583
13.8391 12.520
13.8543 12.230
13.8695 12.196
13.8846 12.337
13.8998 12.344
13.9150 12.102
13.9302 12.088
13.9453 12.027
13.9605 11.904
13.9757 11.909
13.9909 11.821
14.0060 11.804
14.0212 11.494
14.0364 11.242
14.0516 11.413
14.0667 11.448
14.0819 11.304
14.0971 11.194
14.1123 11.342
14.1274 11.165
14.1426 11.371
14.1578 11.195
14.1730 11.444
14.1881 11.400
14.2033 11.496
14.2185 11.432
14.2337 11.343
14.2488 11.415
14.2640 11.455
14.2792 11.528
14.2944 11.644
14.3095 12.144
14.3247 12.019
14.3399 12.257
14.3551 12.735
14.3702 13.085
14.3854 13.353
14.4006 14.139
14.4158 14.557
14.4309 15.410
14.4461 15.024
14.4613 14.866
14.4765 14.364
14.4916 13.692
14.5068 13.571
14.5220 13.522
14.5372 13.408
14.5523 12.981
14.5675 12.013
14.5827 11.900
14.5979 11.252
14.6130 11.232
14.6282 11.307
14.6434 11.194
14.6586 11.163
14.6737 11.308
14.6889 11.463
14.7041 11.278
14.7193 11.092
14.7344 10.924
14.7496 11.240
14.7648 11.511
14.7800 11.184
14.7951 11.043
14.8103 11.569
14.8255 11.561
14.8407 10.959
14.8558 11.186
14.8710 10.981
14.8862 11.120
14.9014 11.122
14.9165 11.285
14.9317 11.322
14.9469 10.754
14.9621 10.842
14.9772 10.699
14.9924 10.701
15.0076 10.815
15.0228 10.903
15.0379 10.983
15.0531 10.864
15.0683 10.545
15.0835 10.389
15.0986 10.352
15.1138 10.661
15.1290 10.638
15.1442 10.448
15.1593 10.475
15.1745 10.514
15.1897 10.482
15.2049 10.478
15.2200 10.449
15.2352 10.319
15.2504 10.725
15.2656 10.453
15.2807 10.227
15.2959 10.471
15.3111 10.147
15.3263 10.178
15.3414 10.600
15.3566 10.334
15.3718 10.350
15.3870 10.392
15.4021 10.477
15.4173 10.659
15.4325 10.426
15.4477 10.177
15.4628 10.405
15.4780 10.641
15.4932 10.278
15.5084 10.659
15.5235 10.293
15.5387 10.426
15.5539 10.385
15.5691 10.316
15.5842 10.430
15.5994 10.107
15.6146 10.452
15.6298 10.229
15.6449 10.172
15.6601 10.147
15.6753 10.122
15.6905 10.103
15.7056 10.224
15.7208 10.282
15.7360 10.032
15.7512 10.103
15.7663 9.779
15.7815 10.000
15.7967 10.100
15.8119 10.015
15.8270 9.746
15.8422 10.029
15.8574 9.722
15.8726 9.625
15.8877 10.013
15.9029 9.933
15.9181 9.643
15.9333 10.023
15.9484 10.035
15.9636 10.006
15.9788 9.981
15.9940 10.177
16.0091 9.963
16.0243 9.995
16.0395 10.024
16.0547 10.229
16.0698 9.931
16.0850 9.955
16.1002 9.805
16.1154 9.997
16.1305 9.919
16.1457 9.920
16.1609 10.058
16.1761 9.755
16.1912 9.865
16.2064 9.853
16.2216 9.855
16.2368 10.255
16.2519 9.995
16.2671 10.157
16.2823 10.579
16.2975 10.226
16.3126 10.248
16.3278 10.018
16.3430 9.910
16.3582 10.018
16.3733 10.231
16.3885 10.318
16.4037 10.081
16.4189 10.286
16.4340 10.282
16.4492 10.073
16.4644 9.907
16.4796 9.995
16.4947 9.827
16.5099 9.730
16.5251 9.750
16.5403 9.869
16.5554 9.784
16.5706 9.667
16.5858 9.724
16.6010 9.734
16.6161 9.641
16.6313 9.624
16.6465 9.966
16.6617 10.096
16.6768 10.021
16.6920 10.142
16.7072 10.371
16.7224 10.263
16.7375 10.242
16.7527 10.124
16.7679 10.010
16.7831 10.081
16.7982 10.214
16.8134 10.167
16.8286 10.045
16.8438 9.865
16.8589 9.876
16.8741 9.940
16.8893 10.063
16.9045 10.051
16.9196 9.799
16.9348 9.831
16.9500 9.788
16.9652 9.991
16.9803 10.125
16.9955 10.150
17.0107 9.900
17.0259 9.927
17.0410 10.511
17.0562 10.431
17.0714 10.505
17.0866 10.458
17.1017 10.348
17.1169 10.874
17.1321 11.236
17.1473 11.539
17.1624 11.799
17.1776 12.379
17.1928 13.190
17.2080 13.943
17.2231 15.076
17.2383 16.313
17.2535 17.285
17.2687 18.226
17.2838 18.527
17.2990 17.996
17.3142 17.114
17.3294 16.592
17.3445 16.541
17.3597 16.306
17.3749 15.950
17.3901 15.260
17.4052 14.370
17.4204 13.132
17.4356 12.195
17.4508 11.841
17.4659 11.568
17.4811 11.375
17.4963 11.168
17.5115 10.946
17.5266 10.740
17.5418 10.710
17.5570 10.567
17.5722 10.596
17.5873 10.674
17.6025 10.766
17.6177 10.655
17.6329 10.567
17.6480 10.849
17.6632 11.218
17.6784 11.670
17.6936 12.106
17.7087 12.633
17.7239 12.906
17.7391 12.661
17.7543 12.379
17.7694 12.313
17.7846 12.282
17.7998 12.489
17.8150 12.550
17.8301 12.382
17.8453 12.335
17.8605 12.247
17.8757 12.209
17.8908 12.107
17.9060 11.740
17.9212 11.608
17.9364 11.550
17.9515 11.233
17.9667 11.017
17.9819 11.025
17.9971 10.862
18.0122 10.838
18.0274 10.796
18.0426 10.514
18.0578 10.637
18.0729 10.436
18.0881 10.143
18.1033 10.302
18.1185 10.477
18.1336 10.201
18.1488 10.098
18.1640 10.258
18.1792 10.208
18.1943 10.184
18.2095 10.119
18.2247 9.926
18.2399 9.803
18.2550 10.054
18.2702 10.055
18.2854 10.007
18.3006 10.168
18.3157 10.064
18.3309 9.888
18.3461 9.998
18.3613 9.970
18.3764 9.956
18.3916 10.034
18.4068 9.949
18.4220 9.842
18.4371 9.948
18.4523 10.055
18.4675 10.087
18.4827 10.046
18.4978 9.852
18.5130 9.984
18.5282 10.006
18.5434 10.040
18.5585 9.928
18.5737 9.819
18.5889 9.861
18.6041 9.946
18.6192 10.025
18.6344 9.921
18.6496 9.893
18.6648 9.899
18.6799 9.912
18.6951 9.866
18.7103 9.952
18.7255 9.948
18.7406 9.893
18.7558 10.214
18.7710 9.959
18.7862 9.919
18.8013 9.660
18.8165 9.705
18.8317 9.911
18.8469 10.098
18.8620 9.981
18.8772 10.233
18.8924 10.176
18.9076 10.083
18.9227 10.248
18.9379 10.297
18.9531 10.215
18.9683 10.072
18.9834 10.046
18.9986 10.086
19.0138 10.271
19.0290 10.317
19.0441 10.215
19.0593 10.369
19.0745 10.494
19.0897 10.379
19.1048 10.366
19.1200 10.384
19.1352 10.558
19.1504 10.477
19.1655 10.579
19.1807 10.880
19.1959 11.004
19.2111 10.893
19.2262 11.035
19.2414 10.998
19.2566 10.727
19.2718 10.896
19.2869 11.063
19.3021 11.099
19.3173 11.162
19.3325 11.150
19.3476 11.203
19.3628 11.038
19.3780 11.044
19.3932 11.202
19.4083 11.221
19.4235 11.352
19.4387 11.346
19.4539 11.577
19.4690 11.671
19.4842 11.424
19.4994 11.318
19.5146 11.246
19.5297 11.311
19.5449 11.468
19.5601 11.662
19.5753 11.816
19.5904 11.630
19.6056 11.492
19.6208 11.646
19.6360 11.801
19.6511 11.910
19.6663 11.817
19.6815 11.756
19.6967 11.786
19.7118 11.772
19.7270 11.701
19.7422 11.735
19.7574 11.730
19.7725 11.799
19.7877 11.917
19.8029 11.848
19.8180 12.091
19.8332 11.936
19.8484 11.962
19.8636 12.390
19.8787 12.385
19.8939 12.669
19.9091 13.108
19.9243 13.431
19.9394 13.881
19.9546 14.101
19.9698 14.239
19.9850 14.560
20.0001 14.491
20.0153 14.449
20.0305 14.349
20.0457 14.216
20.0608 14.147
20.0760 14.071
20.0912 13.943
20.1064 13.731
20.1215 13.636
20.1367 13.376
20.1519 13.095
20.1671 12.934
20.1822 13.004
20.1974 12.769
20.2126 12.602
20.2278 12.469
20.2429 12.437
20.2581 12.319
20.2733 11.962
20.2885 11.917
20.3036 11.847
20.3188 11.872
20.3340 11.839
20.3492 11.654
20.3643 11.385
20.3795 11.392
20.3947 11.480
20.4099 11.488
20.4250 11.367
20.4402 11.669
20.4554 11.831
20.4706 12.089
20.4857 12.208
20.5009 12.244
20.5161 11.839
20.5313 11.806
20.5464 11.656
20.5616 11.438
20.5768 11.541
20.5920 11.534
20.6071 11.693
20.6223 11.687
20.6375 11.442
20.6527 11.123
20.6678 11.136
20.6830 10.851
20.6982 10.852
20.7134 10.643
20.7285 10.557
20.7437 10.791
20.7589 10.606
20.7741 10.340
20.7892 10.311
20.8044 10.304
20.8196 10.528
20.8348 10.548
20.8499 10.694
20.8651 10.302
20.8803 10.311
20.8955 10.292
20.9106 10.407
20.9258 10.475
20.9410 10.694
20.9562 10.680
20.9713 10.445
20.9865 10.846
21.0017 10.381
21.0169 10.707
21.0320 10.567
21.0472 10.641
21.0624 10.502
21.0776 10.407
21.0927 10.462
21.1079 10.122
21.1231 10.259
21.1383 10.151
21.1534 10.132
21.1686 10.239
21.1838 9.999
21.1990 9.897
21.2141 10.107
21.2293 9.762
21.2445 9.596
21.2597 9.729
21.2748 9.728
21.2900 9.992
21.3052 9.918
21.3204 9.489
21.3355 9.757
21.3507 9.661
21.3659 9.473
21.3811 9.631
21.3962 9.421
21.4114 9.560
21.4266 9.445
21.4418 9.812
21.4569 9.366
21.4721 9.245
21.4873 9.199
21.5025 9.347
21.5176 9.226
21.5328 9.644
21.5480 9.478
21.5632 9.174
21.5783 9.405
21.5935 9.165
21.6087 9.146
21.6239 9.251
21.6390 9.157
21.6542 9.172
21.6694 9.137
21.6846 9.149
21.6997 9.222
21.7149 9.273
21.7301 9.351
21.7453 9.362
21.7604 9.069
21.7756 9.208
21.7908 9.227
21.8060 9.280
21.8211 8.998
21.8363 8.905
21.8515 9.173
21.8667 9.055
21.8818 9.200
21.8970 9.267
21.9122 9.104
21.9274 9.072
21.9425 9.071
21.9577 8.886
21.9729 8.794
21.9881 8.865
22.0032 8.969
22.0184 8.940
22.0336 8.914
22.0488 8.816
22.0639 8.808
22.0791 8.783
22.0943 8.776
22.1095 8.838
22.1246 8.800
22.1398 8.575
22.1550 8.544
22.1702 8.689
22.1853 8.673
22.2005 8.711
22.2157 8.504
22.2309 8.405
22.2460 8.493
22.2612 8.598
22.2764 8.456
22.2916 8.426
22.3067 8.743
22.3219 8.664
22.3371 8.428
22.3523 8.545
22.3674 8.587
22.3826 8.428
22.3978 8.600
22.4130 8.512
22.4281 8.494
22.4433 8.659
22.4585 8.505
22.4737 8.452
22.4888 8.520
22.5040 8.658
22.5192 8.309
22.5344 8.307
22.5495 8.258
22.5647 8.584
22.5799 8.497
22.5951 8.741
22.6102 8.674
22.6254 8.668
22.6406 8.657
22.6558 8.793
22.6709 8.297
22.6861 8.104
22.7013 8.120
22.7165 7.903
22.7316 6.560
