'Id: "" Comment: "" Operator: "Lab Manager" Anode: "Mo" Scantype: "Still (Eiger2R_500K (1D mode))" TimePerStep: "300" X: "11.8" Y: "9.4" Z: "11.284" 
7.2532 18.424
7.2684 18.673
7.2836 18.564
7.2987 18.868
7.3139 18.768
7.3291 18.916
7.3443 19.106
7.3594 18.941
7.3746 19.288
7.3898 19.248
7.4050 19.052
7.4201 18.993
7.4353 19.424
7.4505 19.248
7.4657 19.671
7.4808 18.999
7.4960 19.847
7.5112 19.663
7.5264 19.867
7.5415 19.696
7.5567 19.688
7.5719 19.807
7.5871 19.668
7.6022 19.963
7.6174 20.230
7.6326 20.441
7.6478 20.092
7.6629 20.211
7.6781 19.956
7.6933 20.214
7.7085 20.502
7.7236 20.251
7.7388 20.114
7.7540 20.162
7.7692 20.402
7.7843 20.474
7.7995 20.764
7.8147 20.784
7.8299 20.383
7.8450 20.263
7.8602 20.799
7.8754 20.935
7.8905 20.810
7.9057 20.659
7.9209 20.898
7.9361 21.069
7.9512 20.899
7.9664 20.848
7.9816 21.138
7.9968 21.035
8.0119 20.795
8.0271 20.974
8.0423 21.357
8.0575 21.229
8.0726 21.268
8.0878 20.966
8.1030 20.930
8.1182 21.179
8.1333 21.500
8.1485 21.237
8.1637 21.244
8.1789 21.195
8.1940 21.177
8.2092 21.215
8.2244 21.181
8.2396 21.611
8.2547 21.674
8.2699 21.508
8.2851 21.863
8.3003 21.283
8.3154 21.354
8.3306 21.398
8.3458 21.413
8.3610 22.037
8.3761 21.937
8.3913 21.811
8.4065 21.676
8.4217 22.207
8.4368 21.924
8.4520 22.127
8.4672 22.212
8.4824 22.130
8.4975 21.989
8.5127 22.125
8.5279 21.839
8.5431 22.054
8.5582 22.106
8.5734 21.843
8.5886 22.142
8.6038 22.023
8.6189 22.625
8.6341 22.097
8.6493 22.496
8.6645 22.125
8.6796 21.830
8.6948 22.749
8.7100 22.483
8.7252 22.592
8.7403 22.465
8.7555 22.420
8.7707 22.230
8.7859 22.559
8.8010 22.900
8.8162 22.766
8.8314 22.590
8.8466 22.523
8.8617 22.936
8.8769 22.789
8.8921 22.011
8.9073 22.407
8.9224 22.520
8.9376 22.247
8.9528 22.330
8.9680 22.031
8.9831 22.789
8.9983 22.380
9.0135 22.584
9.0287 22.688
9.0438 22.603
9.0590 22.205
9.0742 22.831
9.0894 23.053
9.1045 22.549
9.1197 22.650
9.1349 22.284
9.1501 22.738
9.1652 22.807
9.1804 22.790
9.1956 22.863
9.2108 22.836
9.2259 22.753
9.2411 22.718
9.2563 22.516
9.2715 22.892
9.2866 22.739
9.3018 22.920
9.3170 22.764
9.3322 22.754
9.3473 23.311
9.3625 23.193
9.3777 22.925
9.3929 22.754
9.4080 23.063
9.4232 23.190
9.4384 23.059
9.4536 22.860
9.4687 22.818
9.4839 22.940
9.4991 22.823
9.5143 22.954
9.5294 23.071
9.5446 23.064
9.5598 23.007
9.5750 23.034
9.5901 23.493
9.6053 23.479
9.6205 23.340
9.6357 23.334
9.6508 23.251
9.6660 23.358
9.6812 23.081
9.6964 23.530
9.7115 24.335
9.7267 24.294
9.7419 24.280
9.7571 24.157
9.7722 23.747
9.7874 23.777
9.8026 23.445
9.8178 23.326
9.8329 23.607
9.8481 23.472
9.8633 23.216
9.8785 22.888
9.8936 23.026
9.9088 23.416
9.9240 23.377
9.9392 23.492
9.9543 23.534
9.9695 23.251
9.9847 23.195
9.9999 23.004
10.0150 23.169
10.0302 23.375
10.0454 22.986
10.0606 22.848
10.0757 22.633
10.0909 22.827
10.1061 23.068
10.1213 23.341
10.1364 23.499
10.1516 22.944
10.1668 22.710
10.1820 23.194
10.1971 23.343
10.2123 23.265
10.2275 23.101
10.2427 22.960
10.2578 23.006
10.2730 23.023
10.2882 23.313
10.3034 23.145
10.3185 22.806
10.3337 22.989
10.3489 23.142
10.3641 23.157
10.3792 22.791
10.3944 22.525
10.4096 22.467
10.4248 22.655
10.4399 22.489
10.4551 22.091
10.4703 22.361
10.4855 22.808
10.5006 22.689
10.5158 22.575
10.5310 22.716
10.5462 22.656
10.5613 22.388
10.5765 22.285
10.5917 22.205
10.6069 22.489
10.6220 22.410
10.6372 22.480
10.6524 22.418
10.6676 22.339
10.6827 22.722
10.6979 22.492
10.7131 22.601
10.7283 22.778
10.7434 22.291
10.7586 22.122
10.7738 22.260
10.7890 22.483
10.8041 22.608
10.8193 22.823
10.8345 22.189
10.8497 22.160
10.8648 22.172
10.8800 22.353
10.8952 22.137
10.9104 22.573
10.9255 22.357
10.9407 22.067
10.9559 21.815
10.9711 21.921
10.9862 22.192
11.0014 22.284
11.0166 22.231
11.0318 21.920
11.0469 21.810
11.0621 21.969
11.0773 21.929
11.0925 21.789
11.1076 21.824
11.1228 21.868
11.1380 21.793
11.1532 21.797
11.1683 21.796
11.1835 21.761
11.1987 21.569
11.2139 21.840
11.2290 21.797
11.2442 21.744
11.2594 21.770
11.2746 21.611
11.2897 21.630
11.3049 22.016
11.3201 21.617
11.3353 21.280
11.3504 21.146
11.3656 21.057
11.3808 21.328
11.3960 21.198
11.4111 21.185
11.4263 21.064
11.4415 21.052
11.4567 21.130
11.4718 21.191
11.4870 21.295
11.5022 21.265
11.5174 20.742
11.5325 20.893
11.5477 20.950
11.5629 20.831
11.5781 20.738
11.5932 20.738
11.6084 20.858
11.6236 20.673
11.6388 20.594
11.6539 20.738
11.6691 20.589
11.6843 20.629
11.6995 20.659
11.7146 20.438
11.7298 20.226
11.7450 20.383
11.7602 20.443
11.7753 20.228
11.7905 19.957
11.8057 19.887
11.8209 19.811
11.8360 20.123
11.8512 19.989
11.8664 20.143
11.8816 19.796
11.8967 19.490
11.9119 19.698
11.9271 19.750
11.9423 19.800
11.9574 19.461
11.9726 19.573
11.9878 19.691
12.0030 19.468
12.0181 19.073
12.0333 18.996
12.0485 18.791
12.0637 18.838
12.0788 18.546
12.0940 18.645
12.1092 18.673
12.1244 18.428
12.1395 18.091
12.1547 18.328
12.1699 18.249
12.1851 18.267
12.2002 18.486
12.2154 18.617
12.2306 18.172
12.2458 18.064
12.2609 17.877
12.2761 17.924
12.2913 17.716
12.3065 17.653
12.3216 17.843
12.3368 17.692
12.3520 17.776
12.3672 17.632
12.3823 17.328
12.3975 17.385
12.4127 17.431
12.4279 17.174
12.4430 17.087
12.4582 16.911
12.4734 16.895
12.4886 16.529
12.5037 16.623
12.5189 16.822
12.5341 16.476
12.5493 16.527
12.5644 16.540
12.5796 15.999
12.5948 16.028
12.6100 16.032
12.6251 15.886
12.6403 15.873
12.6555 16.028
12.6707 15.853
12.6858 15.620
12.7010 15.822
12.7162 15.793
12.7314 15.423
12.7465 15.502
12.7617 15.422
12.7769 15.247
12.7921 15.244
12.8072 14.986
12.8224 14.968
12.8376 15.091
12.8528 14.887
12.8679 14.759
12.8831 14.845
12.8983 14.605
12.9135 14.549
12.9286 14.384
12.9438 14.389
12.9590 14.538
12.9742 14.443
12.9893 14.231
13.0045 14.167
13.0197 14.410
13.0349 14.373
13.0500 14.110
13.0652 14.049
13.0804 14.012
13.0956 13.906
13.1107 13.949
13.1259 13.835
13.1411 13.623
13.1563 13.717
13.1714 13.778
13.1866 13.595
13.2018 13.496
13.2170 13.584
13.2321 13.360
13.2473 13.181
13.2625 13.304
13.2777 13.351
13.2928 13.179
13.3080 13.033
13.3232 13.356
13.3384 13.382
13.3535 13.247
13.3687 13.065
13.3839 12.825
13.3991 12.885
13.4142 12.830
13.4294 12.862
13.4446 12.811
13.4598 12.623
13.4749 12.547
13.4901 12.543
13.5053 12.552
13.5205 12.456
13.5356 12.348
13.5508 12.338
13.5660 12.228
13.5812 12.153
13.5963 12.315
13.6115 12.337
13.6267 12.180
13.6419 12.270
13.6570 12.254
13.6722 12.114
13.6874 12.156
13.7026 12.058
13.7177 11.996
13.7329 12.276
13.7481 12.262
13.7633 12.266
13.7784 12.257
13.7936 12.366
13.8088 12.279
13.8239 12.188
13.8391 12.343
13.8543 12.414
13.8695 12.093
13.8846 12.143
13.8998 12.072
13.9150 12.256
13.9302 12.347
13.9453 12.293
13.9605 11.703
13.9757 11.746
13.9909 11.957
14.0060 11.850
14.0212 11.796
14.0364 11.792
14.0516 12.033
14.0667 11.847
14.0819 11.750
14.0971 11.794
14.1123 11.618
14.1274 11.645
14.1426 11.765
14.1578 11.754
14.1730 11.731
14.1881 11.629
14.2033 11.740
14.2185 11.891
14.2337 11.988
14.2488 12.235
14.2640 11.617
14.2792 11.669
14.2944 12.029
14.3095 12.102
14.3247 12.328
14.3399 12.634
14.3551 12.514
14.3702 12.678
14.3854 13.039
14.4006 13.272
14.4158 12.949
14.4309 12.641
14.4461 12.883
14.4613 12.616
14.4765 12.255
14.4916 11.804
14.5068 11.884
14.5220 11.598
14.5372 11.499
14.5523 11.556
14.5675 11.234
14.5827 11.236
14.5979 10.994
14.6130 10.974
14.6282 10.919
14.6434 10.930
14.6586 10.521
14.6737 10.695
14.6889 10.816
14.7041 10.813
14.7193 10.709
14.7344 10.956
14.7496 10.769
14.7648 10.731
14.7800 10.738
14.7951 10.680
14.8103 10.349
14.8255 10.084
14.8407 10.209
14.8558 10.295
14.8710 10.553
14.8862 10.654
14.9014 10.450
14.9165 10.418
14.9317 10.744
14.9469 10.266
14.9621 10.340
14.9772 10.122
14.9924 10.437
15.0076 10.047
15.0228 10.206
15.0379 10.403
15.0531 10.451
15.0683 10.199
15.0835 10.608
15.0986 10.005
15.1138 10.226
15.1290 10.011
15.1442 10.193
15.1593 10.005
15.1745 10.201
15.1897 10.065
15.2049 10.340
15.2200 10.147
15.2352 10.095
15.2504 10.293
15.2656 9.990
15.2807 9.922
15.2959 9.832
15.3111 10.006
15.3263 9.849
15.3414 9.760
15.3566 10.175
15.3718 10.051
15.3870 10.093
15.4021 10.170
15.4173 10.336
15.4325 10.116
15.4477 10.085
15.4628 10.003
15.4780 10.380
15.4932 10.092
15.5084 9.970
15.5235 10.014
15.5387 9.970
15.5539 10.160
15.5691 9.782
15.5842 9.974
15.5994 9.753
15.6146 9.973
15.6298 10.132
15.6449 9.918
15.6601 9.939
15.6753 10.106
15.6905 10.239
15.7056 10.053
15.7208 10.082
15.7360 9.868
15.7512 9.755
15.7663 9.902
15.7815 9.884
15.7967 10.028
15.8119 9.683
15.8270 9.622
15.8422 9.518
15.8574 9.694
15.8726 9.687
15.8877 9.650
15.9029 9.544
15.9181 9.386
15.9333 9.555
15.9484 9.597
15.9636 9.712
15.9788 9.551
15.9940 9.477
16.0091 9.167
16.0243 9.583
16.0395 9.712
16.0547 9.782
16.0698 9.839
16.0850 9.602
16.1002 9.571
16.1154 9.286
16.1305 9.478
16.1457 9.713
16.1609 9.712
16.1761 9.461
16.1912 9.561
16.2064 9.676
16.2216 9.972
16.2368 10.026
16.2519 9.912
16.2671 9.492
16.2823 9.716
16.2975 9.840
16.3126 9.848
16.3278 9.934
16.3430 9.916
16.3582 9.803
16.3733 9.935
16.3885 10.029
16.4037 9.931
16.4189 9.842
16.4340 9.556
16.4492 9.592
16.4644 9.917
16.4796 9.703
16.4947 9.506
16.5099 9.688
16.5251 9.643
16.5403 9.390
16.5554 9.259
16.5706 9.384
16.5858 9.540
16.6010 9.438
16.6161 9.649
16.6313 9.964
16.6465 9.528
16.6617 9.345
16.6768 9.514
16.6920 9.799
16.7072 10.017
16.7224 9.880
16.7375 9.723
16.7527 9.824
16.7679 9.908
16.7831 9.681
16.7982 9.666
16.8134 9.916
16.8286 9.937
16.8438 9.919
16.8589 9.982
16.8741 10.088
16.8893 9.956
16.9045 9.689
16.9196 9.706
16.9348 9.669
16.9500 9.826
16.9652 10.063
16.9803 9.822
16.9955 9.672
17.0107 9.819
17.0259 9.969
17.0410 9.966
17.0562 9.899
17.0714 9.985
17.0866 10.336
17.1017 10.473
17.1169 10.447
17.1321 10.766
17.1473 11.321
17.1624 11.898
17.1776 12.555
17.1928 13.265
17.2080 13.936
17.2231 15.190
17.2383 16.449
17.2535 17.313
17.2687 18.082
17.2838 18.426
17.2990 18.241
17.3142 17.206
17.3294 16.246
17.3445 16.175
17.3597 15.995
17.3749 15.796
17.3901 15.320
17.4052 14.336
17.4204 13.411
17.4356 12.427
17.4508 11.942
17.4659 11.644
17.4811 11.558
17.4963 11.567
17.5115 11.303
17.5266 11.379
17.5418 11.219
17.5570 11.017
17.5722 11.151
17.5873 11.075
17.6025 11.026
17.6177 11.155
17.6329 11.218
17.6480 11.314
17.6632 11.472
17.6784 11.535
17.6936 11.451
17.7087 11.420
17.7239 11.274
17.7391 11.228
17.7543 11.044
17.7694 10.848
17.7846 11.049
17.7998 10.967
17.8150 10.605
17.8301 10.518
17.8453 10.454
17.8605 10.282
17.8757 10.274
17.8908 10.387
17.9060 10.490
17.9212 10.252
17.9364 10.065
17.9515 10.054
17.9667 10.168
17.9819 10.196
17.9971 9.976
18.0122 10.083
18.0274 10.280
18.0426 10.313
18.0578 10.232
18.0729 10.152
18.0881 9.970
18.1033 9.975
18.1185 9.708
18.1336 9.960
18.1488 9.997
18.1640 9.993
18.1792 10.116
18.1943 9.856
18.2095 9.953
18.2247 10.005
18.2399 9.971
18.2550 9.990
18.2702 9.963
18.2854 9.802
18.3006 9.846
18.3157 9.753
18.3309 9.670
18.3461 10.042
18.3613 9.923
18.3764 9.666
18.3916 9.670
18.4068 9.776
18.4220 9.896
18.4371 9.873
18.4523 9.959
18.4675 9.991
18.4827 9.994
18.4978 9.888
18.5130 9.678
18.5282 9.706
18.5434 9.837
18.5585 9.614
18.5737 9.567
18.5889 9.927
18.6041 9.791
18.6192 9.628
18.6344 9.730
18.6496 9.830
18.6648 9.768
18.6799 9.868
18.6951 9.944
18.7103 9.723
18.7255 9.602
18.7406 9.764
18.7558 9.834
18.7710 9.732
18.7862 9.720
18.8013 9.797
18.8165 10.007
18.8317 10.133
18.8469 9.863
18.8620 9.924
18.8772 10.253
18.8924 10.194
18.9076 9.938
18.9227 9.830
18.9379 9.923
18.9531 9.967
18.9683 10.019
18.9834 10.141
18.9986 10.075
19.0138 10.322
19.0290 10.340
19.0441 10.316
19.0593 10.254
19.0745 10.236
19.0897 10.333
19.1048 10.318
19.1200 10.515
19.1352 10.465
19.1504 10.255
19.1655 10.324
19.1807 10.315
19.1959 10.640
19.2111 10.747
19.2262 10.682
19.2414 10.758
19.2566 10.808
19.2718 10.926
19.2869 11.015
19.3021 11.041
19.3173 11.057
19.3325 10.988
19.3476 11.159
19.3628 11.258
19.3780 11.241
19.3932 11.023
19.4083 11.079
19.4235 11.271
19.4387 11.001
19.4539 10.950
19.4690 11.232
19.4842 11.588
19.4994 11.756
19.5146 11.532
19.5297 11.497
19.5449 11.646
19.5601 11.554
19.5753 11.615
19.5904 11.639
19.6056 11.583
19.6208 11.766
19.6360 11.722
19.6511 11.732
19.6663 11.958
19.6815 11.869
19.6967 11.617
19.7118 11.601
19.7270 11.694
19.7422 11.748
19.7574 11.756
19.7725 11.989
19.7877 12.090
19.8029 12.034
19.8180 12.075
19.8332 12.263
19.8484 12.318
19.8636 12.477
19.8787 13.018
19.8939 13.251
19.9091 13.233
19.9243 13.398
19.9394 13.800
19.9546 14.113
19.9698 14.308
19.9850 14.507
20.0001 14.528
20.0153 14.277
20.0305 13.943
20.0457 13.869
20.0608 13.829
20.0760 13.999
20.0912 13.876
20.1064 13.832
20.1215 13.703
20.1367 13.479
20.1519 13.283
20.1671 13.206
20.1822 13.107
20.1974 13.025
20.2126 13.006
20.2278 12.926
20.2429 12.852
20.2581 12.644
20.2733 12.391
20.2885 12.272
20.3036 12.363
20.3188 12.125
20.3340 11.985
20.3492 12.261
20.3643 12.152
20.3795 12.011
20.3947 11.866
20.4099 11.786
20.4250 11.822
20.4402 11.764
20.4554 11.633
20.4706 11.874
20.4857 11.670
20.5009 11.491
20.5161 11.627
20.5313 11.458
20.5464 11.394
20.5616 11.380
20.5768 11.494
20.5920 11.522
20.6071 11.013
20.6223 10.946
20.6375 10.970
20.6527 10.562
20.6678 10.537
20.6830 10.745
20.6982 10.796
20.7134 10.840
20.7285 10.553
20.7437 10.602
20.7589 10.331
20.7741 10.455
20.7892 10.408
20.8044 10.397
20.8196 10.448
20.8348 10.285
20.8499 10.145
20.8651 10.403
20.8803 9.965
20.8955 10.104
20.9106 10.022
20.9258 10.456
20.9410 10.070
20.9562 9.998
20.9713 9.934
20.9865 10.097
21.0017 10.317
21.0169 10.098
21.0320 10.240
21.0472 10.245
21.0624 9.817
21.0776 9.793
21.0927 10.079
21.1079 10.013
21.1231 10.219
21.1383 9.647
21.1534 9.828
21.1686 9.965
21.1838 9.637
21.1990 9.933
21.2141 9.791
21.2293 10.231
21.2445 9.790
21.2597 9.539
21.2748 10.048
21.2900 9.553
21.3052 9.961
21.3204 9.575
21.3355 9.442
21.3507 9.842
21.3659 9.632
21.3811 9.790
21.3962 9.632
21.4114 9.614
21.4266 9.882
21.4418 9.617
21.4569 9.467
21.4721 9.282
21.4873 9.515
21.5025 9.318
21.5176 9.363
21.5328 9.702
21.5480 9.448
21.5632 9.286
21.5783 9.310
21.5935 9.379
21.6087 9.192
21.6239 9.419
21.6390 9.205
21.6542 8.975
21.6694 9.155
21.6846 9.084
21.6997 8.957
21.7149 8.987
21.7301 9.055
21.7453 9.285
21.7604 9.058
21.7756 9.064
21.7908 9.125
21.8060 9.193
21.8211 9.160
21.8363 9.124
21.8515 8.971
21.8667 9.014
21.8818 9.248
21.8970 9.142
21.9122 8.864
21.9274 8.872
21.9425 8.933
21.9577 8.848
21.9729 8.739
21.9881 8.910
22.0032 9.044
22.0184 8.882
22.0336 8.826
22.0488 8.958
22.0639 8.758
22.0791 8.753
22.0943 8.953
22.1095 8.956
22.1246 8.848
22.1398 8.670
22.1550 8.575
22.1702 8.659
22.1853 8.673
22.2005 8.622
22.2157 8.606
22.2309 8.716
22.2460 8.654
22.2612 8.493
22.2764 8.455
22.2916 8.464
22.3067 8.401
22.3219 8.385
22.3371 8.671
22.3523 8.541
22.3674 8.709
22.3826 8.486
22.3978 8.389
22.4130 8.651
22.4281 8.504
22.4433 8.285
22.4585 8.576
22.4737 8.276
22.4888 8.462
22.5040 8.270
22.5192 8.196
22.5344 8.338
22.5495 8.314
22.5647 8.569
22.5799 8.513
22.5951 8.401
22.6102 8.545
22.6254 8.429
22.6406 8.570
22.6558 8.166
22.6709 8.407
22.6861 8.098
22.7013 8.209
22.7165 7.951
22.7316 6.562
