'Id: "" Comment: "" Operator: "Lab Manager" Anode: "Mo" Scantype: "Still (Eiger2R_500K (1D mode))" TimePerStep: "300" X: "11.8" Y: "9.4" Z: "11.284" 
7.2532 19.126
7.2684 19.004
7.2836 18.870
7.2987 18.812
7.3139 19.073
7.3291 19.404
7.3443 19.081
7.3594 18.775
7.3746 19.432
7.3898 19.454
7.4050 19.411
7.4201 19.230
7.4353 19.609
7.4505 19.782
7.4657 19.492
7.4808 19.636
7.4960 19.478
7.5112 19.754
7.5264 19.907
7.5415 19.163
7.5567 19.952
7.5719 20.369
7.5871 20.178
7.6022 19.958
7.6174 19.867
7.6326 19.715
7.6478 20.337
7.6629 20.040
7.6781 19.914
7.6933 20.341
7.7085 20.631
7.7236 20.712
7.7388 20.506
7.7540 20.231
7.7692 20.368
7.7843 20.295
7.7995 20.279
7.8147 20.427
7.8299 20.701
7.8450 21.033
7.8602 20.794
7.8754 20.683
7.8905 20.839
7.9057 20.685
7.9209 20.967
7.9361 21.028
7.9512 20.821
7.9664 20.807
7.9816 20.848
7.9968 21.001
8.0119 21.186
8.0271 21.245
8.0423 20.985
8.0575 21.112
8.0726 21.430
8.0878 21.346
8.1030 21.327
8.1182 21.432
8.1333 21.396
8.1485 21.614
8.1637 21.293
8.1789 21.587
8.1940 21.751
8.2092 21.654
8.2244 21.297
8.2396 21.500
8.2547 21.800
8.2699 21.440
8.2851 21.623
8.3003 21.601
8.3154 21.876
8.3306 22.152
8.3458 22.155
8.3610 22.318
8.3761 21.322
8.3913 21.811
8.4065 22.029
8.4217 22.103
8.4368 21.956
8.4520 22.358
8.4672 21.486
8.4824 21.781
8.4975 22.072
8.5127 22.169
8.5279 21.914
8.5431 22.109
8.5582 21.900
8.5734 21.597
8.5886 22.610
8.6038 22.384
8.6189 22.862
8.6341 22.721
8.6493 22.592
8.6645 22.473
8.6796 22.130
8.6948 22.327
8.7100 22.157
8.7252 22.148
8.7403 22.019
8.7555 22.555
8.7707 22.257
8.7859 21.919
8.8010 22.126
8.8162 22.328
8.8314 22.760
8.8466 22.244
8.8617 22.692
8.8769 22.501
8.8921 22.816
8.9073 22.575
8.9224 22.532
8.9376 22.750
8.9528 22.544
8.9680 22.826
8.9831 22.563
8.9983 22.485
9.0135 22.474
9.0287 22.699
9.0438 22.607
9.0590 22.426
9.0742 22.973
9.0894 22.896
9.1045 22.984
9.1197 22.906
9.1349 23.013
9.1501 22.742
9.1652 22.647
9.1804 22.994
9.1956 23.460
9.2108 22.928
9.2259 22.674
9.2411 22.986
9.2563 23.161
9.2715 22.811
9.2866 22.571
9.3018 22.577
9.3170 22.867
9.3322 23.276
9.3473 23.270
9.3625 23.158
9.3777 23.065
9.3929 23.176
9.4080 23.060
9.4232 23.447
9.4384 23.289
9.4536 23.031
9.4687 23.147
9.4839 23.232
9.4991 23.475
9.5143 23.475
9.5294 23.441
9.5446 23.148
9.5598 23.483
9.5750 23.167
9.5901 22.907
9.6053 23.388
9.6205 23.309
9.6357 23.388
9.6508 23.794
9.6660 23.832
9.6812 23.725
9.6964 23.776
9.7115 24.003
9.7267 24.363
9.7419 24.375
9.7571 23.985
9.7722 23.965
9.7874 24.374
9.8026 24.165
9.8178 23.756
9.8329 24.017
9.8481 23.869
9.8633 23.682
9.8785 23.840
9.8936 23.898
9.9088 23.626
9.9240 23.612
9.9392 23.847
9.9543 23.788
9.9695 23.870
9.9847 23.762
9.9999 23.390
10.0150 23.305
10.0302 23.436
10.0454 23.151
10.0606 22.902
10.0757 23.117
10.0909 23.252
10.1061 23.152
10.1213 23.188
10.1364 23.237
10.1516 23.313
10.1668 22.845
10.1820 22.668
10.1971 22.715
10.2123 23.136
10.2275 23.410
10.2427 23.090
10.2578 22.771
10.2730 23.206
10.2882 23.457
10.3034 23.319
10.3185 23.398
10.3337 23.054
10.3489 22.897
10.3641 22.961
10.3792 23.225
10.3944 23.238
10.4096 22.828
10.4248 23.075
10.4399 22.922
10.4551 22.728
10.4703 22.734
10.4855 22.624
10.5006 22.636
10.5158 22.685
10.5310 22.765
10.5462 22.589
10.5613 22.281
10.5765 22.371
10.5917 22.740
10.6069 22.540
10.6220 22.365
10.6372 22.591
10.6524 22.843
10.6676 22.828
10.6827 22.707
10.6979 22.656
10.7131 22.434
10.7283 22.406
10.7434 22.509
10.7586 22.575
10.7738 22.475
10.7890 22.592
10.8041 22.438
10.8193 22.189
10.8345 22.309
10.8497 22.391
10.8648 22.357
10.8800 22.151
10.8952 22.132
10.9104 22.254
10.9255 22.250
10.9407 22.352
10.9559 22.137
10.9711 21.903
10.9862 22.269
11.0014 22.293
11.0166 22.166
11.0318 22.202
11.0469 22.125
11.0621 22.126
11.0773 21.754
11.0925 21.613
11.1076 21.676
11.1228 21.743
11.1380 21.789
11.1532 21.679
11.1683 21.516
11.1835 21.647
11.1987 21.926
11.2139 21.840
11.2290 21.559
11.2442 21.412
11.2594 21.357
11.2746 21.535
11.2897 21.589
11.3049 21.806
11.3201 21.934
11.3353 21.601
11.3504 21.561
11.3656 21.423
11.3808 21.618
11.3960 21.314
11.4111 21.326
11.4263 21.423
11.4415 21.178
11.4567 21.491
11.4718 21.439
11.4870 21.306
11.5022 21.081
11.5174 21.173
11.5325 21.426
11.5477 21.285
11.5629 21.279
11.5781 21.089
11.5932 20.969
11.6084 20.808
11.6236 20.704
11.6388 21.035
11.6539 20.679
11.6691 20.564
11.6843 20.495
11.6995 20.557
11.7146 20.772
11.7298 20.474
11.7450 20.278
11.7602 20.225
11.7753 20.071
11.7905 20.008
11.8057 19.973
11.8209 19.409
11.8360 19.804
11.8512 20.148
11.8664 19.974
11.8816 19.969
11.8967 19.694
11.9119 19.773
11.9271 19.515
11.9423 19.333
11.9574 19.296
11.9726 19.509
11.9878 19.592
12.0030 19.139
12.0181 19.000
12.0333 19.251
12.0485 19.270
12.0637 19.036
12.0788 18.851
12.0940 18.663
12.1092 18.570
12.1244 18.749
12.1395 18.309
12.1547 18.287
12.1699 18.317
12.1851 18.400
12.2002 18.233
12.2154 18.315
12.2306 18.220
12.2458 18.164
12.2609 17.963
12.2761 17.867
12.2913 18.141
12.3065 17.791
12.3216 17.664
12.3368 17.661
12.3520 17.425
12.3672 17.581
12.3823 17.953
12.3975 17.573
12.4127 17.004
12.4279 16.822
12.4430 17.211
12.4582 17.147
12.4734 16.757
12.4886 16.807
12.5037 16.791
12.5189 17.071
12.5341 16.821
12.5493 16.366
12.5644 16.357
12.5796 16.327
12.5948 16.481
12.6100 16.440
12.6251 16.235
12.6403 16.297
12.6555 15.917
12.6707 15.672
12.6858 15.907
12.7010 15.875
12.7162 15.932
12.7314 15.930
12.7465 15.816
12.7617 15.521
12.7769 15.557
12.7921 15.614
12.8072 15.216
12.8224 15.052
12.8376 14.987
12.8528 14.830
12.8679 14.887
12.8831 15.109
12.8983 14.847
12.9135 14.469
12.9286 14.464
12.9438 14.601
12.9590 14.685
12.9742 14.651
12.9893 14.768
13.0045 14.537
13.0197 14.325
13.0349 14.370
13.0500 14.244
13.0652 14.171
13.0804 13.953
13.0956 13.815
13.1107 14.020
13.1259 14.237
13.1411 13.991
13.1563 13.804
13.1714 13.833
13.1866 13.794
13.2018 13.792
13.2170 13.710
13.2321 13.649
13.2473 13.452
13.2625 13.457
13.2777 13.333
13.2928 13.259
13.3080 13.383
13.3232 13.150
13.3384 13.147
13.3535 13.096
13.3687 13.102
13.3839 13.149
13.3991 13.018
13.4142 12.918
13.4294 12.741
13.4446 12.848
13.4598 12.856
13.4749 12.806
13.4901 12.872
13.5053 12.589
13.5205 12.579
13.5356 12.697
13.5508 12.490
13.5660 12.486
13.5812 12.427
13.5963 12.320
13.6115 12.291
13.6267 12.242
13.6419 12.250
13.6570 12.429
13.6722 12.309
13.6874 11.935
13.7026 12.273
13.7177 12.223
13.7329 12.005
13.7481 12.260
13.7633 12.341
13.7784 12.285
13.7936 11.993
13.8088 12.106
13.8239 12.281
13.8391 12.187
13.8543 12.272
13.8695 12.568
13.8846 12.514
13.8998 12.157
13.9150 11.897
13.9302 12.068
13.9453 12.059
13.9605 11.918
13.9757 11.761
13.9909 11.813
14.0060 11.847
14.0212 11.668
14.0364 11.715
14.0516 11.688
14.0667 11.307
14.0819 11.799
14.0971 11.889
14.1123 11.550
14.1274 11.336
14.1426 11.117
14.1578 11.402
14.1730 11.022
14.1881 11.071
14.2033 11.578
14.2185 11.465
14.2337 11.251
14.2488 11.265
14.2640 11.230
14.2792 11.341
14.2944 11.429
14.3095 11.560
14.3247 11.563
14.3399 11.906
14.3551 12.051
14.3702 12.129
14.3854 11.999
14.4006 12.372
14.4158 12.261
14.4309 12.312
14.4461 12.442
14.4613 12.562
14.4765 12.017
14.4916 12.042
14.5068 12.023
14.5220 12.228
14.5372 11.794
14.5523 11.689
14.5675 11.341
14.5827 11.148
14.5979 11.247
14.6130 11.143
14.6282 11.341
14.6434 11.472
14.6586 11.136
14.6737 11.234
14.6889 11.414
14.7041 10.952
14.7193 11.057
14.7344 11.284
14.7496 11.181
14.7648 11.426
14.7800 10.853
14.7951 10.773
14.8103 11.110
14.8255 11.277
14.8407 11.091
14.8558 11.052
14.8710 10.727
14.8862 10.484
14.9014 10.677
14.9165 11.156
14.9317 11.286
14.9469 11.079
14.9621 10.652
14.9772 10.403
14.9924 10.419
15.0076 10.568
15.0228 10.810
15.0379 10.577
15.0531 10.710
15.0683 10.891
15.0835 10.549
15.0986 10.311
15.1138 10.626
15.1290 10.839
15.1442 10.662
15.1593 10.609
15.1745 10.433
15.1897 10.198
15.2049 10.376
15.2200 10.565
15.2352 10.333
15.2504 10.226
15.2656 10.055
15.2807 10.433
15.2959 10.466
15.3111 10.298
15.3263 10.145
15.3414 10.479
15.3566 10.123
15.3718 10.197
15.3870 10.081
15.4021 10.321
15.4173 10.545
15.4325 10.253
15.4477 10.295
15.4628 10.271
15.4780 10.522
15.4932 10.329
15.5084 10.085
15.5235 10.251
15.5387 10.390
15.5539 10.309
15.5691 10.188
15.5842 10.389
15.5994 10.491
15.6146 10.015
15.6298 9.932
15.6449 10.029
15.6601 10.214
15.6753 10.300
15.6905 9.831
15.7056 10.095
15.7208 10.030
15.7360 10.176
15.7512 10.010
15.7663 9.641
15.7815 10.227
15.7967 9.864
15.8119 9.840
15.8270 9.590
15.8422 9.862
15.8574 9.848
15.8726 9.850
15.8877 9.758
15.9029 9.954
15.9181 9.889
15.9333 10.152
15.9484 9.984
15.9636 9.889
15.9788 9.908
15.9940 9.917
16.0091 10.113
16.0243 9.955
16.0395 9.961
16.0547 9.953
16.0698 9.818
16.0850 9.704
16.1002 9.608
16.1154 9.741
16.1305 9.784
16.1457 9.697
16.1609 9.846
16.1761 9.817
16.1912 9.955
16.2064 9.960
16.2216 10.034
16.2368 9.985
16.2519 10.005
16.2671 10.348
16.2823 10.291
16.2975 10.140
16.3126 9.809
16.3278 10.025
16.3430 9.924
16.3582 9.978
16.3733 10.097
16.3885 10.053
16.4037 9.974
16.4189 9.950
16.4340 10.036
16.4492 9.939
16.4644 9.998
16.4796 9.815
16.4947 9.835
16.5099 10.010
16.5251 10.014
16.5403 9.765
16.5554 9.881
16.5706 9.994
16.5858 9.871
16.6010 9.944
16.6161 9.978
16.6313 10.087
16.6465 9.915
16.6617 9.741
16.6768 9.886
16.6920 10.059
16.7072 10.124
16.7224 10.062
16.7375 10.267
16.7527 10.295
16.7679 10.292
16.7831 10.046
16.7982 9.770
16.8134 9.940
16.8286 10.057
16.8438 9.963
16.8589 9.844
16.8741 9.869
16.8893 9.992
16.9045 9.811
16.9196 9.691
16.9348 9.835
16.9500 9.832
16.9652 9.813
16.9803 9.943
16.9955 10.035
17.0107 10.074
17.0259 10.222
17.0410 10.185
17.0562 10.357
17.0714 10.465
17.0866 10.517
17.1017 10.617
17.1169 10.896
17.1321 11.220
17.1473 11.286
17.1624 11.783
17.1776 12.527
17.1928 13.449
17.2080 14.381
17.2231 15.272
17.2383 16.450
17.2535 17.720
17.2687 18.593
17.2838 19.000
17.2990 18.454
17.3142 17.262
17.3294 16.605
17.3445 16.397
17.3597 16.364
17.3749 16.107
17.3901 15.222
17.4052 14.098
17.4204 13.161
17.4356 12.406
17.4508 12.010
17.4659 11.677
17.4811 11.259
17.4963 11.108
17.5115 10.998
17.5266 10.753
17.5418 10.555
17.5570 10.408
17.5722 10.470
17.5873 10.603
17.6025 10.419
17.6177 10.226
17.6329 10.152
17.6480 10.263
17.6632 10.323
17.6784 10.064
17.6936 10.062
17.7087 10.268
17.7239 10.159
17.7391 10.202
17.7543 10.463
17.7694 10.620
17.7846 10.562
17.7998 10.559
17.8150 10.718
17.8301 10.894
17.8453 10.672
17.8605 10.583
17.8757 10.858
17.8908 10.899
17.9060 10.694
17.9212 10.800
17.9364 10.820
17.9515 10.547
17.9667 10.655
17.9819 10.628
17.9971 10.455
18.0122 10.466
18.0274 10.499
18.0426 10.532
18.0578 10.326
18.0729 10.288
18.0881 10.247
18.1033 10.546
18.1185 10.454
18.1336 10.051
18.1488 10.069
18.1640 10.163
18.1792 9.948
18.1943 10.124
18.2095 10.198
18.2247 9.858
18.2399 9.869
18.2550 9.999
18.2702 9.835
18.2854 9.895
18.3006 9.906
18.3157 9.952
18.3309 9.951
18.3461 9.947
18.3613 9.955
18.3764 10.022
18.3916 9.798
18.4068 9.933
18.4220 9.939
18.4371 9.892
18.4523 9.904
18.4675 9.745
18.4827 9.699
18.4978 9.822
18.5130 9.837
18.5282 9.851
18.5434 9.921
18.5585 9.888
18.5737 9.775
18.5889 9.780
18.6041 10.045
18.6192 9.964
18.6344 9.658
18.6496 9.666
18.6648 9.799
18.6799 9.696
18.6951 9.547
18.7103 9.591
18.7255 9.569
18.7406 9.411
18.7558 9.746
18.7710 10.012
18.7862 9.870
18.8013 9.564
18.8165 9.521
18.8317 9.691
18.8469 9.758
18.8620 9.787
18.8772 9.842
18.8924 9.792
18.9076 9.879
18.9227 9.956
18.9379 9.771
18.9531 9.981
18.9683 9.958
18.9834 9.981
18.9986 10.290
19.0138 10.247
19.0290 10.147
19.0441 10.160
19.0593 10.360
19.0745 10.222
19.0897 10.126
19.1048 10.345
19.1200 10.426
19.1352 10.512
19.1504 10.477
19.1655 10.482
19.1807 10.604
19.1959 10.815
19.2111 10.748
19.2262 10.738
19.2414 10.838
19.2566 10.781
19.2718 10.701
19.2869 10.921
19.3021 11.167
19.3173 11.215
19.3325 11.162
19.3476 11.200
19.3628 11.235
19.3780 11.030
19.3932 11.060
19.4083 11.393
19.4235 11.212
19.4387 11.144
19.4539 11.387
19.4690 11.267
19.4842 11.193
19.4994 11.372
19.5146 11.537
19.5297 11.675
19.5449 11.583
19.5601 11.431
19.5753 11.599
19.5904 11.708
19.6056 11.611
19.6208 11.587
19.6360 11.672
19.6511 11.711
19.6663 11.633
19.6815 11.587
19.6967 11.708
19.7118 11.785
19.7270 11.718
19.7422 11.777
19.7574 11.860
19.7725 11.733
19.7877 11.695
19.8029 11.991
19.8180 12.143
19.8332 11.830
19.8484 12.030
19.8636 12.450
19.8787 12.521
19.8939 12.868
19.9091 13.199
19.9243 13.464
19.9394 13.811
19.9546 14.060
19.9698 14.399
19.9850 14.648
20.0001 14.431
20.0153 14.113
20.0305 14.036
20.0457 14.066
20.0608 14.039
20.0760 13.855
20.0912 13.804
20.1064 13.738
20.1215 13.546
20.1367 13.459
20.1519 13.034
20.1671 12.950
20.1822 12.793
20.1974 12.699
20.2126 12.442
20.2278 12.263
20.2429 12.176
20.2581 11.771
20.2733 11.593
20.2885 11.423
20.3036 11.262
20.3188 11.604
20.3340 11.557
20.3492 11.230
20.3643 11.340
20.3795 11.315
20.3947 11.197
20.4099 11.012
20.4250 10.857
20.4402 10.858
20.4554 10.795
20.4706 10.627
20.4857 10.690
20.5009 10.360
20.5161 10.486
20.5313 10.667
20.5464 10.735
20.5616 10.544
20.5768 10.648
20.5920 10.818
20.6071 10.632
20.6223 10.412
20.6375 10.213
20.6527 10.309
20.6678 10.162
20.6830 10.091
20.6982 10.094
20.7134 10.373
20.7285 10.401
20.7437 10.372
20.7589 10.317
20.7741 10.405
20.7892 10.255
20.8044 10.405
20.8196 10.118
20.8348 10.274
20.8499 10.272
20.8651 10.270
20.8803 10.191
20.8955 10.480
20.9106 10.256
20.9258 10.291
20.9410 10.339
20.9562 10.422
20.9713 10.397
20.9865 10.398
21.0017 10.353
21.0169 10.295
21.0320 10.568
21.0472 10.538
21.0624 10.379
21.0776 10.076
21.0927 10.141
21.1079 9.754
21.1231 9.812
21.1383 9.820
21.1534 9.411
21.1686 9.744
21.1838 10.024
21.1990 9.942
21.2141 9.855
21.2293 9.712
21.2445 9.632
21.2597 9.652
21.2748 9.601
21.2900 9.787
21.3052 9.418
21.3204 9.627
21.3355 9.805
21.3507 9.385
21.3659 9.396
21.3811 9.620
21.3962 9.399
21.4114 9.457
21.4266 9.369
21.4418 9.552
21.4569 9.253
21.4721 9.565
21.4873 9.594
21.5025 9.326
21.5176 9.375
21.5328 9.399
21.5480 9.520
21.5632 9.457
21.5783 9.133
21.5935 9.135
21.6087 9.130
21.6239 9.230
21.6390 9.094
21.6542 9.140
21.6694 9.053
21.6846 9.011
21.6997 8.992
21.7149 8.825
21.7301 9.016
21.7453 9.080
21.7604 8.955
21.7756 8.935
21.7908 8.909
21.8060 9.079
21.8211 9.113
21.8363 9.007
21.8515 9.095
21.8667 9.132
21.8818 9.064
21.8970 9.025
21.9122 9.069
21.9274 8.825
21.9425 8.832
21.9577 8.869
21.9729 8.845
21.9881 8.685
22.0032 8.821
22.0184 8.987
22.0336 8.767
22.0488 8.645
22.0639 8.754
22.0791 8.788
22.0943 8.747
22.1095 8.699
22.1246 8.705
22.1398 8.314
22.1550 8.587
22.1702 8.775
22.1853 8.660
22.2005 8.592
22.2157 8.607
22.2309 8.468
22.2460 8.461
22.2612 8.621
22.2764 8.563
22.2916 8.530
22.3067 8.585
22.3219 8.466
22.3371 8.525
22.3523 8.833
22.3674 8.731
22.3826 8.536
22.3978 8.557
22.4130 8.397
22.4281 8.577
22.4433 8.644
22.4585 8.665
22.4737 8.512
22.4888 8.597
22.5040 8.422
22.5192 8.297
22.5344 8.230
22.5495 8.201
22.5647 8.293
22.5799 8.475
22.5951 8.263
22.6102 8.454
22.6254 8.096
22.6406 8.590
22.6558 8.369
22.6709 8.390
22.6861 8.241
22.7013 8.209
22.7165 8.184
22.7316 6.575
