'Id: "" Comment: "" Operator: "Lab Manager" Anode: "Mo" Scantype: "Still (Eiger2R_500K (1D mode))" TimePerStep: "300" X: "11.8" Y: "9.4" Z: "11.284" 
7.2532 18.652
7.2684 18.931
7.2836 18.639
7.2987 19.013
7.3139 18.873
7.3291 18.670
7.3443 18.617
7.3594 18.919
7.3746 18.966
7.3898 18.919
7.4050 18.923
7.4201 19.485
7.4353 19.547
7.4505 19.385
7.4657 19.485
7.4808 19.445
7.4960 19.766
7.5112 19.436
7.5264 19.497
7.5415 19.163
7.5567 19.628
7.5719 19.572
7.5871 19.673
7.6022 19.673
7.6174 19.885
7.6326 20.147
7.6478 19.930
7.6629 19.921
7.6781 19.920
7.6933 20.065
7.7085 20.299
7.7236 20.189
7.7388 20.222
7.7540 20.073
7.7692 20.009
7.7843 20.203
7.7995 20.237
7.8147 20.127
7.8299 20.236
7.8450 20.549
7.8602 20.550
7.8754 20.381
7.8905 20.373
7.9057 20.720
7.9209 20.836
7.9361 20.661
7.9512 20.607
7.9664 20.850
7.9816 20.788
7.9968 20.718
8.0119 20.921
8.0271 20.898
8.0423 21.034
8.0575 21.115
8.0726 21.132
8.0878 21.068
8.1030 21.142
8.1182 21.233
8.1333 21.193
8.1485 21.140
8.1637 20.862
8.1789 21.185
8.1940 21.148
8.2092 21.183
8.2244 21.200
8.2396 21.345
8.2547 21.385
8.2699 21.625
8.2851 20.921
8.3003 21.201
8.3154 21.678
8.3306 21.574
8.3458 21.009
8.3610 21.704
8.3761 21.560
8.3913 21.697
8.4065 21.530
8.4217 21.780
8.4368 21.825
8.4520 21.597
8.4672 21.753
8.4824 21.693
8.4975 21.544
8.5127 21.928
8.5279 21.715
8.5431 21.737
8.5582 21.692
8.5734 21.863
8.5886 22.227
8.6038 21.501
8.6189 21.911
8.6341 22.251
8.6493 22.687
8.6645 22.195
8.6796 22.027
8.6948 21.854
8.7100 21.826
8.7252 22.225
8.7403 22.338
8.7555 21.996
8.7707 21.944
8.7859 22.006
8.8010 21.870
8.8162 22.404
8.8314 22.490
8.8466 22.254
8.8617 22.171
8.8769 22.250
8.8921 22.471
8.9073 22.495
8.9224 22.178
8.9376 22.374
8.9528 22.374
8.9680 22.442
8.9831 22.754
8.9983 22.228
9.0135 22.459
9.0287 22.185
9.0438 22.083
9.0590 22.525
9.0742 22.608
9.0894 22.609
9.1045 22.485
9.1197 22.705
9.1349 22.372
9.1501 22.422
9.1652 22.694
9.1804 22.696
9.1956 22.707
9.2108 22.468
9.2259 22.718
9.2411 23.092
9.2563 22.450
9.2715 22.715
9.2866 22.866
9.3018 22.896
9.3170 22.878
9.3322 22.938
9.3473 22.705
9.3625 22.856
9.3777 22.919
9.3929 22.877
9.4080 22.952
9.4232 23.021
9.4384 22.698
9.4536 22.526
9.4687 22.783
9.4839 22.913
9.4991 22.944
9.5143 22.794
9.5294 22.967
9.5446 23.102
9.5598 22.831
9.5750 22.835
9.5901 23.202
9.6053 22.999
9.6205 23.073
9.6357 23.147
9.6508 22.931
9.6660 23.223
9.6812 23.506
9.6964 23.603
9.7115 23.590
9.7267 23.571
9.7419 23.575
9.7571 23.554
9.7722 23.608
9.7874 23.471
9.8026 23.031
9.8178 22.677
9.8329 23.057
9.8481 23.147
9.8633 23.132
9.8785 23.231
9.8936 23.075
9.9088 23.052
9.9240 23.280
9.9392 23.419
9.9543 23.069
9.9695 22.457
9.9847 23.010
9.9999 23.277
10.0150 23.098
10.0302 23.295
10.0454 22.824
10.0606 22.783
10.0757 22.977
10.0909 22.877
10.1061 22.779
10.1213 22.877
10.1364 23.390
10.1516 23.413
10.1668 23.344
10.1820 23.252
10.1971 23.034
10.2123 23.048
10.2275 22.999
10.2427 23.084
10.2578 22.924
10.2730 22.758
10.2882 23.092
10.3034 23.101
10.3185 22.899
10.3337 22.916
10.3489 22.611
10.3641 22.678
10.3792 22.406
10.3944 22.313
10.4096 22.328
10.4248 22.458
10.4399 22.738
10.4551 22.465
10.4703 22.215
10.4855 22.268
10.5006 22.513
10.5158 22.209
10.5310 22.124
10.5462 22.351
10.5613 22.540
10.5765 22.365
10.5917 22.441
10.6069 22.442
10.6220 22.326
10.6372 22.177
10.6524 22.290
10.6676 22.801
10.6827 22.407
10.6979 22.136
10.7131 22.073
10.7283 22.258
10.7434 22.631
10.7586 22.156
10.7738 22.277
10.7890 22.271
10.8041 22.260
10.8193 22.324
10.8345 22.253
10.8497 22.323
10.8648 22.324
10.8800 22.067
10.8952 21.921
10.9104 21.952
10.9255 21.760
10.9407 21.575
10.9559 21.927
10.9711 21.976
10.9862 21.767
11.0014 21.758
11.0166 22.027
11.0318 22.044
11.0469 21.691
11.0621 21.769
11.0773 21.564
11.0925 21.494
11.1076 21.644
11.1228 21.722
11.1380 21.737
11.1532 21.597
11.1683 21.610
11.1835 21.849
11.1987 21.731
11.2139 21.383
11.2290 21.399
11.2442 21.552
11.2594 21.658
11.2746 21.368
11.2897 21.247
11.3049 21.619
11.3201 21.236
11.3353 21.372
11.3504 21.146
11.3656 20.961
11.3808 21.372
11.3960 21.374
11.4111 21.080
11.4263 21.266
11.4415 21.357
11.4567 21.185
11.4718 21.227
11.4870 20.901
11.5022 21.027
11.5174 20.738
11.5325 20.880
11.5477 20.882
11.5629 20.175
11.5781 20.612
11.5932 20.909
11.6084 20.511
11.6236 20.358
11.6388 20.538
11.6539 20.258
11.6691 20.619
11.6843 20.635
11.6995 20.361
11.7146 20.249
11.7298 20.415
11.7450 20.142
11.7602 20.026
11.7753 20.256
11.7905 19.843
11.8057 19.708
11.8209 19.580
11.8360 19.319
11.8512 19.550
11.8664 19.908
11.8816 19.648
11.8967 19.569
11.9119 19.720
11.9271 19.485
11.9423 18.989
11.9574 18.760
11.9726 18.791
11.9878 18.782
12.0030 18.759
12.0181 18.751
12.0333 19.046
12.0485 18.979
12.0637 18.884
12.0788 18.724
12.0940 18.664
12.1092 18.832
12.1244 18.649
12.1395 18.788
12.1547 18.517
12.1699 18.067
12.1851 18.300
12.2002 18.060
12.2154 18.157
12.2306 17.860
12.2458 18.027
12.2609 18.047
12.2761 17.606
12.2913 17.470
12.3065 17.725
12.3216 17.408
12.3368 17.511
12.3520 17.106
12.3672 17.014
12.3823 17.118
12.3975 17.043
12.4127 16.952
12.4279 16.890
12.4430 16.945
12.4582 17.104
12.4734 16.830
12.4886 16.540
12.5037 16.781
12.5189 16.372
12.5341 16.131
12.5493 16.298
12.5644 16.376
12.5796 16.442
12.5948 16.153
12.6100 15.936
12.6251 16.038
12.6403 15.900
12.6555 15.866
12.6707 15.982
12.6858 15.827
12.7010 15.561
12.7162 15.097
12.7314 15.105
12.7465 15.139
12.7617 15.267
12.7769 14.984
12.7921 14.986
12.8072 15.260
12.8224 15.157
12.8376 14.992
12.8528 14.882
12.8679 14.882
12.8831 14.820
12.8983 14.595
12.9135 14.663
12.9286 14.718
12.9438 14.420
12.9590 14.307
12.9742 14.276
12.9893 14.325
13.0045 14.240
13.0197 14.110
13.0349 14.033
13.0500 13.757
13.0652 13.822
13.0804 13.988
13.0956 13.865
13.1107 13.647
13.1259 13.782
13.1411 13.889
13.1563 13.739
13.1714 13.697
13.1866 13.718
13.2018 13.731
13.2170 13.478
13.2321 13.528
13.2473 13.514
13.2625 13.111
13.2777 13.118
13.2928 12.984
13.3080 12.775
13.3232 12.990
13.3384 13.354
13.3535 13.274
13.3687 12.882
13.3839 12.967
13.3991 13.039
13.4142 12.942
13.4294 12.781
13.4446 12.736
13.4598 12.641
13.4749 12.569
13.4901 12.653
13.5053 12.496
13.5205 12.418
13.5356 12.301
13.5508 12.117
13.5660 12.189
13.5812 12.212
13.5963 12.342
13.6115 12.339
13.6267 12.066
13.6419 11.960
13.6570 12.280
13.6722 12.100
13.6874 11.780
13.7026 12.007
13.7177 11.988
13.7329 12.120
13.7481 12.079
13.7633 12.069
13.7784 11.987
13.7936 11.953
13.8088 12.004
13.8239 12.257
13.8391 12.291
13.8543 12.064
13.8695 12.011
13.8846 12.231
13.8998 12.017
13.9150 12.142
13.9302 11.963
13.9453 11.954
13.9605 11.759
13.9757 11.831
13.9909 11.722
14.0060 11.498
14.0212 11.513
14.0364 11.329
14.0516 11.331
14.0667 11.342
14.0819 11.151
14.0971 11.234
14.1123 11.565
14.1274 11.362
14.1426 11.377
14.1578 11.355
14.1730 11.481
14.1881 11.472
14.2033 11.497
14.2185 11.602
14.2337 11.694
14.2488 11.529
14.2640 11.486
14.2792 11.509
14.2944 11.582
14.3095 11.576
14.3247 12.023
14.3399 12.139
14.3551 12.331
14.3702 12.596
14.3854 12.768
14.4006 12.731
14.4158 13.217
14.4309 13.183
14.4461 13.240
14.4613 13.084
14.4765 12.884
14.4916 12.698
14.5068 12.402
14.5220 12.108
14.5372 11.809
14.5523 11.521
14.5675 11.446
14.5827 11.453
14.5979 10.946
14.6130 10.976
14.6282 11.192
14.6434 11.119
14.6586 10.686
14.6737 10.906
14.6889 10.689
14.7041 10.722
14.7193 10.673
14.7344 10.838
14.7496 10.493
14.7648 10.546
14.7800 10.658
14.7951 10.358
14.8103 10.600
14.8255 10.331
14.8407 10.362
14.8558 10.452
14.8710 10.247
14.8862 10.616
14.9014 10.552
14.9165 10.656
14.9317 10.480
14.9469 10.364
14.9621 10.572
14.9772 9.829
14.9924 10.726
15.0076 10.305
15.0228 10.431
15.0379 10.219
15.0531 10.359
15.0683 10.215
15.0835 10.525
15.0986 10.219
15.1138 10.038
15.1290 9.688
15.1442 10.095
15.1593 10.369
15.1745 9.950
15.1897 10.006
15.2049 10.167
15.2200 10.097
15.2352 10.189
15.2504 10.388
15.2656 10.230
15.2807 10.124
15.2959 10.053
15.3111 9.958
15.3263 10.177
15.3414 9.781
15.3566 10.118
15.3718 9.875
15.3870 10.121
15.4021 10.036
15.4173 10.050
15.4325 9.878
15.4477 9.984
15.4628 10.046
15.4780 10.402
15.4932 10.140
15.5084 10.149
15.5235 10.355
15.5387 9.995
15.5539 10.157
15.5691 9.746
15.5842 10.308
15.5994 9.518
15.6146 9.856
15.6298 9.768
15.6449 9.885
15.6601 9.581
15.6753 9.614
15.6905 9.713
15.7056 9.652
15.7208 9.773
15.7360 9.777
15.7512 9.904
15.7663 9.580
15.7815 9.993
15.7967 9.592
15.8119 9.925
15.8270 9.946
15.8422 9.736
15.8574 9.579
15.8726 9.483
15.8877 9.660
15.9029 9.588
15.9181 9.527
15.9333 9.416
15.9484 9.332
15.9636 9.459
15.9788 9.697
15.9940 9.661
16.0091 9.533
16.0243 9.649
16.0395 9.544
16.0547 9.687
16.0698 9.512
16.0850 9.358
16.1002 9.665
16.1154 9.663
16.1305 9.546
16.1457 9.397
16.1609 9.483
16.1761 9.466
16.1912 9.665
16.2064 9.967
16.2216 9.808
16.2368 10.150
16.2519 9.872
16.2671 9.628
16.2823 9.750
16.2975 9.656
16.3126 9.433
16.3278 9.850
16.3430 9.924
16.3582 9.779
16.3733 9.917
16.3885 10.171
16.4037 9.709
16.4189 9.691
16.4340 9.610
16.4492 9.719
16.4644 9.451
16.4796 9.633
16.4947 9.632
16.5099 9.591
16.5251 9.630
16.5403 9.518
16.5554 9.576
16.5706 9.446
16.5858 9.373
16.6010 9.536
16.6161 9.450
16.6313 9.564
16.6465 9.615
16.6617 9.614
16.6768 9.652
16.6920 9.580
16.7072 9.621
16.7224 9.644
16.7375 9.722
16.7527 9.809
16.7679 9.724
16.7831 9.665
16.7982 9.736
16.8134 9.767
16.8286 9.873
16.8438 9.875
16.8589 9.740
16.8741 9.637
16.8893 9.667
16.9045 9.691
16.9196 9.769
16.9348 9.774
16.9500 9.891
16.9652 9.778
16.9803 9.706
16.9955 9.839
17.0107 9.859
17.0259 9.747
17.0410 9.798
17.0562 9.812
17.0714 10.105
17.0866 10.367
17.1017 10.360
17.1169 10.534
17.1321 10.899
17.1473 11.045
17.1624 11.436
17.1776 12.124
17.1928 12.825
17.2080 13.785
17.2231 14.885
17.2383 16.147
17.2535 17.305
17.2687 18.261
17.2838 18.650
17.2990 18.039
17.3142 16.895
17.3294 16.096
17.3445 15.787
17.3597 15.713
17.3749 15.656
17.3901 14.919
17.4052 13.992
17.4204 13.131
17.4356 12.287
17.4508 11.675
17.4659 11.257
17.4811 11.148
17.4963 11.017
17.5115 10.621
17.5266 10.466
17.5418 10.792
17.5570 10.676
17.5722 10.471
17.5873 10.701
17.6025 10.677
17.6177 10.570
17.6329 10.694
17.6480 10.830
17.6632 11.016
17.6784 11.272
17.6936 11.533
17.7087 11.640
17.7239 11.574
17.7391 11.457
17.7543 11.275
17.7694 11.111
17.7846 11.195
17.7998 11.184
17.8150 11.012
17.8301 11.019
17.8453 10.872
17.8605 10.544
17.8757 10.586
17.8908 10.438
17.9060 10.322
17.9212 10.556
17.9364 10.403
17.9515 10.268
17.9667 10.098
17.9819 10.038
17.9971 10.035
18.0122 10.098
18.0274 9.998
18.0426 10.055
18.0578 9.953
18.0729 9.901
18.0881 9.832
18.1033 9.873
18.1185 9.967
18.1336 9.922
18.1488 9.991
18.1640 10.025
18.1792 9.644
18.1943 9.803
18.2095 9.958
18.2247 9.865
18.2399 9.925
18.2550 9.730
18.2702 9.774
18.2854 9.856
18.3006 9.920
18.3157 9.855
18.3309 9.683
18.3461 9.776
18.3613 10.070
18.3764 9.986
18.3916 9.535
18.4068 9.568
18.4220 9.772
18.4371 9.608
18.4523 9.594
18.4675 9.772
18.4827 9.727
18.4978 9.715
18.5130 9.854
18.5282 9.795
18.5434 9.718
18.5585 9.673
18.5737 9.519
18.5889 9.242
18.6041 9.709
18.6192 9.689
18.6344 9.620
18.6496 9.856
18.6648 9.726
18.6799 9.585
18.6951 9.594
18.7103 9.604
18.7255 9.711
18.7406 9.828
18.7558 9.701
18.7710 9.708
18.7862 9.536
18.8013 9.757
18.8165 9.616
18.8317 9.532
18.8469 9.712
18.8620 9.830
18.8772 9.911
18.8924 9.899
18.9076 9.825
18.9227 9.616
18.9379 9.832
18.9531 9.998
18.9683 9.859
18.9834 9.890
18.9986 10.048
19.0138 10.103
19.0290 10.065
19.0441 10.086
19.0593 10.277
19.0745 10.354
19.0897 10.341
19.1048 10.271
19.1200 10.022
19.1352 9.955
19.1504 10.274
19.1655 10.362
19.1807 10.417
19.1959 10.561
19.2111 10.725
19.2262 10.917
19.2414 10.908
19.2566 10.809
19.2718 10.754
19.2869 10.661
19.3021 10.584
19.3173 10.764
19.3325 10.963
19.3476 11.173
19.3628 11.446
19.3780 11.201
19.3932 11.115
19.4083 11.086
19.4235 10.934
19.4387 11.042
19.4539 10.962
19.4690 11.126
19.4842 11.287
19.4994 11.226
19.5146 11.316
19.5297 11.231
19.5449 11.168
19.5601 11.546
19.5753 11.744
19.5904 11.559
19.6056 11.526
19.6208 11.517
19.6360 11.633
19.6511 11.645
19.6663 11.400
19.6815 11.345
19.6967 11.619
19.7118 11.748
19.7270 11.542
19.7422 11.631
19.7574 11.827
19.7725 11.759
19.7877 11.676
19.8029 11.606
19.8180 11.625
19.8332 11.887
19.8484 12.057
19.8636 12.236
19.8787 12.340
19.8939 12.607
19.9091 13.193
19.9243 13.661
19.9394 13.856
19.9546 14.037
19.9698 14.287
19.9850 14.410
20.0001 14.211
20.0153 13.749
20.0305 13.606
20.0457 13.357
20.0608 13.510
20.0760 13.637
20.0912 13.588
20.1064 13.459
20.1215 13.054
20.1367 12.961
20.1519 12.935
20.1671 12.450
20.1822 12.249
20.1974 12.424
20.2126 12.349
20.2278 12.184
20.2429 12.222
20.2581 11.892
20.2733 11.761
20.2885 11.589
20.3036 11.673
20.3188 11.566
20.3340 11.387
20.3492 11.413
20.3643 11.476
20.3795 11.609
20.3947 11.420
20.4099 11.407
20.4250 11.319
20.4402 11.507
20.4554 11.574
20.4706 11.874
20.4857 11.731
20.5009 11.742
20.5161 11.568
20.5313 11.287
20.5464 11.307
20.5616 11.421
20.5768 11.443
20.5920 11.341
20.6071 11.332
20.6223 11.045
20.6375 10.948
20.6527 10.832
20.6678 10.771
20.6830 10.741
20.6982 10.702
20.7134 10.576
20.7285 10.315
20.7437 10.459
20.7589 10.582
20.7741 10.254
20.7892 10.230
20.8044 10.181
20.8196 10.187
20.8348 10.186
20.8499 10.162
20.8651 10.119
20.8803 10.183
20.8955 10.249
20.9106 10.383
20.9258 10.011
20.9410 9.898
20.9562 10.205
20.9713 10.213
20.9865 10.138
21.0017 9.964
21.0169 10.032
21.0320 9.979
21.0472 9.976
21.0624 9.816
21.0776 9.782
21.0927 10.054
21.1079 9.624
21.1231 9.744
21.1383 9.752
21.1534 10.091
21.1686 9.871
21.1838 9.695
21.1990 9.715
21.2141 9.673
21.2293 9.838
21.2445 9.240
21.2597 9.669
21.2748 9.189
21.2900 10.005
21.3052 9.356
21.3204 9.275
21.3355 9.483
21.3507 9.373
21.3659 9.153
21.3811 9.209
21.3962 9.486
21.4114 9.483
21.4266 9.468
21.4418 9.817
21.4569 9.424
21.4721 9.194
21.4873 9.497
21.5025 9.396
21.5176 9.074
21.5328 9.275
21.5480 9.162
21.5632 9.307
21.5783 9.347
21.5935 9.282
21.6087 9.100
21.6239 9.134
21.6390 8.885
21.6542 9.128
21.6694 9.084
21.6846 9.022
21.6997 9.012
21.7149 8.906
21.7301 8.939
21.7453 8.938
21.7604 9.083
21.7756 9.242
21.7908 9.003
21.8060 9.027
21.8211 9.030
21.8363 8.793
21.8515 9.042
21.8667 9.075
21.8818 8.802
21.8970 8.847
21.9122 8.854
21.9274 8.885
21.9425 8.908
21.9577 8.902
21.9729 8.808
21.9881 8.703
22.0032 8.813
22.0184 8.788
22.0336 8.701
22.0488 8.712
22.0639 8.724
22.0791 8.742
22.0943 8.857
22.1095 8.971
22.1246 8.913
22.1398 8.768
22.1550 8.585
22.1702 8.553
22.1853 8.644
22.2005 8.582
22.2157 8.442
22.2309 8.298
22.2460 8.213
22.2612 8.699
22.2764 8.696
22.2916 8.331
22.3067 8.250
22.3219 8.347
22.3371 8.519
22.3523 8.535
22.3674 8.572
22.3826 8.326
22.3978 8.561
22.4130 8.498
22.4281 8.462
22.4433 8.316
22.4585 8.425
22.4737 8.299
22.4888 8.289
22.5040 8.167
22.5192 8.744
22.5344 8.623
22.5495 8.235
22.5647 8.139
22.5799 8.346
22.5951 8.377
22.6102 8.569
22.6254 8.528
22.6406 8.249
22.6558 8.083
22.6709 8.528
22.6861 8.311
22.7013 7.807
22.7165 7.921
22.7316 6.250
