'Id: "" Comment: "" Operator: "Lab Manager" Anode: "Mo" Scantype: "Still (Eiger2R_500K (1D mode))" TimePerStep: "300" X: "11.8" Y: "9.4" Z: "11.284" 
7.2532 18.412
7.2684 18.535
7.2836 18.576
7.2987 18.701
7.3139 19.415
7.3291 18.974
7.3443 19.057
7.3594 18.973
7.3746 19.044
7.3898 19.311
7.4050 19.576
7.4201 19.185
7.4353 19.608
7.4505 19.372
7.4657 19.225
7.4808 18.943
7.4960 19.385
7.5112 19.318
7.5264 19.394
7.5415 19.861
7.5567 20.057
7.5719 19.759
7.5871 20.003
7.6022 19.941
7.6174 20.140
7.6326 19.977
7.6478 20.096
7.6629 20.076
7.6781 20.138
7.6933 20.274
7.7085 20.310
7.7236 20.477
7.7388 20.447
7.7540 20.395
7.7692 20.114
7.7843 20.326
7.7995 20.625
7.8147 20.752
7.8299 20.679
7.8450 20.443
7.8602 20.715
7.8754 20.740
7.8905 20.563
7.9057 20.628
7.9209 20.755
7.9361 20.635
7.9512 20.633
7.9664 20.915
7.9816 21.230
7.9968 21.181
8.0119 20.818
8.0271 20.650
8.0423 21.082
8.0575 21.262
8.0726 21.189
8.0878 21.229
8.1030 21.117
8.1182 21.255
8.1333 21.312
8.1485 21.151
8.1637 21.050
8.1789 21.465
8.1940 21.646
8.2092 21.236
8.2244 21.735
8.2396 21.833
8.2547 21.347
8.2699 21.091
8.2851 21.289
8.3003 21.784
8.3154 21.637
8.3306 21.872
8.3458 21.646
8.3610 21.469
8.3761 21.832
8.3913 21.315
8.4065 21.542
8.4217 21.598
8.4368 21.998
8.4520 22.128
8.4672 22.108
8.4824 22.261
8.4975 22.184
8.5127 21.564
8.5279 21.590
8.5431 21.731
8.5582 22.035
8.5734 21.888
8.5886 21.769
8.6038 21.778
8.6189 22.307
8.6341 22.213
8.6493 22.039
8.6645 22.047
8.6796 22.417
8.6948 21.970
8.7100 22.399
8.7252 22.691
8.7403 21.990
8.7555 22.143
8.7707 22.387
8.7859 22.365
8.8010 22.414
8.8162 22.144
8.8314 22.349
8.8466 22.357
8.8617 22.363
8.8769 22.369
8.8921 22.288
8.9073 22.611
8.9224 22.553
8.9376 22.766
8.9528 22.998
8.9680 22.572
8.9831 22.766
8.9983 22.465
9.0135 22.684
9.0287 22.244
9.0438 22.550
9.0590 22.915
9.0742 22.786
9.0894 23.037
9.1045 22.990
9.1197 22.951
9.1349 22.683
9.1501 22.622
9.1652 22.549
9.1804 23.157
9.1956 23.163
9.2108 22.916
9.2259 22.664
9.2411 22.984
9.2563 22.821
9.2715 22.871
9.2866 23.224
9.3018 22.929
9.3170 22.837
9.3322 22.820
9.3473 22.876
9.3625 22.905
9.3777 23.313
9.3929 23.179
9.4080 23.054
9.4232 22.953
9.4384 23.030
9.4536 23.011
9.4687 22.633
9.4839 22.910
9.4991 23.241
9.5143 23.105
9.5294 23.025
9.5446 22.804
9.5598 22.768
9.5750 23.032
9.5901 23.466
9.6053 23.439
9.6205 23.393
9.6357 23.597
9.6508 23.816
9.6660 23.535
9.6812 23.585
9.6964 24.034
9.7115 24.214
9.7267 23.773
9.7419 23.746
9.7571 23.812
9.7722 23.661
9.7874 23.663
9.8026 23.842
9.8178 23.773
9.8329 23.625
9.8481 23.448
9.8633 23.079
9.8785 23.089
9.8936 23.188
9.9088 23.163
9.9240 23.113
9.9392 22.955
9.9543 23.063
9.9695 23.379
9.9847 23.200
9.9999 23.136
10.0150 23.519
10.0302 23.615
10.0454 23.305
10.0606 23.003
10.0757 23.105
10.0909 23.203
10.1061 23.245
10.1213 23.319
10.1364 23.324
10.1516 23.128
10.1668 23.266
10.1820 23.692
10.1971 23.541
10.2123 23.384
10.2275 23.088
10.2427 22.987
10.2578 23.199
10.2730 23.091
10.2882 23.019
10.3034 22.763
10.3185 22.854
10.3337 23.241
10.3489 22.775
10.3641 22.475
10.3792 22.786
10.3944 22.773
10.4096 22.523
10.4248 22.495
10.4399 22.638
10.4551 22.659
10.4703 22.507
10.4855 22.541
10.5006 22.325
10.5158 22.498
10.5310 22.565
10.5462 22.171
10.5613 22.418
10.5765 22.830
10.5917 22.801
10.6069 22.646
10.6220 22.265
10.6372 22.445
10.6524 22.439
10.6676 22.338
10.6827 22.544
10.6979 22.458
10.7131 22.248
10.7283 22.260
10.7434 22.422
10.7586 22.199
10.7738 22.099
10.7890 22.185
10.8041 22.259
10.8193 22.051
10.8345 21.895
10.8497 22.041
10.8648 22.093
10.8800 22.072
10.8952 21.663
10.9104 22.107
10.9255 22.166
10.9407 22.342
10.9559 22.131
10.9711 21.944
10.9862 22.005
11.0014 21.893
11.0166 21.844
11.0318 21.969
11.0469 22.037
11.0621 22.090
11.0773 21.868
11.0925 21.789
11.1076 21.779
11.1228 21.860
11.1380 21.954
11.1532 21.612
11.1683 21.594
11.1835 21.463
11.1987 21.438
11.2139 21.691
11.2290 21.422
11.2442 21.491
11.2594 21.548
11.2746 21.555
11.2897 21.619
11.3049 21.379
11.3201 21.316
11.3353 21.232
11.3504 21.466
11.3656 21.513
11.3808 21.372
11.3960 21.190
11.4111 20.947
11.4263 20.890
11.4415 20.771
11.4567 21.250
11.4718 21.373
11.4870 21.196
11.5022 21.120
11.5174 21.068
11.5325 20.955
11.5477 20.714
11.5629 20.679
11.5781 20.960
11.5932 20.969
11.6084 20.787
11.6236 20.776
11.6388 20.721
11.6539 20.401
11.6691 20.233
11.6843 20.532
11.6995 20.250
11.7146 19.980
11.7298 20.329
11.7450 20.229
11.7602 20.122
11.7753 19.987
11.7905 20.138
11.8057 20.225
11.8209 20.116
11.8360 19.947
11.8512 20.266
11.8664 19.819
11.8816 19.641
11.8967 19.798
11.9119 19.640
11.9271 19.446
11.9423 19.296
11.9574 19.359
11.9726 19.533
11.9878 19.199
12.0030 19.252
12.0181 19.370
12.0333 19.196
12.0485 19.158
12.0637 18.805
12.0788 19.049
12.0940 19.069
12.1092 18.648
12.1244 18.523
12.1395 18.664
12.1547 19.018
12.1699 18.823
12.1851 18.372
12.2002 18.584
12.2154 18.320
12.2306 18.186
12.2458 18.220
12.2609 18.046
12.2761 17.893
12.2913 17.757
12.3065 17.779
12.3216 17.802
12.3368 17.457
12.3520 17.389
12.3672 17.343
12.3823 17.341
12.3975 17.118
12.4127 17.026
12.4279 17.284
12.4430 17.293
12.4582 16.947
12.4734 16.787
12.4886 16.494
12.5037 16.345
12.5189 16.344
12.5341 16.199
12.5493 16.297
12.5644 16.354
12.5796 16.163
12.5948 16.294
12.6100 16.046
12.6251 16.025
12.6403 16.217
12.6555 15.884
12.6707 15.514
12.6858 15.449
12.7010 15.589
12.7162 15.332
12.7314 15.359
12.7465 15.631
12.7617 15.519
12.7769 15.270
12.7921 14.765
12.8072 14.539
12.8224 14.811
12.8376 15.030
12.8528 14.998
12.8679 14.725
12.8831 14.759
12.8983 15.038
12.9135 14.837
12.9286 14.505
12.9438 14.306
12.9590 14.343
12.9742 14.373
12.9893 14.220
13.0045 14.120
13.0197 14.160
13.0349 14.260
13.0500 14.079
13.0652 13.840
13.0804 13.759
13.0956 13.792
13.1107 13.660
13.1259 13.409
13.1411 13.494
13.1563 13.797
13.1714 13.733
13.1866 13.593
13.2018 13.541
13.2170 13.242
13.2321 13.222
13.2473 13.249
13.2625 13.202
13.2777 13.391
13.2928 13.396
13.3080 13.231
13.3232 13.133
13.3384 12.963
13.3535 12.815
13.3687 12.733
13.3839 12.823
13.3991 13.105
13.4142 13.044
13.4294 12.671
13.4446 12.573
13.4598 12.745
13.4749 12.548
13.4901 12.152
13.5053 12.325
13.5205 12.542
13.5356 12.482
13.5508 12.622
13.5660 12.560
13.5812 12.327
13.5963 12.327
13.6115 12.362
13.6267 12.350
13.6419 12.232
13.6570 12.326
13.6722 12.293
13.6874 12.232
13.7026 11.983
13.7177 11.874
13.7329 11.887
13.7481 11.939
13.7633 12.068
13.7784 12.028
13.7936 12.002
13.8088 12.058
13.8239 11.895
13.8391 12.116
13.8543 12.270
13.8695 12.114
13.8846 12.331
13.8998 12.279
13.9150 12.028
13.9302 12.056
13.9453 12.080
13.9605 11.978
13.9757 11.907
13.9909 11.763
14.0060 11.616
14.0212 11.839
14.0364 11.608
14.0516 11.469
14.0667 11.520
14.0819 11.548
14.0971 11.634
14.1123 11.644
14.1274 11.466
14.1426 11.427
14.1578 11.706
14.1730 11.750
14.1881 11.468
14.2033 11.528
14.2185 11.599
14.2337 11.588
14.2488 11.742
14.2640 11.660
14.2792 11.827
14.2944 11.723
14.3095 11.886
14.3247 11.963
14.3399 12.193
14.3551 12.402
14.3702 12.398
14.3854 13.027
14.4006 13.151
14.4158 13.034
14.4309 13.198
14.4461 13.273
14.4613 13.039
14.4765 12.614
14.4916 12.436
14.5068 12.108
14.5220 12.112
14.5372 11.837
14.5523 11.509
14.5675 11.244
14.5827 10.997
14.5979 10.974
14.6130 10.862
14.6282 10.855
14.6434 11.086
14.6586 10.827
14.6737 10.798
14.6889 10.804
14.7041 10.766
14.7193 10.402
14.7344 10.624
14.7496 10.381
14.7648 10.408
14.7800 10.604
14.7951 10.659
14.8103 10.586
14.8255 10.670
14.8407 10.458
14.8558 10.548
14.8710 10.234
14.8862 10.106
14.9014 10.177
14.9165 10.824
14.9317 10.591
14.9469 10.750
14.9621 10.666
14.9772 10.247
14.9924 10.224
15.0076 10.008
15.0228 10.637
15.0379 10.256
15.0531 10.318
15.0683 10.447
15.0835 10.190
15.0986 10.199
15.1138 10.113
15.1290 10.384
15.1442 10.107
15.1593 10.182
15.1745 10.217
15.1897 9.957
15.2049 10.286
15.2200 10.240
15.2352 9.817
15.2504 10.180
15.2656 9.922
15.2807 9.721
15.2959 9.977
15.3111 10.096
15.3263 9.982
15.3414 9.926
15.3566 10.531
15.3718 10.313
15.3870 10.074
15.4021 10.175
15.4173 10.448
15.4325 10.282
15.4477 10.114
15.4628 10.174
15.4780 10.151
15.4932 9.833
15.5084 10.344
15.5235 10.406
15.5387 9.913
15.5539 9.896
15.5691 9.965
15.5842 9.730
15.5994 9.989
15.6146 9.731
15.6298 10.062
15.6449 9.934
15.6601 9.650
15.6753 9.879
15.6905 9.919
15.7056 10.018
15.7208 9.855
15.7360 9.786
15.7512 9.744
15.7663 9.725
15.7815 9.840
15.7967 9.898
15.8119 9.884
15.8270 9.616
15.8422 9.639
15.8574 9.656
15.8726 9.487
15.8877 9.303
15.9029 9.296
15.9181 9.402
15.9333 9.522
15.9484 9.574
15.9636 9.689
15.9788 9.634
15.9940 10.095
16.0091 10.007
16.0243 9.520
16.0395 9.340
16.0547 9.586
16.0698 9.680
16.0850 9.603
16.1002 9.418
16.1154 9.464
16.1305 9.141
16.1457 9.322
16.1609 9.511
16.1761 9.358
16.1912 9.706
16.2064 9.744
16.2216 9.730
16.2368 9.847
16.2519 9.925
16.2671 9.900
16.2823 9.628
16.2975 9.735
16.3126 10.082
16.3278 9.795
16.3430 9.658
16.3582 9.771
16.3733 9.657
16.3885 9.870
16.4037 10.035
16.4189 9.928
16.4340 9.718
16.4492 9.633
16.4644 9.518
16.4796 9.528
16.4947 9.671
16.5099 9.672
16.5251 9.626
16.5403 9.588
16.5554 9.589
16.5706 9.612
16.5858 9.478
16.6010 9.556
16.6161 9.516
16.6313 9.712
16.6465 9.813
16.6617 9.828
16.6768 9.789
16.6920 9.609
16.7072 9.721
16.7224 9.993
16.7375 9.847
16.7527 9.903
16.7679 9.845
16.7831 9.578
16.7982 9.742
16.8134 9.923
16.8286 9.794
16.8438 9.697
16.8589 9.557
16.8741 9.558
16.8893 9.530
16.9045 9.727
16.9196 9.821
16.9348 9.706
16.9500 9.696
16.9652 9.718
16.9803 9.681
16.9955 9.702
17.0107 9.787
17.0259 9.978
17.0410 9.924
17.0562 9.753
17.0714 9.957
17.0866 10.171
17.1017 10.343
17.1169 10.637
17.1321 10.903
17.1473 11.186
17.1624 11.722
17.1776 12.399
17.1928 13.072
17.2080 13.943
17.2231 14.882
17.2383 16.081
17.2535 17.495
17.2687 18.572
17.2838 18.400
17.2990 17.694
17.3142 16.972
17.3294 16.258
17.3445 16.044
17.3597 15.934
17.3749 15.753
17.3901 15.412
17.4052 14.305
17.4204 13.273
17.4356 12.593
17.4508 11.827
17.4659 11.580
17.4811 11.460
17.4963 11.354
17.5115 11.189
17.5266 10.835
17.5418 10.774
17.5570 10.898
17.5722 10.687
17.5873 10.739
17.6025 11.106
17.6177 11.143
17.6329 10.991
17.6480 11.321
17.6632 11.805
17.6784 11.883
17.6936 12.061
17.7087 12.086
17.7239 11.992
17.7391 11.636
17.7543 11.227
17.7694 11.207
17.7846 11.138
17.7998 11.347
17.8150 11.261
17.8301 10.861
17.8453 10.661
17.8605 10.572
17.8757 10.579
17.8908 10.572
17.9060 10.606
17.9212 10.492
17.9364 10.141
17.9515 10.120
17.9667 10.286
17.9819 10.357
17.9971 10.372
18.0122 10.275
18.0274 10.340
18.0426 10.316
18.0578 10.077
18.0729 10.109
18.0881 10.337
18.1033 10.080
18.1185 9.828
18.1336 9.783
18.1488 9.752
18.1640 10.104
18.1792 10.167
18.1943 9.844
18.2095 9.880
18.2247 9.877
18.2399 10.096
18.2550 10.130
18.2702 9.946
18.2854 9.911
18.3006 9.843
18.3157 9.813
18.3309 9.788
18.3461 9.837
18.3613 9.838
18.3764 9.757
18.3916 9.932
18.4068 10.057
18.4220 9.945
18.4371 9.843
18.4523 9.878
18.4675 9.764
18.4827 9.915
18.4978 9.810
18.5130 9.640
18.5282 9.822
18.5434 9.717
18.5585 9.545
18.5737 9.747
18.5889 9.775
18.6041 9.983
18.6192 9.960
18.6344 9.922
18.6496 9.865
18.6648 9.775
18.6799 9.735
18.6951 9.756
18.7103 9.845
18.7255 9.756
18.7406 9.731
18.7558 9.703
18.7710 9.587
18.7862 9.692
18.8013 9.777
18.8165 9.676
18.8317 9.735
18.8469 9.955
18.8620 10.005
18.8772 10.013
18.8924 10.185
18.9076 9.947
18.9227 9.876
18.9379 10.068
18.9531 10.069
18.9683 9.924
18.9834 9.815
18.9986 10.120
19.0138 10.036
19.0290 10.131
19.0441 10.363
19.0593 10.224
19.0745 10.004
19.0897 10.118
19.1048 10.405
19.1200 10.415
19.1352 10.490
19.1504 10.741
19.1655 10.371
19.1807 10.236
19.1959 10.551
19.2111 10.789
19.2262 10.771
19.2414 10.581
19.2566 10.561
19.2718 10.775
19.2869 10.979
19.3021 11.026
19.3173 10.952
19.3325 10.896
19.3476 10.823
19.3628 11.108
19.3780 11.128
19.3932 11.087
19.4083 11.314
19.4235 11.280
19.4387 11.051
19.4539 11.119
19.4690 11.163
19.4842 11.302
19.4994 11.364
19.5146 11.334
19.5297 11.333
19.5449 11.443
19.5601 11.431
19.5753 11.637
19.5904 11.790
19.6056 11.751
19.6208 11.764
19.6360 11.779
19.6511 11.903
19.6663 12.014
19.6815 11.750
19.6967 11.653
19.7118 11.734
19.7270 11.664
19.7422 11.840
19.7574 12.010
19.7725 12.111
19.7877 12.064
19.8029 12.099
19.8180 12.140
19.8332 11.962
19.8484 12.106
19.8636 12.383
19.8787 12.639
19.8939 12.974
19.9091 13.453
19.9243 13.476
19.9394 13.649
19.9546 14.109
19.9698 14.374
19.9850 14.454
20.0001 14.472
20.0153 13.947
20.0305 13.603
20.0457 13.876
20.0608 13.778
20.0760 13.764
20.0912 13.851
20.1064 13.755
20.1215 13.505
20.1367 13.299
20.1519 12.880
20.1671 12.784
20.1822 13.078
20.1974 12.777
20.2126 12.429
20.2278 12.747
20.2429 12.728
20.2581 12.223
20.2733 12.025
20.2885 11.997
20.3036 11.939
20.3188 12.058
20.3340 12.023
20.3492 11.897
20.3643 11.902
20.3795 11.849
20.3947 11.604
20.4099 11.788
20.4250 12.024
20.4402 11.914
20.4554 12.020
20.4706 12.066
20.4857 12.192
20.5009 12.067
20.5161 12.026
20.5313 11.522
20.5464 11.466
20.5616 11.395
20.5768 11.295
20.5920 11.310
20.6071 11.340
20.6223 11.300
20.6375 10.938
20.6527 10.991
20.6678 10.929
20.6830 10.685
20.6982 10.904
20.7134 10.512
20.7285 10.453
20.7437 10.421
20.7589 10.470
20.7741 10.612
20.7892 10.536
20.8044 10.623
20.8196 10.124
20.8348 10.242
20.8499 10.315
20.8651 9.898
20.8803 10.297
20.8955 10.219
20.9106 10.263
20.9258 10.118
20.9410 10.221
20.9562 10.259
20.9713 10.424
20.9865 9.938
21.0017 10.093
21.0169 9.818
21.0320 9.902
21.0472 9.814
21.0624 9.773
21.0776 9.948
21.0927 9.879
21.1079 10.141
21.1231 9.943
21.1383 10.020
21.1534 9.788
21.1686 10.117
21.1838 9.725
21.1990 9.429
21.2141 10.106
21.2293 9.568
21.2445 9.430
21.2597 9.603
21.2748 9.764
21.2900 9.428
21.3052 9.636
21.3204 9.494
21.3355 9.714
21.3507 9.353
21.3659 9.685
21.3811 9.762
21.3962 9.578
21.4114 9.472
21.4266 9.400
21.4418 9.420
21.4569 9.566
21.4721 9.273
21.4873 9.211
21.5025 9.392
21.5176 9.166
21.5328 9.042
21.5480 9.337
21.5632 9.408
21.5783 9.110
21.5935 9.285
21.6087 8.995
21.6239 8.832
21.6390 9.111
21.6542 9.139
21.6694 9.200
21.6846 9.156
21.6997 8.934
21.7149 9.013
21.7301 9.091
21.7453 9.021
21.7604 9.009
21.7756 9.134
21.7908 9.092
21.8060 9.281
21.8211 9.312
21.8363 9.260
21.8515 8.988
21.8667 9.039
21.8818 9.087
21.8970 9.185
21.9122 9.047
21.9274 9.081
21.9425 9.063
21.9577 9.135
21.9729 9.050
21.9881 9.086
22.0032 9.037
22.0184 8.803
22.0336 8.613
22.0488 8.664
22.0639 8.737
22.0791 8.700
22.0943 8.661
22.1095 8.591
22.1246 8.638
22.1398 8.675
22.1550 8.676
22.1702 8.598
22.1853 8.686
22.2005 8.604
22.2157 8.742
22.2309 8.573
22.2460 8.409
22.2612 8.357
22.2764 8.487
22.2916 8.416
22.3067 8.615
22.3219 8.409
22.3371 8.252
22.3523 8.346
22.3674 8.546
22.3826 8.486
22.3978 8.320
22.4130 8.406
22.4281 8.764
22.4433 8.666
22.4585 8.480
22.4737 8.601
22.4888 8.539
22.5040 8.331
22.5192 8.352
22.5344 8.497
22.5495 8.362
22.5647 8.377
22.5799 8.154
22.5951 8.493
22.6102 8.201
22.6254 8.255
22.6406 8.209
22.6558 8.261
22.6709 8.400
22.6861 8.465
22.7013 8.176
22.7165 8.009
22.7316 6.571
