'Id: "" Comment: "" Operator: "Lab Manager" Anode: "Mo" Scantype: "Still (Eiger2R_500K (1D mode))" TimePerStep: "300" X: "11.8" Y: "9.4" Z: "11.284" 
7.2532 18.180
7.2684 18.348
7.2836 19.163
7.2987 18.811
7.3139 19.100
7.3291 19.373
7.3443 19.437
7.3594 19.281
7.3746 19.477
7.3898 19.306
7.4050 19.409
7.4201 19.453
7.4353 19.482
7.4505 19.371
7.4657 19.593
7.4808 19.832
7.4960 19.635
7.5112 19.637
7.5264 19.538
7.5415 19.539
7.5567 19.681
7.5719 19.908
7.5871 19.881
7.6022 19.736
7.6174 19.996
7.6326 20.298
7.6478 20.126
7.6629 19.978
7.6781 20.238
7.6933 20.322
7.7085 20.569
7.7236 20.593
7.7388 20.818
7.7540 20.600
7.7692 20.494
7.7843 20.605
7.7995 20.578
7.8147 20.782
7.8299 20.653
7.8450 20.760
7.8602 20.933
7.8754 20.775
7.8905 21.196
7.9057 21.246
7.9209 21.117
7.9361 21.252
7.9512 21.327
7.9664 21.237
7.9816 21.423
7.9968 21.311
8.0119 21.205
8.0271 20.936
8.0423 21.206
8.0575 21.505
8.0726 21.353
8.0878 21.393
8.1030 21.405
8.1182 21.445
8.1333 21.516
8.1485 20.970
8.1637 21.382
8.1789 21.386
8.1940 21.474
8.2092 21.935
8.2244 21.980
8.2396 21.656
8.2547 21.687
8.2699 21.904
8.2851 21.330
8.3003 21.150
8.3154 21.519
8.3306 21.628
8.3458 21.719
8.3610 21.841
8.3761 21.823
8.3913 21.815
8.4065 22.000
8.4217 22.317
8.4368 21.997
8.4520 22.473
8.4672 22.358
8.4824 21.597
8.4975 22.220
8.5127 22.138
8.5279 21.928
8.5431 21.978
8.5582 21.977
8.5734 22.262
8.5886 22.313
8.6038 22.034
8.6189 21.968
8.6341 22.734
8.6493 22.487
8.6645 22.453
8.6796 22.469
8.6948 23.092
8.7100 23.240
8.7252 22.686
8.7403 22.918
8.7555 22.826
8.7707 23.087
8.7859 22.965
8.8010 22.759
8.8162 22.502
8.8314 22.461
8.8466 22.969
8.8617 22.373
8.8769 22.907
8.8921 22.899
8.9073 22.608
8.9224 22.293
8.9376 22.735
8.9528 22.901
8.9680 22.904
8.9831 22.546
8.9983 23.135
9.0135 22.712
9.0287 23.278
9.0438 23.255
9.0590 22.893
9.0742 22.821
9.0894 23.036
9.1045 23.070
9.1197 22.898
9.1349 22.754
9.1501 22.575
9.1652 22.772
9.1804 23.056
9.1956 22.903
9.2108 23.039
9.2259 23.135
9.2411 22.840
9.2563 23.084
9.2715 23.273
9.2866 23.070
9.3018 23.261
9.3170 23.430
9.3322 22.871
9.3473 22.853
9.3625 23.115
9.3777 23.089
9.3929 23.204
9.4080 23.093
9.4232 23.401
9.4384 23.269
9.4536 23.179
9.4687 23.742
9.4839 23.585
9.4991 23.373
9.5143 23.157
9.5294 23.464
9.5446 23.576
9.5598 23.521
9.5750 23.338
9.5901 23.133
9.6053 23.303
9.6205 23.598
9.6357 23.608
9.6508 23.523
9.6660 23.893
9.6812 23.687
9.6964 23.635
9.7115 24.256
9.7267 24.514
9.7419 24.323
9.7571 24.179
9.7722 24.040
9.7874 23.931
9.8026 24.060
9.8178 23.827
9.8329 23.601
9.8481 23.639
9.8633 23.615
9.8785 23.604
9.8936 23.480
9.9088 23.293
9.9240 23.559
9.9392 23.532
9.9543 23.156
9.9695 23.213
9.9847 23.483
9.9999 23.746
10.0150 23.686
10.0302 23.726
10.0454 23.626
10.0606 23.536
10.0757 23.821
10.0909 23.835
10.1061 23.623
10.1213 23.453
10.1364 23.615
10.1516 23.699
10.1668 23.434
10.1820 23.513
10.1971 23.888
10.2123 23.930
10.2275 23.918
10.2427 23.882
10.2578 24.157
10.2730 23.793
10.2882 23.389
10.3034 23.654
10.3185 23.717
10.3337 23.474
10.3489 23.126
10.3641 23.120
10.3792 23.198
10.3944 23.373
10.4096 22.744
10.4248 22.563
10.4399 22.943
10.4551 22.916
10.4703 23.064
10.4855 22.491
10.5006 22.168
10.5158 22.461
10.5310 22.855
10.5462 23.004
10.5613 22.611
10.5765 22.791
10.5917 22.846
10.6069 22.807
10.6220 22.696
10.6372 22.558
10.6524 22.480
10.6676 22.537
10.6827 22.665
10.6979 23.108
10.7131 22.893
10.7283 22.588
10.7434 22.644
10.7586 22.432
10.7738 22.431
10.7890 22.343
10.8041 22.762
10.8193 22.336
10.8345 22.319
10.8497 22.912
10.8648 22.589
10.8800 21.959
10.8952 22.052
10.9104 22.345
10.9255 22.344
10.9407 22.221
10.9559 22.248
10.9711 22.291
10.9862 22.505
11.0014 22.608
11.0166 22.378
11.0318 22.421
11.0469 22.263
11.0621 22.024
11.0773 22.192
11.0925 22.526
11.1076 22.241
11.1228 22.077
11.1380 21.767
11.1532 21.863
11.1683 21.641
11.1835 21.791
11.1987 22.164
11.2139 22.181
11.2290 21.709
11.2442 21.725
11.2594 21.920
11.2746 22.069
11.2897 21.948
11.3049 21.690
11.3201 21.752
11.3353 21.460
11.3504 21.555
11.3656 21.831
11.3808 21.747
11.3960 21.455
11.4111 21.227
11.4263 21.062
11.4415 20.890
11.4567 21.204
11.4718 21.161
11.4870 21.291
11.5022 21.286
11.5174 21.439
11.5325 21.506
11.5477 21.365
11.5629 20.881
11.5781 21.150
11.5932 21.201
11.6084 21.000
11.6236 20.969
11.6388 20.798
11.6539 20.717
11.6691 20.836
11.6843 20.739
11.6995 20.737
11.7146 20.732
11.7298 20.465
11.7450 20.064
11.7602 20.024
11.7753 20.366
11.7905 20.203
11.8057 20.206
11.8209 20.238
11.8360 19.781
11.8512 19.789
11.8664 19.922
11.8816 19.931
11.8967 19.929
11.9119 19.610
11.9271 19.570
11.9423 19.867
11.9574 19.770
11.9726 19.682
11.9878 19.492
12.0030 19.456
12.0181 19.278
12.0333 19.106
12.0485 19.057
12.0637 18.864
12.0788 18.880
12.0940 18.925
12.1092 18.731
12.1244 18.658
12.1395 18.887
12.1547 18.771
12.1699 18.545
12.1851 18.498
12.2002 18.410
12.2154 18.390
12.2306 18.192
12.2458 18.338
12.2609 18.272
12.2761 18.095
12.2913 17.841
12.3065 18.096
12.3216 17.831
12.3368 17.741
12.3520 17.952
12.3672 17.420
12.3823 17.157
12.3975 17.355
12.4127 17.693
12.4279 17.718
12.4430 17.565
12.4582 17.315
12.4734 17.106
12.4886 17.066
12.5037 17.208
12.5189 17.113
12.5341 16.988
12.5493 16.744
12.5644 16.857
12.5796 16.575
12.5948 16.297
12.6100 16.235
12.6251 16.272
12.6403 16.049
12.6555 15.651
12.6707 15.801
12.6858 15.914
12.7010 16.180
12.7162 16.012
12.7314 15.630
12.7465 15.543
12.7617 15.601
12.7769 15.417
12.7921 15.432
12.8072 15.497
12.8224 15.265
12.8376 15.117
12.8528 14.932
12.8679 14.976
12.8831 14.772
12.8983 14.723
12.9135 14.963
12.9286 14.726
12.9438 14.505
12.9590 14.410
12.9742 14.339
12.9893 14.329
13.0045 14.448
13.0197 14.465
13.0349 14.236
13.0500 14.126
13.0652 14.009
13.0804 13.930
13.0956 13.861
13.1107 13.847
13.1259 13.882
13.1411 13.711
13.1563 13.725
13.1714 13.686
13.1866 13.441
13.2018 13.494
13.2170 13.572
13.2321 13.455
13.2473 13.311
13.2625 13.299
13.2777 13.366
13.2928 13.345
13.3080 13.159
13.3232 13.101
13.3384 13.216
13.3535 13.053
13.3687 12.992
13.3839 13.010
13.3991 12.921
13.4142 13.008
13.4294 13.078
13.4446 12.879
13.4598 12.853
13.4749 12.943
13.4901 12.822
13.5053 12.873
13.5205 12.788
13.5356 12.543
13.5508 12.396
13.5660 12.281
13.5812 12.264
13.5963 12.352
13.6115 12.188
13.6267 12.378
13.6419 12.391
13.6570 12.107
13.6722 11.804
13.6874 12.098
13.7026 12.253
13.7177 12.154
13.7329 12.054
13.7481 12.262
13.7633 12.077
13.7784 12.218
13.7936 12.271
13.8088 12.097
13.8239 12.005
13.8391 12.125
13.8543 12.162
13.8695 12.156
13.8846 12.367
13.8998 12.236
13.9150 12.283
13.9302 11.982
13.9453 11.888
13.9605 12.057
13.9757 11.852
13.9909 11.668
14.0060 11.433
14.0212 11.412
14.0364 11.657
14.0516 11.644
14.0667 11.558
14.0819 11.519
14.0971 11.388
14.1123 11.639
14.1274 11.682
14.1426 11.435
14.1578 11.579
14.1730 11.792
14.1881 11.907
14.2033 11.800
14.2185 11.804
14.2337 12.002
14.2488 11.880
14.2640 12.204
14.2792 12.381
14.2944 12.614
14.3095 12.437
14.3247 12.365
14.3399 12.136
14.3551 12.481
14.3702 13.051
14.3854 12.939
14.4006 13.188
14.4158 13.126
14.4309 12.775
14.4461 12.549
14.4613 12.541
14.4765 12.707
14.4916 12.565
14.5068 12.073
14.5220 11.582
14.5372 11.578
14.5523 11.390
14.5675 11.234
14.5827 11.420
14.5979 11.399
14.6130 11.225
14.6282 11.006
14.6434 11.198
14.6586 10.951
14.6737 11.274
14.6889 10.999
14.7041 11.100
14.7193 10.985
14.7344 10.815
14.7496 10.761
14.7648 10.821
14.7800 10.893
14.7951 11.174
14.8103 10.645
14.8255 10.604
14.8407 10.421
14.8558 10.245
14.8710 10.421
14.8862 10.624
14.9014 10.655
14.9165 10.873
14.9317 10.967
14.9469 10.778
14.9621 10.834
14.9772 10.799
14.9924 10.602
15.0076 10.300
15.0228 10.334
15.0379 10.476
15.0531 10.973
15.0683 10.331
15.0835 10.551
15.0986 10.657
15.1138 10.549
15.1290 10.486
15.1442 10.431
15.1593 10.285
15.1745 10.351
15.1897 10.508
15.2049 10.218
15.2200 10.486
15.2352 10.183
15.2504 10.400
15.2656 10.397
15.2807 10.175
15.2959 10.539
15.3111 10.263
15.3263 10.363
15.3414 10.519
15.3566 10.230
15.3718 10.155
15.3870 10.289
15.4021 10.454
15.4173 10.274
15.4325 10.313
15.4477 10.499
15.4628 10.466
15.4780 10.432
15.4932 10.728
15.5084 10.281
15.5235 10.480
15.5387 10.187
15.5539 10.569
15.5691 10.347
15.5842 10.497
15.5994 10.234
15.6146 10.088
15.6298 10.135
15.6449 9.878
15.6601 10.163
15.6753 10.059
15.6905 9.855
15.7056 9.728
15.7208 9.932
15.7360 9.753
15.7512 10.124
15.7663 9.857
15.7815 9.836
15.7967 9.752
15.8119 9.613
15.8270 10.054
15.8422 9.887
15.8574 9.732
15.8726 9.764
15.8877 9.617
15.9029 9.600
15.9181 9.835
15.9333 9.903
15.9484 10.025
15.9636 9.652
15.9788 9.789
15.9940 9.957
16.0091 9.828
16.0243 9.599
16.0395 9.724
16.0547 10.071
16.0698 9.855
16.0850 10.084
16.1002 9.867
16.1154 9.678
16.1305 9.832
16.1457 10.059
16.1609 9.883
16.1761 9.746
16.1912 9.531
16.2064 9.800
16.2216 10.174
16.2368 10.308
16.2519 10.025
16.2671 9.781
16.2823 9.922
16.2975 10.200
16.3126 10.174
16.3278 10.050
16.3430 10.065
16.3582 10.152
16.3733 10.035
16.3885 10.112
16.4037 10.208
16.4189 10.090
16.4340 9.735
16.4492 9.725
16.4644 9.842
16.4796 9.705
16.4947 9.717
16.5099 9.942
16.5251 10.013
16.5403 9.630
16.5554 9.691
16.5706 9.856
16.5858 9.887
16.6010 9.670
16.6161 9.546
16.6313 9.541
16.6465 9.661
16.6617 9.742
16.6768 9.883
16.6920 9.839
16.7072 10.029
16.7224 10.251
16.7375 10.071
16.7527 9.961
16.7679 9.864
16.7831 9.772
16.7982 9.902
16.8134 10.025
16.8286 9.953
16.8438 10.011
16.8589 9.936
16.8741 9.865
16.8893 9.896
16.9045 9.849
16.9196 9.726
16.9348 9.884
16.9500 9.771
16.9652 9.906
16.9803 9.869
16.9955 9.728
17.0107 9.850
17.0259 9.907
17.0410 9.812
17.0562 9.967
17.0714 10.171
17.0866 10.429
17.1017 10.841
17.1169 10.921
17.1321 10.950
17.1473 11.244
17.1624 11.671
17.1776 12.258
17.1928 12.958
17.2080 14.032
17.2231 14.935
17.2383 16.137
17.2535 17.829
17.2687 18.739
17.2838 18.750
17.2990 18.021
17.3142 16.976
17.3294 16.393
17.3445 16.168
17.3597 16.155
17.3749 16.261
17.3901 15.499
17.4052 14.541
17.4204 13.771
17.4356 12.708
17.4508 11.979
17.4659 11.785
17.4811 11.852
17.4963 11.649
17.5115 11.581
17.5266 11.472
17.5418 11.251
17.5570 11.218
17.5722 11.354
17.5873 11.648
17.6025 11.543
17.6177 11.421
17.6329 11.358
17.6480 11.079
17.6632 10.875
17.6784 10.947
17.6936 11.028
17.7087 11.012
17.7239 10.823
17.7391 10.609
17.7543 10.491
17.7694 10.432
17.7846 10.339
17.7998 10.401
17.8150 10.330
17.8301 10.262
17.8453 10.470
17.8605 10.380
17.8757 10.308
17.8908 10.391
17.9060 10.463
17.9212 10.456
17.9364 10.384
17.9515 10.380
17.9667 10.554
17.9819 10.502
17.9971 10.480
18.0122 10.400
18.0274 10.380
18.0426 10.409
18.0578 10.384
18.0729 10.230
18.0881 10.023
18.1033 9.826
18.1185 9.905
18.1336 10.122
18.1488 10.132
18.1640 10.202
18.1792 9.996
18.1943 9.933
18.2095 10.002
18.2247 9.927
18.2399 9.691
18.2550 9.599
18.2702 9.808
18.2854 10.037
18.3006 9.959
18.3157 9.995
18.3309 10.143
18.3461 9.863
18.3613 9.784
18.3764 9.793
18.3916 9.779
18.4068 9.816
18.4220 10.009
18.4371 9.682
18.4523 9.585
18.4675 9.911
18.4827 9.850
18.4978 9.657
18.5130 9.763
18.5282 9.985
18.5434 10.080
18.5585 9.749
18.5737 9.643
18.5889 10.063
18.6041 9.971
18.6192 9.615
18.6344 9.718
18.6496 9.884
18.6648 9.783
18.6799 9.918
18.6951 9.873
18.7103 9.751
18.7255 9.752
18.7406 9.674
18.7558 9.740
18.7710 9.821
18.7862 9.853
18.8013 9.455
18.8165 9.499
18.8317 9.794
18.8469 9.980
18.8620 9.873
18.8772 9.950
18.8924 9.870
18.9076 9.613
18.9227 9.792
18.9379 10.131
18.9531 10.207
18.9683 10.114
18.9834 10.128
18.9986 10.293
19.0138 10.131
19.0290 10.078
19.0441 10.013
19.0593 9.970
19.0745 9.991
19.0897 10.098
19.1048 10.307
19.1200 10.498
19.1352 10.444
19.1504 10.408
19.1655 10.530
19.1807 10.721
19.1959 10.648
19.2111 10.753
19.2262 10.872
19.2414 10.758
19.2566 10.587
19.2718 10.744
19.2869 10.918
19.3021 10.910
19.3173 10.978
19.3325 10.928
19.3476 10.904
19.3628 10.867
19.3780 10.866
19.3932 11.079
19.4083 11.201
19.4235 11.229
19.4387 11.242
19.4539 11.314
19.4690 11.407
19.4842 11.379
19.4994 11.440
19.5146 11.505
19.5297 11.275
19.5449 11.327
19.5601 11.428
19.5753 11.405
19.5904 11.555
19.6056 11.455
19.6208 11.446
19.6360 11.799
19.6511 11.899
19.6663 11.466
19.6815 11.396
19.6967 11.679
19.7118 11.868
19.7270 11.674
19.7422 11.469
19.7574 11.749
19.7725 11.994
19.7877 11.928
19.8029 11.904
19.8180 12.149
19.8332 12.183
19.8484 12.386
19.8636 12.617
19.8787 12.632
19.8939 13.103
19.9091 13.486
19.9243 13.492
19.9394 13.561
19.9546 13.775
19.9698 14.370
19.9850 14.817
20.0001 14.432
20.0153 14.099
20.0305 13.924
20.0457 13.751
20.0608 13.598
20.0760 13.657
20.0912 13.561
20.1064 13.649
20.1215 13.446
20.1367 13.207
20.1519 12.989
20.1671 12.819
20.1822 12.915
20.1974 12.996
20.2126 13.023
20.2278 12.892
20.2429 12.826
20.2581 12.658
20.2733 12.138
20.2885 12.023
20.3036 11.868
20.3188 11.806
20.3340 12.267
20.3492 12.146
20.3643 11.910
20.3795 11.480
20.3947 11.228
20.4099 10.973
20.4250 10.703
20.4402 10.714
20.4554 10.912
20.4706 10.696
20.4857 10.613
20.5009 10.779
20.5161 10.760
20.5313 10.761
20.5464 10.927
20.5616 10.669
20.5768 10.747
20.5920 10.855
20.6071 10.694
20.6223 10.592
20.6375 10.628
20.6527 10.710
20.6678 10.686
20.6830 10.895
20.6982 10.945
20.7134 10.579
20.7285 10.577
20.7437 10.511
20.7589 10.536
20.7741 10.707
20.7892 10.591
20.8044 10.219
20.8196 10.400
20.8348 10.369
20.8499 10.224
20.8651 10.540
20.8803 10.268
20.8955 10.016
20.9106 9.881
20.9258 9.801
20.9410 10.109
20.9562 10.172
20.9713 10.176
20.9865 10.014
21.0017 9.856
21.0169 10.024
21.0320 9.916
21.0472 9.901
21.0624 9.656
21.0776 9.949
21.0927 9.668
21.1079 9.850
21.1231 10.184
21.1383 9.828
21.1534 9.874
21.1686 9.949
21.1838 9.687
21.1990 9.970
21.2141 9.761
21.2293 9.594
21.2445 9.687
21.2597 9.612
21.2748 9.678
21.2900 9.872
21.3052 9.648
21.3204 9.557
21.3355 9.372
21.3507 9.591
21.3659 9.616
21.3811 9.724
21.3962 9.643
21.4114 9.647
21.4266 9.652
21.4418 9.548
21.4569 9.643
21.4721 9.367
21.4873 9.323
21.5025 9.338
21.5176 9.419
21.5328 9.364
21.5480 9.473
21.5632 9.517
21.5783 9.234
21.5935 9.188
21.6087 9.459
21.6239 9.364
21.6390 9.102
21.6542 9.125
21.6694 9.150
21.6846 9.028
21.6997 8.972
21.7149 9.075
21.7301 9.106
21.7453 9.243
21.7604 8.978
21.7756 9.016
21.7908 8.952
21.8060 9.022
21.8211 9.095
21.8363 9.331
21.8515 9.238
21.8667 9.203
21.8818 9.277
21.8970 8.961
21.9122 8.907
21.9274 8.967
21.9425 8.927
21.9577 8.935
21.9729 9.120
21.9881 9.057
22.0032 8.984
22.0184 9.047
22.0336 9.054
22.0488 8.988
22.0639 8.753
22.0791 8.813
22.0943 9.010
22.1095 8.813
22.1246 8.810
22.1398 8.732
22.1550 8.707
22.1702 8.771
22.1853 8.713
22.2005 8.621
22.2157 8.580
22.2309 8.721
22.2460 8.587
22.2612 8.473
22.2764 8.668
22.2916 8.816
22.3067 8.519
22.3219 8.527
22.3371 8.602
22.3523 8.907
22.3674 8.891
22.3826 8.477
22.3978 8.587
22.4130 8.574
22.4281 8.936
22.4433 8.541
22.4585 8.436
22.4737 8.494
22.4888 8.328
22.5040 8.532
22.5192 8.339
22.5344 8.462
22.5495 8.528
22.5647 8.533
22.5799 8.685
22.5951 8.717
22.6102 8.313
22.6254 8.350
22.6406 8.346
22.6558 8.554
22.6709 8.568
22.6861 8.594
22.7013 8.421
22.7165 8.262
22.7316 6.408
