'Id: "" Comment: "" Operator: "Lab Manager" Anode: "Mo" Scantype: "Still (Eiger2R_500K (1D mode))" TimePerStep: "300" X: "11.8" Y: "9.4" Z: "11.284" 
7.2532 19.080
7.2684 18.735
7.2836 18.861
7.2987 19.565
7.3139 18.961
7.3291 19.304
7.3443 19.367
7.3594 19.459
7.3746 19.514
7.3898 19.267
7.4050 19.280
7.4201 19.450
7.4353 19.593
7.4505 19.781
7.4657 20.132
7.4808 19.864
7.4960 19.636
7.5112 19.787
7.5264 19.686
7.5415 19.943
7.5567 20.156
7.5719 20.004
7.5871 19.981
7.6022 19.790
7.6174 19.793
7.6326 20.052
7.6478 20.247
7.6629 20.292
7.6781 20.078
7.6933 20.067
7.7085 20.582
7.7236 20.389
7.7388 20.450
7.7540 20.264
7.7692 20.482
7.7843 21.014
7.7995 20.787
7.8147 20.581
7.8299 20.970
7.8450 20.940
7.8602 20.691
7.8754 20.955
7.8905 21.040
7.9057 21.015
7.9209 21.278
7.9361 21.299
7.9512 21.154
7.9664 21.137
7.9816 21.026
7.9968 21.337
8.0119 21.486
8.0271 21.285
8.0423 21.074
8.0575 21.157
8.0726 21.618
8.0878 21.455
8.1030 21.394
8.1182 21.568
8.1333 21.840
8.1485 21.495
8.1637 21.699
8.1789 21.121
8.1940 21.320
8.2092 21.731
8.2244 21.793
8.2396 21.672
8.2547 21.392
8.2699 21.683
8.2851 21.815
8.3003 22.156
8.3154 21.947
8.3306 22.067
8.3458 21.581
8.3610 21.514
8.3761 21.905
8.3913 22.198
8.4065 22.063
8.4217 22.445
8.4368 21.676
8.4520 22.039
8.4672 21.994
8.4824 22.077
8.4975 22.201
8.5127 21.887
8.5279 22.708
8.5431 22.030
8.5582 22.079
8.5734 22.204
8.5886 22.513
8.6038 22.610
8.6189 22.833
8.6341 22.472
8.6493 22.866
8.6645 23.000
8.6796 22.413
8.6948 22.592
8.7100 22.537
8.7252 22.942
8.7403 23.080
8.7555 22.829
8.7707 22.814
8.7859 22.340
8.8010 22.413
8.8162 22.536
8.8314 22.645
8.8466 22.122
8.8617 22.384
8.8769 22.513
8.8921 22.893
8.9073 23.416
8.9224 22.640
8.9376 22.940
8.9528 23.261
8.9680 22.850
8.9831 22.362
8.9983 22.729
9.0135 22.949
9.0287 22.861
9.0438 22.559
9.0590 22.868
9.0742 22.801
9.0894 23.265
9.1045 22.993
9.1197 22.713
9.1349 23.152
9.1501 23.099
9.1652 23.022
9.1804 22.778
9.1956 22.397
9.2108 22.937
9.2259 23.286
9.2411 23.361
9.2563 23.514
9.2715 23.213
9.2866 22.981
9.3018 23.404
9.3170 23.211
9.3322 23.156
9.3473 23.241
9.3625 23.493
9.3777 22.995
9.3929 23.338
9.4080 23.477
9.4232 23.488
9.4384 23.396
9.4536 23.418
9.4687 23.292
9.4839 23.265
9.4991 23.469
9.5143 23.350
9.5294 23.406
9.5446 23.101
9.5598 23.177
9.5750 23.273
9.5901 23.056
9.6053 23.356
9.6205 23.725
9.6357 23.480
9.6508 23.475
9.6660 23.673
9.6812 23.674
9.6964 23.720
9.7115 23.964
9.7267 24.001
9.7419 24.000
9.7571 23.892
9.7722 23.866
9.7874 23.990
9.8026 24.016
9.8178 24.045
9.8329 23.904
9.8481 23.776
9.8633 23.756
9.8785 23.835
9.8936 23.735
9.9088 23.438
9.9240 23.410
9.9392 23.687
9.9543 23.490
9.9695 23.478
9.9847 23.793
9.9999 23.909
10.0150 23.943
10.0302 24.138
10.0454 24.113
10.0606 23.919
10.0757 23.934
10.0909 23.909
10.1061 23.811
10.1213 23.893
10.1364 23.976
10.1516 23.866
10.1668 24.128
10.1820 24.039
10.1971 23.952
10.2123 24.281
10.2275 24.543
10.2427 24.348
10.2578 23.984
10.2730 24.004
10.2882 24.183
10.3034 23.852
10.3185 23.749
10.3337 23.584
10.3489 23.140
10.3641 23.209
10.3792 23.182
10.3944 23.345
10.4096 23.478
10.4248 23.019
10.4399 22.897
10.4551 22.856
10.4703 22.899
10.4855 22.823
10.5006 22.663
10.5158 22.792
10.5310 22.839
10.5462 22.905
10.5613 22.454
10.5765 22.492
10.5917 22.448
10.6069 22.547
10.6220 22.601
10.6372 22.605
10.6524 22.573
10.6676 22.539
10.6827 22.595
10.6979 22.726
10.7131 22.538
10.7283 22.648
10.7434 22.598
10.7586 22.091
10.7738 22.463
10.7890 23.158
10.8041 22.788
10.8193 22.407
10.8345 22.149
10.8497 22.313
10.8648 22.547
10.8800 22.648
10.8952 22.494
10.9104 22.512
10.9255 22.404
10.9407 22.370
10.9559 22.227
10.9711 22.065
10.9862 22.125
11.0014 22.370
11.0166 22.478
11.0318 22.408
11.0469 22.018
11.0621 21.928
11.0773 21.769
11.0925 21.622
11.1076 21.951
11.1228 22.080
11.1380 21.918
11.1532 21.442
11.1683 21.968
11.1835 21.572
11.1987 21.204
11.2139 21.752
11.2290 22.104
11.2442 22.489
11.2594 22.213
11.2746 22.436
11.2897 22.307
11.3049 21.615
11.3201 21.868
11.3353 21.744
11.3504 21.577
11.3656 21.712
11.3808 21.204
11.3960 21.355
11.4111 21.362
11.4263 21.594
11.4415 21.308
11.4567 21.605
11.4718 21.386
11.4870 21.153
11.5022 21.139
11.5174 21.028
11.5325 20.984
11.5477 20.715
11.5629 20.828
11.5781 20.867
11.5932 20.715
11.6084 20.709
11.6236 20.608
11.6388 21.029
11.6539 20.534
11.6691 20.479
11.6843 20.646
11.6995 21.095
11.7146 20.534
11.7298 20.498
11.7450 20.377
11.7602 20.174
11.7753 20.221
11.7905 20.201
11.8057 19.955
11.8209 20.077
11.8360 20.154
11.8512 20.016
11.8664 19.740
11.8816 19.787
11.8967 20.027
11.9119 19.939
11.9271 19.843
11.9423 19.782
11.9574 19.494
11.9726 19.257
11.9878 19.279
12.0030 19.337
12.0181 19.341
12.0333 19.135
12.0485 18.788
12.0637 18.801
12.0788 18.719
12.0940 19.011
12.1092 19.373
12.1244 19.054
12.1395 18.980
12.1547 18.563
12.1699 18.048
12.1851 18.127
12.2002 18.263
12.2154 18.157
12.2306 18.034
12.2458 18.410
12.2609 18.022
12.2761 17.817
12.2913 17.787
12.3065 17.645
12.3216 17.806
12.3368 17.624
12.3520 17.451
12.3672 17.583
12.3823 17.364
12.3975 17.140
12.4127 17.463
12.4279 17.276
12.4430 16.938
12.4582 17.154
12.4734 17.386
12.4886 17.032
12.5037 16.721
12.5189 16.707
12.5341 16.777
12.5493 16.738
12.5644 16.367
12.5796 16.425
12.5948 16.123
12.6100 16.061
12.6251 16.170
12.6403 15.873
12.6555 15.901
12.6707 15.568
12.6858 15.485
12.7010 15.601
12.7162 15.363
12.7314 15.385
12.7465 15.655
12.7617 15.656
12.7769 15.422
12.7921 15.476
12.8072 15.526
12.8224 15.398
12.8376 15.166
12.8528 14.780
12.8679 14.785
12.8831 14.705
12.8983 14.832
12.9135 14.971
12.9286 14.660
12.9438 14.438
12.9590 14.312
12.9742 14.423
12.9893 14.233
13.0045 14.084
13.0197 14.185
13.0349 14.258
13.0500 14.204
13.0652 13.920
13.0804 13.859
13.0956 13.826
13.1107 13.681
13.1259 13.657
13.1411 13.803
13.1563 13.664
13.1714 13.399
13.1866 13.497
13.2018 13.520
13.2170 13.399
13.2321 13.622
13.2473 13.641
13.2625 13.232
13.2777 13.122
13.2928 13.260
13.3080 13.249
13.3232 13.143
13.3384 13.166
13.3535 13.174
13.3687 13.392
13.3839 13.332
13.3991 12.971
13.4142 12.827
13.4294 12.803
13.4446 12.770
13.4598 12.560
13.4749 12.651
13.4901 12.624
13.5053 12.499
13.5205 12.563
13.5356 12.434
13.5508 12.180
13.5660 12.095
13.5812 12.148
13.5963 12.097
13.6115 12.050
13.6267 12.236
13.6419 12.181
13.6570 12.030
13.6722 12.241
13.6874 12.042
13.7026 12.058
13.7177 12.124
13.7329 11.922
13.7481 11.928
13.7633 12.165
13.7784 12.189
13.7936 12.123
13.8088 12.110
13.8239 12.093
13.8391 12.298
13.8543 12.192
13.8695 12.496
13.8846 12.081
13.8998 11.884
13.9150 12.071
13.9302 12.001
13.9453 12.200
13.9605 11.975
13.9757 11.710
13.9909 11.491
14.0060 11.397
14.0212 11.440
14.0364 11.591
14.0516 11.592
14.0667 11.414
14.0819 11.259
14.0971 11.521
14.1123 11.541
14.1274 11.445
14.1426 11.434
14.1578 11.425
14.1730 11.224
14.1881 11.316
14.2033 11.309
14.2185 11.397
14.2337 11.644
14.2488 11.935
14.2640 12.079
14.2792 12.033
14.2944 11.987
14.3095 12.201
14.3247 12.282
14.3399 12.526
14.3551 12.866
14.3702 13.016
14.3854 13.169
14.4006 13.139
14.4158 13.323
14.4309 13.191
14.4461 13.201
14.4613 13.090
14.4765 12.720
14.4916 12.897
14.5068 12.636
14.5220 12.872
14.5372 12.961
14.5523 12.795
14.5675 12.743
14.5827 12.746
14.5979 11.820
14.6130 11.763
14.6282 12.132
14.6434 11.991
14.6586 11.679
14.6737 11.337
14.6889 11.451
14.7041 11.085
14.7193 11.171
14.7344 11.020
14.7496 11.094
14.7648 10.938
14.7800 10.753
14.7951 11.001
14.8103 10.747
14.8255 10.624
14.8407 10.691
14.8558 10.370
14.8710 10.816
14.8862 10.767
14.9014 10.680
14.9165 10.798
14.9317 10.902
14.9469 10.393
14.9621 10.861
14.9772 10.704
14.9924 10.340
15.0076 10.505
15.0228 10.650
15.0379 10.589
15.0531 10.409
15.0683 10.634
15.0835 10.372
15.0986 10.543
15.1138 10.556
15.1290 10.799
15.1442 10.869
15.1593 10.500
15.1745 10.223
15.1897 10.510
15.2049 10.322
15.2200 10.275
15.2352 10.705
15.2504 10.716
15.2656 10.071
15.2807 10.248
15.2959 10.462
15.3111 10.716
15.3263 10.298
15.3414 10.599
15.3566 10.423
15.3718 10.458
15.3870 10.551
15.4021 10.430
15.4173 10.821
15.4325 10.514
15.4477 10.432
15.4628 10.383
15.4780 10.457
15.4932 10.452
15.5084 10.342
15.5235 10.446
15.5387 10.279
15.5539 10.159
15.5691 10.257
15.5842 10.089
15.5994 10.516
15.6146 10.149
15.6298 10.000
15.6449 10.116
15.6601 9.836
15.6753 9.990
15.6905 10.080
15.7056 9.965
15.7208 9.774
15.7360 10.376
15.7512 9.900
15.7663 9.869
15.7815 9.844
15.7967 9.830
15.8119 9.800
15.8270 9.862
15.8422 9.595
15.8574 9.924
15.8726 10.020
15.8877 9.582
15.9029 9.674
15.9181 9.761
15.9333 9.895
15.9484 9.523
15.9636 9.744
15.9788 9.890
15.9940 10.006
16.0091 9.906
16.0243 9.868
16.0395 9.590
16.0547 9.788
16.0698 9.793
16.0850 9.766
16.1002 9.560
16.1154 9.600
16.1305 9.533
16.1457 9.763
16.1609 9.880
16.1761 9.718
16.1912 9.998
16.2064 9.865
16.2216 9.853
16.2368 9.956
16.2519 9.874
16.2671 9.957
16.2823 10.253
16.2975 10.291
16.3126 10.302
16.3278 10.402
16.3430 10.245
16.3582 10.156
16.3733 10.190
16.3885 10.218
16.4037 10.227
16.4189 10.306
16.4340 10.026
16.4492 9.938
16.4644 9.811
16.4796 9.775
16.4947 9.849
16.5099 9.895
16.5251 9.991
16.5403 9.781
16.5554 9.823
16.5706 9.828
16.5858 9.729
16.6010 9.687
16.6161 9.531
16.6313 9.697
16.6465 9.894
16.6617 9.861
16.6768 9.750
16.6920 10.126
16.7072 10.094
16.7224 10.134
16.7375 10.071
16.7527 9.965
16.7679 9.855
16.7831 9.865
16.7982 9.913
16.8134 10.016
16.8286 10.087
16.8438 10.030
16.8589 9.824
16.8741 9.675
16.8893 9.925
16.9045 10.008
16.9196 9.975
16.9348 9.874
16.9500 9.737
16.9652 9.765
16.9803 9.782
16.9955 9.654
17.0107 9.835
17.0259 10.001
17.0410 9.912
17.0562 9.999
17.0714 10.248
17.0866 10.274
17.1017 10.278
17.1169 10.534
17.1321 10.800
17.1473 11.161
17.1624 11.580
17.1776 12.457
17.1928 13.434
17.2080 14.131
17.2231 15.074
17.2383 16.146
17.2535 17.539
17.2687 18.440
17.2838 18.610
17.2990 18.187
17.3142 17.039
17.3294 16.074
17.3445 15.804
17.3597 15.859
17.3749 15.567
17.3901 15.002
17.4052 14.248
17.4204 13.421
17.4356 12.543
17.4508 11.902
17.4659 11.550
17.4811 11.323
17.4963 11.325
17.5115 11.488
17.5266 11.699
17.5418 11.597
17.5570 11.400
17.5722 11.542
17.5873 11.569
17.6025 11.144
17.6177 11.186
17.6329 11.161
17.6480 10.809
17.6632 10.919
17.6784 10.926
17.6936 10.813
17.7087 11.031
17.7239 11.010
17.7391 10.859
17.7543 10.761
17.7694 10.750
17.7846 10.861
17.7998 10.969
17.8150 11.136
17.8301 11.275
17.8453 11.428
17.8605 11.428
17.8757 11.379
17.8908 11.538
17.9060 11.656
17.9212 11.353
17.9364 10.993
17.9515 10.745
17.9667 10.726
17.9819 10.750
17.9971 10.717
18.0122 10.834
18.0274 10.515
18.0426 10.334
18.0578 10.336
18.0729 10.157
18.0881 9.975
18.1033 9.905
18.1185 9.953
18.1336 9.953
18.1488 9.892
18.1640 9.997
18.1792 10.028
18.1943 9.964
18.2095 9.798
18.2247 9.743
18.2399 9.864
18.2550 9.878
18.2702 9.904
18.2854 10.102
18.3006 10.081
18.3157 9.996
18.3309 9.807
18.3461 9.585
18.3613 9.803
18.3764 9.858
18.3916 9.697
18.4068 9.845
18.4220 10.048
18.4371 9.901
18.4523 9.805
18.4675 9.852
18.4827 9.775
18.4978 9.811
18.5130 9.914
18.5282 9.831
18.5434 9.852
18.5585 10.099
18.5737 9.995
18.5889 9.816
18.6041 9.716
18.6192 9.679
18.6344 9.781
18.6496 9.751
18.6648 9.726
18.6799 9.899
18.6951 9.953
18.7103 9.780
18.7255 9.695
18.7406 9.772
18.7558 9.873
18.7710 9.905
18.7862 10.050
18.8013 9.858
18.8165 9.664
18.8317 9.862
18.8469 9.917
18.8620 9.923
18.8772 10.106
18.8924 10.107
18.9076 9.967
18.9227 9.929
18.9379 9.810
18.9531 9.967
18.9683 10.015
18.9834 10.176
18.9986 10.366
19.0138 10.150
19.0290 9.973
19.0441 9.987
19.0593 10.065
19.0745 10.086
19.0897 10.213
19.1048 10.649
19.1200 10.470
19.1352 10.045
19.1504 10.508
19.1655 10.644
19.1807 10.564
19.1959 10.533
19.2111 10.421
19.2262 10.742
19.2414 11.048
19.2566 10.906
19.2718 10.796
19.2869 10.971
19.3021 11.048
19.3173 10.919
19.3325 10.677
19.3476 10.737
19.3628 11.004
19.3780 11.256
19.3932 11.215
19.4083 10.937
19.4235 11.114
19.4387 11.191
19.4539 11.330
19.4690 11.659
19.4842 11.335
19.4994 11.225
19.5146 11.388
19.5297 11.595
19.5449 11.621
19.5601 11.537
19.5753 11.540
19.5904 11.679
19.6056 11.808
19.6208 11.613
19.6360 11.488
19.6511 11.563
19.6663 11.603
19.6815 11.729
19.6967 11.711
19.7118 11.734
19.7270 11.768
19.7422 11.772
19.7574 11.735
19.7725 11.648
19.7877 11.787
19.8029 12.017
19.8180 12.177
19.8332 12.282
19.8484 12.239
19.8636 12.066
19.8787 12.229
19.8939 12.784
19.9091 13.051
19.9243 13.125
19.9394 13.649
19.9546 13.945
19.9698 14.271
19.9850 14.616
20.0001 14.647
20.0153 14.242
20.0305 13.811
20.0457 13.708
20.0608 13.792
20.0760 13.888
20.0912 13.856
20.1064 13.657
20.1215 13.287
20.1367 13.271
20.1519 13.116
20.1671 13.141
20.1822 13.164
20.1974 12.856
20.2126 12.680
20.2278 12.661
20.2429 12.758
20.2581 12.302
20.2733 12.169
20.2885 12.075
20.3036 12.073
20.3188 11.935
20.3340 11.784
20.3492 11.658
20.3643 11.647
20.3795 11.629
20.3947 11.543
20.4099 11.377
20.4250 11.189
20.4402 10.968
20.4554 11.240
20.4706 11.299
20.4857 11.145
20.5009 11.119
20.5161 10.972
20.5313 10.924
20.5464 10.935
20.5616 11.096
20.5768 10.848
20.5920 11.012
20.6071 11.131
20.6223 10.866
20.6375 10.887
20.6527 10.967
20.6678 10.667
20.6830 11.011
20.6982 11.109
20.7134 11.034
20.7285 10.846
20.7437 10.580
20.7589 10.275
20.7741 10.571
20.7892 10.505
20.8044 10.598
20.8196 10.790
20.8348 10.480
20.8499 10.416
20.8651 10.808
20.8803 10.518
20.8955 10.470
20.9106 10.402
20.9258 10.308
20.9410 10.632
20.9562 10.212
20.9713 10.198
20.9865 9.947
21.0017 10.362
21.0169 10.088
21.0320 10.064
21.0472 10.015
21.0624 10.098
21.0776 10.007
21.0927 10.089
21.1079 9.863
21.1231 10.214
21.1383 9.901
21.1534 9.977
21.1686 9.825
21.1838 9.831
21.1990 9.594
21.2141 9.596
21.2293 9.547
21.2445 9.634
21.2597 9.684
21.2748 9.759
21.2900 9.991
21.3052 9.792
21.3204 9.701
21.3355 9.798
21.3507 9.550
21.3659 9.487
21.3811 9.598
21.3962 9.607
21.4114 9.240
21.4266 9.379
21.4418 9.407
21.4569 9.570
21.4721 9.238
21.4873 9.542
21.5025 9.111
21.5176 9.627
21.5328 9.420
21.5480 9.534
21.5632 9.349
21.5783 9.548
21.5935 9.209
21.6087 9.403
21.6239 9.177
21.6390 9.170
21.6542 9.366
21.6694 9.361
21.6846 9.280
21.6997 9.170
21.7149 9.079
21.7301 8.825
21.7453 9.042
21.7604 9.041
21.7756 9.052
21.7908 8.911
21.8060 8.972
21.8211 9.069
21.8363 9.076
21.8515 9.127
21.8667 8.690
21.8818 8.829
21.8970 9.190
21.9122 8.923
21.9274 8.945
21.9425 8.769
21.9577 8.892
21.9729 9.121
21.9881 8.947
22.0032 8.801
22.0184 8.839
22.0336 8.861
22.0488 8.887
22.0639 8.863
22.0791 8.832
22.0943 8.552
22.1095 8.549
22.1246 8.435
22.1398 8.443
22.1550 8.547
22.1702 8.741
22.1853 8.643
22.2005 8.288
22.2157 8.450
22.2309 8.481
22.2460 8.755
22.2612 8.558
22.2764 8.522
22.2916 8.643
22.3067 8.640
22.3219 8.472
22.3371 8.400
22.3523 8.403
22.3674 8.546
22.3826 8.735
22.3978 8.662
22.4130 8.594
22.4281 8.457
22.4433 8.353
22.4585 8.401
22.4737 8.396
22.4888 8.548
22.5040 8.635
22.5192 8.298
22.5344 8.514
22.5495 8.494
22.5647 8.378
22.5799 8.582
22.5951 8.305
22.6102 8.683
22.6254 8.526
22.6406 8.919
22.6558 8.377
22.6709 8.252
22.6861 8.630
22.7013 8.277
22.7165 8.005
22.7316 6.581
