'Id: "" Comment: "" Operator: "Lab Manager" Anode: "Cu" Scantype: "Coupled TwoTheta/Theta" TimePerStep: "19.2" X: "9999" Y: "9999" Z: "9999" 
5.0000 1.562
5.0195 1.615
5.0391 2.083
5.0586 1.823
5.0781 1.354
5.0977 1.458
5.1172 2.031
5.1367 1.667
5.1563 2.344
5.1758 2.187
5.1953 1.562
5.2149 1.302
5.2344 1.719
5.2539 1.771
5.2735 1.615
5.2930 1.615
5.3125 1.615
5.3321 1.927
5.3516 1.406
5.3711 1.198
5.3907 1.927
5.4102 2.083
5.4297 1.302
5.4493 1.510
5.4688 1.667
5.4883 1.875
5.5078 1.510
5.5274 2.031
5.5469 0.990
5.5664 1.979
5.5860 1.510
5.6055 1.719
5.6250 1.510
5.6446 1.510
5.6641 1.250
5.6836 2.031
5.7032 1.823
5.7227 1.562
5.7422 2.031
5.7618 1.667
5.7813 1.615
5.8008 1.510
5.8204 1.615
5.8399 1.406
5.8594 1.615
5.8790 1.562
5.8985 1.302
5.9180 1.562
5.9376 1.615
5.9571 1.927
5.9766 1.198
5.9962 1.771
6.0157 1.719
6.0352 1.458
6.0548 1.354
6.0743 1.302
6.0938 1.875
6.1134 1.927
6.1329 1.510
6.1524 1.875
6.1720 2.187
6.1915 1.927
6.2110 1.510
6.2306 1.719
6.2501 1.667
6.2696 1.719
6.2892 1.927
6.3087 1.719
6.3282 1.250
6.3478 1.354
6.3673 1.771
6.3868 1.823
6.4064 1.771
6.4259 1.562
6.4454 1.875
6.4649 1.354
6.4845 1.354
6.5040 1.354
6.5235 1.354
6.5431 2.344
6.5626 1.406
6.5821 1.719
6.6017 1.510
6.6212 1.823
6.6407 1.979
6.6603 1.302
6.6798 1.615
6.6993 1.250
6.7189 1.354
6.7384 1.510
6.7579 1.615
6.7775 1.875
6.7970 1.615
6.8165 1.354
6.8361 1.406
6.8556 1.875
6.8751 1.667
6.8947 1.615
6.9142 0.937
6.9337 1.667
6.9533 1.302
6.9728 1.615
6.9923 1.719
7.0119 1.615
7.0314 1.094
7.0509 1.458
7.0705 1.771
7.0900 1.927
7.1095 1.667
7.1291 1.562
7.1486 1.667
7.1681 1.719
7.1877 1.406
7.2072 1.719
7.2267 1.302
7.2463 1.458
7.2658 1.771
7.2853 1.875
7.3049 1.354
7.3244 1.667
7.3439 1.250
7.3635 1.771
7.3830 1.510
7.4025 1.667
7.4220 1.406
7.4416 1.615
7.4611 1.458
7.4806 1.510
7.5002 1.250
7.5197 1.042
7.5392 1.667
7.5588 2.031
7.5783 1.250
7.5978 1.510
7.6174 1.719
7.6369 1.771
7.6564 1.406
7.6760 1.771
7.6955 1.510
7.7150 1.406
7.7346 1.667
7.7541 1.823
7.7736 2.135
7.7932 1.510
7.8127 1.094
7.8322 1.302
7.8518 1.042
7.8713 1.406
7.8908 1.719
7.9104 1.823
7.9299 1.458
7.9494 2.292
7.9690 2.240
7.9885 1.250
8.0080 1.406
8.0276 1.510
8.0471 1.719
8.0666 1.406
8.0862 1.667
8.1057 1.979
8.1252 1.667
8.1448 1.146
8.1643 1.406
8.1838 1.667
8.2034 1.771
8.2229 2.500
8.2424 1.562
8.2620 1.875
8.2815 2.083
8.3010 1.771
8.3206 1.458
8.3401 2.083
8.3596 1.198
8.3791 1.562
8.3987 1.771
8.4182 1.719
8.4377 1.979
8.4573 1.667
8.4768 1.510
8.4963 1.458
8.5159 1.823
8.5354 1.562
8.5549 1.719
8.5745 1.615
8.5940 1.510
8.6135 1.615
8.6331 1.667
8.6526 1.979
8.6721 1.823
8.6917 1.823
8.7112 1.719
8.7307 1.719
8.7503 1.510
8.7698 1.094
8.7893 1.771
8.8089 1.458
8.8284 1.615
8.8479 1.562
8.8675 1.562
8.8870 1.927
8.9065 1.667
8.9261 1.667
8.9456 1.823
8.9651 1.927
8.9847 1.927
9.0042 2.187
9.0237 1.927
9.0433 1.562
9.0628 1.510
9.0823 1.667
9.1019 1.510
9.1214 1.250
9.1409 1.979
9.1605 1.979
9.1800 1.979
9.1995 1.979
9.2191 1.771
9.2386 1.510
9.2581 1.562
9.2777 2.187
9.2972 2.135
9.3167 1.250
9.3362 1.667
9.3558 1.823
9.3753 1.458
9.3948 1.510
9.4144 1.979
9.4339 1.823
9.4534 2.083
9.4730 1.615
9.4925 1.875
9.5120 1.823
9.5316 1.719
9.5511 1.771
9.5706 1.406
9.5902 2.135
9.6097 1.771
9.6292 2.031
9.6488 1.927
9.6683 1.927
9.6878 2.240
9.7074 2.240
9.7269 1.615
9.7464 1.927
9.7660 1.771
9.7855 1.562
9.8050 1.562
9.8246 1.771
9.8441 2.396
9.8636 2.187
9.8832 1.771
9.9027 1.719
9.9222 1.823
9.9418 1.771
9.9613 2.083
9.9808 2.083
10.0004 1.979
10.0199 2.083
10.0394 2.031
10.0590 2.292
10.0785 1.823
10.0980 2.240
10.1176 2.656
10.1371 2.344
10.1566 2.240
10.1762 1.927
10.1957 2.187
10.2152 1.875
10.2348 2.135
10.2543 2.292
10.2738 1.823
10.2933 2.344
10.3129 2.240
10.3324 2.552
10.3519 1.771
10.3715 2.552
10.3910 2.083
10.4105 2.604
10.4301 2.031
10.4496 1.615
10.4691 2.396
10.4887 1.823
10.5082 2.031
10.5277 2.448
10.5473 3.073
10.5668 1.979
10.5863 2.500
10.6059 2.292
10.6254 2.240
10.6449 2.552
10.6645 2.187
10.6840 2.135
10.7035 2.240
10.7231 2.448
10.7426 2.396
10.7621 2.552
10.7817 2.083
10.8012 2.396
10.8207 2.969
10.8403 2.656
10.8598 2.448
10.8793 1.927
10.8989 2.760
10.9184 2.917
10.9379 2.187
10.9575 2.031
10.9770 2.656
10.9965 1.927
11.0161 2.656
11.0356 2.292
11.0551 2.448
11.0747 3.073
11.0942 3.073
11.1137 2.812
11.1333 2.812
11.1528 2.344
11.1723 2.656
11.1919 2.240
11.2114 2.865
11.2309 2.708
11.2504 2.865
11.2700 2.604
11.2895 2.760
11.3090 2.917
11.3286 2.187
11.3481 2.760
11.3676 2.708
11.3872 2.760
11.4067 2.500
11.4262 2.344
11.4458 3.073
11.4653 2.448
11.4848 2.917
11.5044 2.552
11.5239 2.969
11.5434 2.292
11.5630 3.177
11.5825 3.333
11.6020 1.979
11.6216 3.177
11.6411 3.750
11.6606 3.125
11.6802 3.021
11.6997 3.073
11.7192 3.646
11.7388 3.073
11.7583 2.812
11.7778 3.229
11.7974 2.604
11.8169 3.021
11.8364 2.812
11.8560 3.281
11.8755 3.073
11.8950 2.969
11.9146 2.917
11.9341 2.865
11.9536 2.865
11.9732 3.333
11.9927 2.500
12.0122 3.802
12.0318 2.604
12.0513 3.125
12.0708 3.281
12.0904 3.854
12.1099 3.125
12.1294 3.021
12.1490 2.656
12.1685 2.344
12.1880 3.177
12.2075 2.708
12.2271 2.969
12.2466 3.490
12.2661 2.448
12.2857 3.281
12.3052 3.594
12.3247 3.281
12.3443 3.021
12.3638 3.073
12.3833 3.073
12.4029 2.760
12.4224 3.021
12.4419 2.396
12.4615 2.812
12.4810 3.385
12.5005 2.135
12.5201 2.760
12.5396 2.187
12.5591 2.812
12.5787 3.281
12.5982 3.021
12.6177 3.021
12.6373 2.135
12.6568 2.812
12.6763 2.552
12.6959 3.177
12.7154 2.865
12.7349 3.333
12.7545 3.021
12.7740 2.396
12.7935 2.344
12.8131 2.708
12.8326 2.760
12.8521 2.344
12.8717 2.448
12.8912 2.865
12.9107 3.021
12.9303 3.594
12.9498 2.240
12.9693 2.708
12.9889 2.760
13.0084 2.604
13.0279 2.396
13.0475 2.396
13.0670 2.917
13.0865 2.448
13.1061 3.125
13.1256 2.969
13.1451 2.812
13.1646 2.292
13.1842 2.031
13.2037 2.448
13.2232 2.760
13.2428 2.656
13.2623 2.448
13.2818 2.292
13.3014 2.187
13.3209 2.031
13.3404 1.875
13.3600 2.812
13.3795 2.344
13.3990 2.604
13.4186 1.719
13.4381 2.969
13.4576 1.927
13.4772 1.979
13.4967 2.083
13.5162 1.823
13.5358 2.135
13.5553 2.292
13.5748 2.292
13.5944 2.865
13.6139 2.656
13.6334 2.969
13.6530 2.552
13.6725 1.927
13.6920 1.927
13.7116 1.562
13.7311 2.083
13.7506 1.302
13.7702 1.667
13.7897 1.979
13.8092 2.292
13.8288 2.031
13.8483 2.552
13.8678 1.719
13.8874 1.823
13.9069 2.448
13.9264 1.458
13.9460 2.656
13.9655 1.823
13.9850 2.031
14.0046 1.979
14.0241 2.240
14.0436 2.083
14.0631 2.240
14.0827 1.667
14.1022 2.031
14.1217 2.292
14.1413 1.406
14.1608 2.396
14.1803 1.771
14.1999 1.667
14.2194 2.031
14.2389 2.083
14.2585 2.344
14.2780 1.979
14.2975 1.667
14.3171 1.979
14.3366 1.823
14.3561 2.292
14.3757 1.667
14.3952 1.667
14.4147 1.771
14.4343 2.031
14.4538 1.510
14.4733 2.292
14.4929 1.823
14.5124 1.458
14.5319 1.979
14.5515 2.292
14.5710 1.771
14.5905 1.875
14.6101 1.615
14.6296 1.823
14.6491 1.823
14.6687 2.396
14.6882 1.823
14.7077 2.240
14.7273 1.875
14.7468 2.135
14.7663 1.875
14.7859 1.615
14.8054 2.396
14.8249 1.667
14.8445 1.719
14.8640 2.187
14.8835 2.135
14.9031 1.927
14.9226 2.292
14.9421 2.292
14.9617 1.458
14.9812 1.406
15.0007 1.875
15.0202 2.292
15.0398 1.875
15.0593 1.927
15.0788 2.604
15.0984 2.187
15.1179 2.083
15.1374 1.615
15.1570 1.927
15.1765 1.771
15.1960 2.083
15.2156 1.562
15.2351 1.510
15.2546 1.094
15.2742 1.198
15.2937 1.719
15.3132 1.562
15.3328 2.083
15.3523 1.562
15.3718 2.292
15.3914 1.875
15.4109 1.510
15.4304 1.510
15.4500 1.927
15.4695 1.458
15.4890 1.510
15.5086 1.510
15.5281 1.927
15.5476 1.979
15.5672 1.510
15.5867 1.667
15.6062 1.667
15.6258 1.823
15.6453 1.615
15.6648 1.823
15.6844 2.083
15.7039 1.510
15.7234 1.771
15.7430 2.031
15.7625 1.979
15.7820 1.719
15.8016 1.615
15.8211 1.927
15.8406 1.719
15.8602 1.927
15.8797 1.354
15.8992 1.823
15.9188 1.875
15.9383 1.302
15.9578 1.719
15.9773 1.979
15.9969 1.667
16.0164 1.510
16.0359 1.979
16.0555 1.615
16.0750 1.823
16.0945 2.187
16.1141 1.719
16.1336 1.771
16.1531 1.771
16.1727 1.354
16.1922 1.875
16.2117 1.458
16.2313 2.396
16.2508 2.344
16.2703 1.354
16.2899 1.823
16.3094 1.823
16.3289 2.135
16.3485 1.927
16.3680 2.083
16.3875 1.771
16.4071 1.510
16.4266 1.615
16.4461 1.875
16.4657 1.771
16.4852 1.719
16.5047 1.667
16.5243 1.875
16.5438 1.667
16.5633 1.771
16.5829 1.927
16.6024 2.396
16.6219 1.719
16.6415 1.771
16.6610 1.510
16.6805 2.135
16.7001 1.562
16.7196 1.302
16.7391 1.875
16.7587 1.771
16.7782 2.552
16.7977 1.979
16.8173 2.031
16.8368 1.354
16.8563 1.823
16.8759 1.302
16.8954 2.083
16.9149 2.240
16.9344 1.198
16.9540 2.083
16.9735 1.875
16.9930 2.083
17.0126 1.979
17.0321 2.083
17.0516 2.187
17.0712 1.562
17.0907 1.927
17.1102 1.302
17.1298 1.771
17.1493 1.615
17.1688 1.354
17.1884 1.302
17.2079 2.187
17.2274 1.927
17.2470 1.667
17.2665 1.615
17.2860 2.083
17.3056 1.771
17.3251 2.448
17.3446 1.823
17.3642 1.562
17.3837 1.771
17.4032 2.135
17.4228 1.927
17.4423 1.615
17.4618 1.823
17.4814 1.927
17.5009 1.615
17.5204 1.510
17.5400 1.406
17.5595 1.458
17.5790 1.875
17.5986 1.771
17.6181 1.562
17.6376 1.458
17.6572 1.979
17.6767 1.510
17.6962 2.187
17.7158 2.240
17.7353 1.667
17.7548 1.510
17.7744 1.719
17.7939 1.979
17.8134 1.510
17.8330 2.031
17.8525 2.031
17.8720 1.979
17.8915 1.667
17.9111 2.344
17.9306 1.771
17.9501 1.510
17.9697 1.719
17.9892 1.927
18.0087 2.187
18.0283 1.927
18.0478 2.031
18.0673 1.875
18.0869 2.083
18.1064 1.458
18.1259 2.031
18.1455 2.240
18.1650 1.823
18.1845 1.823
18.2041 1.979
18.2236 2.083
18.2431 1.302
18.2627 2.083
18.2822 1.823
18.3017 1.667
18.3213 1.406
18.3408 2.031
18.3603 2.240
18.3799 1.667
18.3994 1.771
18.4189 2.187
18.4385 1.927
18.4580 1.823
18.4775 1.667
18.4971 1.458
18.5166 2.500
18.5361 1.979
18.5557 2.396
18.5752 1.979
18.5947 1.875
18.6143 1.979
18.6338 1.562
18.6533 2.083
18.6729 1.771
18.6924 1.771
18.7119 1.927
18.7315 1.927
18.7510 1.823
18.7705 1.302
18.7901 1.458
18.8096 1.875
18.8291 1.510
18.8486 2.083
18.8682 1.979
18.8877 1.979
18.9072 1.562
18.9268 1.979
18.9463 2.396
18.9658 2.240
18.9854 1.927
19.0049 1.979
19.0244 2.135
19.0440 2.187
19.0635 2.344
19.0830 2.083
19.1026 2.448
19.1221 2.031
19.1416 1.875
19.1612 2.344
19.1807 1.823
19.2002 1.667
19.2198 1.927
19.2393 2.031
19.2588 1.979
19.2784 1.823
19.2979 2.135
19.3174 1.406
19.3370 2.031
19.3565 1.458
19.3760 2.240
19.3956 1.354
19.4151 1.927
19.4346 1.927
19.4542 2.240
19.4737 2.187
19.4932 1.979
19.5128 1.927
19.5323 1.927
19.5518 1.615
19.5714 1.979
19.5909 3.177
19.6104 2.240
19.6300 2.240
19.6495 1.979
19.6690 1.562
19.6886 1.927
19.7081 1.771
19.7276 2.292
19.7472 1.979
19.7667 1.875
19.7862 1.927
19.8057 2.083
19.8253 2.292
19.8448 2.240
19.8643 2.344
19.8839 1.771
19.9034 2.240
19.9229 2.187
19.9425 2.448
19.9620 1.771
19.9815 1.719
20.0011 1.771
20.0206 1.927
20.0401 2.604
20.0597 2.187
20.0792 1.771
20.0987 2.135
20.1183 1.927
20.1378 1.615
20.1573 2.240
20.1769 2.083
20.1964 2.344
20.2159 1.719
20.2355 1.458
20.2550 1.927
20.2745 2.500
20.2941 2.187
20.3136 2.083
20.3331 2.656
20.3527 2.448
20.3722 1.927
20.3917 1.823
20.4113 2.344
20.4308 2.448
20.4503 2.552
20.4699 2.448
20.4894 2.500
20.5089 2.083
20.5285 2.708
20.5480 1.823
20.5675 2.187
20.5871 2.865
20.6066 1.823
20.6261 2.812
20.6457 2.187
20.6652 1.927
20.6847 2.344
20.7043 2.292
20.7238 2.552
20.7433 1.979
20.7628 2.500
20.7824 2.604
20.8019 1.979
20.8214 1.979
20.8410 1.406
20.8605 1.562
20.8800 2.656
20.8996 2.344
20.9191 2.187
20.9386 2.552
20.9582 2.031
20.9777 2.240
20.9972 2.135
21.0168 1.823
21.0363 1.667
21.0558 1.875
21.0754 1.927
21.0949 1.927
21.1144 1.875
21.1340 2.344
21.1535 2.240
21.1730 2.240
21.1926 2.656
21.2121 1.927
21.2316 1.927
21.2512 2.031
21.2707 2.292
21.2902 2.760
21.3098 2.083
21.3293 2.292
21.3488 2.187
21.3684 1.979
21.3879 1.823
21.4074 1.979
21.4270 2.083
21.4465 2.187
21.4660 1.927
21.4856 2.187
21.5051 2.031
21.5246 1.823
21.5442 2.031
21.5637 2.344
21.5832 2.292
21.6028 2.187
21.6223 2.031
21.6418 1.927
21.6614 2.240
21.6809 1.927
21.7004 2.240
21.7199 2.656
21.7395 1.875
21.7590 2.031
21.7785 2.031
21.7981 1.771
21.8176 2.604
21.8371 2.240
21.8567 1.979
21.8762 1.927
21.8957 2.031
21.9153 2.187
21.9348 2.604
21.9543 1.927
21.9739 1.406
21.9934 2.552
22.0129 2.448
22.0325 1.979
22.0520 2.031
22.0715 2.448
22.0911 2.656
22.1106 2.500
22.1301 2.760
22.1497 4.219
22.1692 6.667
22.1887 10.312
22.2083 14.167
22.2278 20.052
22.2473 20.156
22.2669 18.802
22.2864 12.135
22.3059 9.010
22.3255 6.562
22.3450 4.427
22.3645 2.969
22.3841 2.500
22.4036 2.187
22.4231 2.292
22.4427 1.979
22.4622 1.927
22.4817 2.708
22.5013 2.500
22.5208 2.344
22.5403 1.719
22.5599 2.396
22.5794 1.875
22.5989 1.875
22.6185 2.031
22.6380 2.552
22.6575 1.979
22.6770 1.667
22.6966 1.927
22.7161 2.344
22.7356 1.458
22.7552 2.031
22.7747 2.344
22.7942 2.448
22.8138 2.292
22.8333 1.615
22.8528 2.135
22.8724 2.240
22.8919 2.708
22.9114 2.240
22.9310 1.667
22.9505 1.771
22.9700 2.552
22.9896 2.500
23.0091 2.604
23.0286 2.031
23.0482 2.083
23.0677 2.552
23.0872 1.875
23.1068 1.927
23.1263 2.344
23.1458 1.615
23.1654 2.448
23.1849 2.552
23.2044 2.031
23.2240 1.927
23.2435 1.875
23.2630 2.500
23.2826 2.135
23.3021 1.667
23.3216 2.344
23.3412 2.708
23.3607 1.927
23.3802 2.083
23.3998 2.187
23.4193 1.510
23.4388 2.396
23.4584 2.083
23.4779 2.135
23.4974 1.771
23.5170 2.708
23.5365 2.240
23.5560 1.250
23.5756 1.458
23.5951 1.927
23.6146 2.187
23.6341 1.823
23.6537 1.927
23.6732 1.562
23.6927 2.031
23.7123 1.771
23.7318 2.292
23.7513 2.240
23.7709 1.979
23.7904 1.927
23.8099 1.823
23.8295 1.406
23.8490 1.198
23.8685 1.615
23.8881 1.667
23.9076 2.083
23.9271 1.875
23.9467 2.187
23.9662 1.302
23.9857 1.562
24.0053 2.031
24.0248 2.187
24.0443 1.719
24.0639 1.771
24.0834 1.927
24.1029 1.615
24.1225 2.187
24.1420 1.354
24.1615 1.875
24.1811 2.292
24.2006 1.615
24.2201 1.562
24.2397 1.667
24.2592 1.875
24.2787 1.823
24.2983 2.031
24.3178 1.562
24.3373 1.562
24.3569 1.771
24.3764 2.083
24.3959 1.927
24.4155 2.135
24.4350 1.562
24.4545 1.562
24.4741 1.927
24.4936 1.406
24.5131 1.510
24.5327 1.719
24.5522 1.719
24.5717 2.187
24.5912 1.927
24.6108 1.302
24.6303 1.875
24.6498 1.250
24.6694 1.875
24.6889 1.823
24.7084 1.667
24.7280 1.406
24.7475 1.771
24.7670 1.510
24.7866 2.135
24.8061 1.823
24.8256 1.875
24.8452 2.187
24.8647 1.615
24.8842 1.771
24.9038 2.135
24.9233 1.406
24.9428 1.615
24.9624 1.719
24.9819 1.406
25.0014 1.719
25.0210 1.458
25.0405 1.979
25.0600 1.771
25.0796 1.354
25.0991 2.083
25.1186 2.031
25.1382 1.615
25.1577 2.083
25.1772 1.458
25.1968 1.615
25.2163 1.458
25.2358 1.458
25.2554 1.615
25.2749 1.771
25.2944 1.771
25.3140 1.927
25.3335 1.719
25.3530 1.979
25.3726 1.719
25.3921 1.927
25.4116 2.187
25.4312 1.771
25.4507 1.927
25.4702 1.615
25.4898 1.615
25.5093 1.927
25.5288 1.302
25.5483 1.615
25.5679 1.458
25.5874 1.406
25.6069 1.979
25.6265 1.667
25.6460 1.771
25.6655 1.562
25.6851 1.615
25.7046 1.458
25.7241 1.719
25.7437 1.823
25.7632 2.552
25.7827 1.458
25.8023 1.667
25.8218 1.458
25.8413 1.927
25.8609 1.562
25.8804 1.615
25.8999 1.510
25.9195 1.406
25.9390 1.927
25.9585 1.667
25.9781 1.667
25.9976 1.719
26.0171 1.510
26.0367 2.031
26.0562 1.406
26.0757 1.979
26.0953 1.198
26.1148 1.146
26.1343 1.927
26.1539 1.823
26.1734 1.927
26.1929 1.562
26.2125 2.187
26.2320 1.615
26.2515 1.354
26.2711 1.302
26.2906 1.979
26.3101 0.937
26.3297 1.510
26.3492 1.927
26.3687 1.146
26.3883 1.250
26.4078 2.187
26.4273 1.406
26.4469 1.771
26.4664 2.135
26.4859 1.094
26.5054 1.771
26.5250 1.615
26.5445 1.719
26.5640 1.771
26.5836 1.771
26.6031 1.406
26.6226 1.719
26.6422 1.406
26.6617 1.615
26.6812 1.562
26.7008 1.615
26.7203 1.302
26.7398 1.406
26.7594 1.771
26.7789 1.510
26.7984 1.250
26.8180 2.031
26.8375 1.094
26.8570 1.979
26.8766 1.667
26.8961 1.302
26.9156 0.781
26.9352 1.823
26.9547 1.354
26.9742 1.562
26.9938 1.250
27.0133 1.198
27.0328 1.302
27.0524 1.354
27.0719 0.833
27.0914 1.875
27.1110 1.458
27.1305 1.302
27.1500 1.406
27.1696 1.406
27.1891 1.302
27.2086 1.667
27.2282 1.302
27.2477 1.771
27.2672 1.354
27.2868 1.719
27.3063 1.719
27.3258 1.615
27.3454 1.615
27.3649 1.302
27.3844 1.354
27.4040 1.250
27.4235 1.458
27.4430 1.927
27.4625 1.302
27.4821 1.510
27.5016 1.198
27.5211 1.094
27.5407 1.927
27.5602 1.198
27.5797 1.875
27.5993 1.406
27.6188 1.510
27.6383 1.615
27.6579 1.458
27.6774 1.250
27.6969 1.771
27.7165 1.667
27.7360 1.354
27.7555 1.354
27.7751 1.094
27.7946 1.302
27.8141 1.094
27.8337 1.250
27.8532 1.562
27.8727 1.146
27.8923 1.406
27.9118 1.198
27.9313 1.406
27.9509 1.302
27.9704 1.615
27.9899 1.458
28.0095 0.990
28.0290 1.146
28.0485 1.406
28.0681 1.615
28.0876 0.937
28.1071 1.875
28.1267 2.031
28.1462 1.615
28.1657 1.719
28.1853 0.885
28.2048 1.875
28.2243 1.615
28.2439 1.406
28.2634 1.562
28.2829 1.250
28.3025 1.615
28.3220 1.458
28.3415 1.094
28.3611 0.937
28.3806 1.354
28.4001 1.667
28.4196 1.823
28.4392 1.198
28.4587 1.875
28.4782 1.406
28.4978 1.562
28.5173 1.719
28.5368 1.510
28.5564 1.510
28.5759 0.990
28.5954 1.562
28.6150 1.406
28.6345 1.198
28.6540 1.510
28.6736 1.146
28.6931 1.042
28.7126 1.562
28.7322 1.979
28.7517 1.198
28.7712 1.198
28.7908 1.771
28.8103 1.771
28.8298 1.406
28.8494 1.302
28.8689 1.458
28.8884 1.354
28.9080 1.510
28.9275 1.510
28.9470 1.354
28.9666 1.510
28.9861 1.615
29.0056 1.719
29.0252 0.833
29.0447 0.885
29.0642 1.354
29.0838 1.823
29.1033 0.937
29.1228 1.198
29.1424 1.042
29.1619 1.250
29.1814 1.302
29.2010 0.885
29.2205 2.031
29.2400 1.458
29.2596 1.146
29.2791 1.198
29.2986 1.510
29.3182 1.042
29.3377 1.615
29.3572 1.510
29.3767 1.562
29.3963 0.937
29.4158 1.615
29.4353 1.615
29.4549 1.094
29.4744 1.094
29.4939 2.031
29.5135 1.510
29.5330 1.250
29.5525 1.042
29.5721 1.823
29.5916 1.198
29.6111 1.615
29.6307 1.094
29.6502 1.719
29.6697 1.562
29.6893 1.302
29.7088 1.094
29.7283 1.354
29.7479 1.198
29.7674 1.562
29.7869 1.771
29.8065 0.833
29.8260 1.771
29.8455 1.198
29.8651 1.354
29.8846 1.198
29.9041 1.146
29.9237 2.240
29.9432 1.146
29.9627 1.198
29.9823 1.198
30.0018 1.667
30.0213 1.406
30.0409 1.719
30.0604 1.094
30.0799 1.094
30.0995 1.719
30.1190 1.042
30.1385 1.615
30.1581 0.885
30.1776 1.302
30.1971 1.667
30.2167 0.990
30.2362 1.354
30.2557 1.198
30.2753 1.771
30.2948 1.615
30.3143 1.250
30.3338 1.146
30.3534 1.198
30.3729 1.146
30.3924 1.406
30.4120 1.510
30.4315 1.302
30.4510 0.990
30.4706 1.354
30.4901 1.354
30.5096 0.937
30.5292 1.302
30.5487 0.885
30.5682 1.302
30.5878 1.146
30.6073 1.146
30.6268 0.937
30.6464 1.198
30.6659 1.354
30.6854 1.042
30.7050 1.667
30.7245 1.458
30.7440 1.354
30.7636 1.250
30.7831 1.094
30.8026 0.990
30.8222 1.458
30.8417 1.302
30.8612 1.302
30.8808 0.990
30.9003 1.615
30.9198 1.198
30.9394 1.510
30.9589 1.250
30.9784 0.833
30.9980 1.406
31.0175 0.937
31.0370 0.990
31.0566 1.406
31.0761 1.094
31.0956 0.677
31.1152 1.302
31.1347 0.885
31.1542 1.823
31.1738 1.146
31.1933 1.302
31.2128 0.729
31.2323 1.510
31.2519 1.198
31.2714 1.458
31.2909 1.354
31.3105 0.833
31.3300 1.302
31.3495 1.458
31.3691 1.406
31.3886 1.823
31.4081 1.146
31.4277 1.302
31.4472 1.250
31.4667 1.094
31.4863 1.250
31.5058 1.146
31.5253 1.458
31.5449 2.135
31.5644 4.844
31.5839 8.437
31.6035 19.271
31.6230 31.823
31.6425 37.135
31.6621 38.750
31.6816 28.750
31.7011 17.187
31.7207 11.354
31.7402 6.667
31.7597 4.427
31.7793 2.396
31.7988 2.135
31.8183 1.771
31.8379 2.083
31.8574 1.667
31.8769 1.615
31.8965 1.823
31.9160 1.510
31.9355 1.719
31.9551 1.302
31.9746 1.458
31.9941 1.146
32.0137 1.771
32.0332 1.458
32.0527 1.302
32.0723 1.510
32.0918 1.510
32.1113 1.458
32.1309 1.458
32.1504 0.885
32.1699 1.198
32.1894 1.354
32.2090 1.042
32.2285 1.771
32.2480 1.875
32.2676 1.094
32.2871 1.302
32.3066 1.823
32.3262 1.771
32.3457 1.562
32.3652 1.510
32.3848 1.042
32.4043 1.146
32.4238 0.781
32.4434 1.198
32.4629 1.771
32.4824 1.094
32.5020 1.615
32.5215 1.302
32.5410 1.667
32.5606 1.458
32.5801 0.729
32.5996 1.458
32.6192 1.458
32.6387 1.198
32.6582 1.615
32.6778 1.510
32.6973 1.198
32.7168 0.781
32.7364 1.250
32.7559 0.937
32.7754 0.781
32.7950 1.667
32.8145 1.406
32.8340 1.302
32.8536 1.354
32.8731 1.510
32.8926 1.458
32.9122 1.094
32.9317 1.302
32.9512 1.510
32.9708 1.510
32.9903 1.198
33.0098 1.510
33.0294 0.990
33.0489 1.354
33.0684 1.667
33.0880 1.510
33.1075 1.667
33.1270 1.198
33.1465 1.615
33.1661 1.406
33.1856 1.146
33.2051 0.885
33.2247 1.406
33.2442 1.042
33.2637 1.094
33.2833 1.354
33.3028 1.146
33.3223 1.354
33.3419 1.094
33.3614 1.510
33.3809 1.250
33.4005 0.833
33.4200 1.823
33.4395 1.615
33.4591 0.937
33.4786 1.510
33.4981 0.885
33.5177 1.250
33.5372 1.406
33.5567 1.198
33.5763 1.146
33.5958 1.354
33.6153 0.677
33.6349 1.250
33.6544 1.198
33.6739 0.990
33.6935 0.781
33.7130 1.094
33.7325 1.667
33.7521 1.042
33.7716 1.146
33.7911 1.510
33.8107 1.615
33.8302 1.042
33.8497 1.927
33.8693 1.406
33.8888 1.406
33.9083 1.406
33.9279 0.990
33.9474 1.406
33.9669 1.094
33.9865 0.990
34.0060 1.042
34.0255 1.146
34.0451 1.198
34.0646 0.885
34.0841 1.146
34.1036 1.146
34.1232 0.990
34.1427 1.198
34.1622 1.406
34.1818 1.146
34.2013 1.927
34.2208 1.146
34.2404 1.250
34.2599 1.250
34.2794 1.042
34.2990 1.042
34.3185 1.354
34.3380 1.198
34.3576 0.885
34.3771 0.937
34.3966 0.677
34.4162 1.198
34.4357 1.458
34.4552 1.146
34.4748 0.677
34.4943 0.937
34.5138 0.937
34.5334 1.354
34.5529 1.302
34.5724 0.729
34.5920 0.885
34.6115 0.937
34.6310 0.833
34.6506 1.094
34.6701 0.781
34.6896 1.042
34.7092 1.302
34.7287 0.937
34.7482 0.833
34.7678 1.094
34.7873 1.042
34.8068 1.354
34.8264 1.406
34.8459 1.406
34.8654 0.885
34.8850 0.625
34.9045 0.833
34.9240 1.094
34.9436 0.885
34.9631 0.990
34.9826 1.510
35.0022 1.354
35.0217 1.198
35.0412 1.250
35.0607 1.042
35.0803 1.250
35.0998 0.937
35.1193 1.250
35.1389 1.615
35.1584 1.042
35.1779 1.562
35.1975 1.615
35.2170 0.781
35.2365 1.302
35.2561 1.146
35.2756 0.937
35.2951 0.990
35.3147 0.625
35.3342 1.250
35.3537 0.990
35.3733 0.937
35.3928 1.042
35.4123 0.729
35.4319 1.198
35.4514 0.990
35.4709 1.250
35.4905 1.094
35.5100 1.042
35.5295 0.833
35.5491 1.250
35.5686 1.042
35.5881 0.937
35.6077 1.094
35.6272 0.990
35.6467 0.990
35.6663 1.250
35.6858 1.042
35.7053 1.250
35.7249 1.198
35.7444 1.042
35.7639 0.885
35.7835 0.469
35.8030 1.198
35.8225 1.354
35.8421 1.146
35.8616 0.937
35.8811 0.990
35.9007 0.937
35.9202 1.406
35.9397 0.937
35.9593 0.885
35.9788 1.250
35.9983 1.719
36.0178 1.667
36.0374 1.146
36.0569 0.677
36.0764 0.937
36.0960 0.937
36.1155 0.885
36.1350 1.250
36.1546 1.198
36.1741 0.833
36.1936 1.146
36.2132 1.042
36.2327 0.833
36.2522 1.094
36.2718 1.354
36.2913 1.146
36.3108 1.302
36.3304 1.302
36.3499 1.146
36.3694 1.042
36.3890 1.146
36.4085 0.781
36.4280 0.990
36.4476 1.302
36.4671 1.250
36.4866 1.250
36.5062 0.833
36.5257 0.937
36.5452 1.198
36.5648 1.042
36.5843 0.573
36.6038 0.677
36.6234 0.885
36.6429 0.833
36.6624 0.781
36.6820 0.937
36.7015 1.042
36.7210 0.990
36.7406 1.667
36.7601 1.146
36.7796 0.625
36.7992 1.250
36.8187 1.302
36.8382 0.937
36.8578 1.250
36.8773 1.302
36.8968 1.042
36.9164 0.937
36.9359 1.094
36.9554 1.042
36.9749 1.042
36.9945 0.833
37.0140 0.937
37.0335 1.562
37.0531 0.885
37.0726 0.885
37.0921 1.146
37.1117 0.937
37.1312 1.354
37.1507 1.146
37.1703 0.990
37.1898 1.302
37.2093 0.885
37.2289 0.937
37.2484 1.146
37.2679 1.667
37.2875 1.094
37.3070 1.198
37.3265 1.458
37.3461 1.302
37.3656 1.406
37.3851 1.042
37.4047 1.146
37.4242 0.885
37.4437 0.990
37.4633 0.573
37.4828 1.354
37.5023 0.677
37.5219 1.354
37.5414 0.781
37.5609 1.042
37.5805 1.354
37.6000 1.354
37.6195 0.885
37.6391 1.302
37.6586 1.198
37.6781 0.937
37.6977 1.406
37.7172 1.042
37.7367 1.042
37.7563 0.937
37.7758 1.302
37.7953 0.833
37.8149 1.354
37.8344 0.937
37.8539 1.458
37.8735 1.094
37.8930 0.990
37.9125 0.885
37.9320 1.198
37.9516 0.573
37.9711 1.406
37.9906 1.146
38.0102 1.354
38.0297 1.458
38.0492 1.250
38.0688 1.146
38.0883 0.365
38.1078 1.302
38.1274 0.729
38.1469 1.042
38.1664 0.885
38.1860 1.094
38.2055 0.990
38.2250 0.729
38.2446 1.094
38.2641 1.094
38.2836 0.781
38.3032 1.042
38.3227 1.146
38.3422 1.250
38.3618 0.833
38.3813 1.042
38.4008 1.406
38.4204 1.250
38.4399 1.042
38.4594 1.146
38.4790 1.146
38.4985 1.250
38.5180 1.094
38.5376 1.094
38.5571 1.146
38.5766 0.573
38.5962 1.042
38.6157 1.094
38.6352 0.625
38.6548 1.198
38.6743 0.990
38.6938 1.146
38.7134 1.146
38.7329 0.990
38.7524 1.406
38.7720 1.146
38.7915 1.042
38.8110 0.937
38.8306 0.885
38.8501 1.250
38.8696 1.250
38.8891 1.510
38.9087 1.823
38.9282 5.208
38.9477 10.312
38.9673 20.937
38.9868 30.729
39.0063 38.437
39.0259 31.875
39.0454 24.687
39.0649 14.583
39.0845 7.292
39.1040 3.437
39.1235 3.437
39.1431 2.240
39.1626 2.083
39.1821 1.354
39.2017 1.510
39.2212 1.719
39.2407 1.406
39.2603 1.354
39.2798 1.458
39.2993 1.562
39.3189 1.458
39.3384 1.458
39.3579 1.354
39.3775 1.146
39.3970 1.250
39.4165 1.042
39.4361 1.406
39.4556 1.615
39.4751 0.729
39.4947 1.094
39.5142 1.146
39.5337 1.146
39.5533 1.094
39.5728 1.406
39.5923 1.094
39.6119 0.990
39.6314 1.250
39.6509 0.885
39.6705 1.094
39.6900 1.458
39.7095 1.094
39.7291 0.990
39.7486 1.771
39.7681 1.198
39.7877 1.302
39.8072 0.937
39.8267 0.781
39.8462 1.198
39.8658 1.042
39.8853 0.990
39.9048 1.042
39.9244 0.885
39.9439 1.250
39.9634 1.354
39.9830 1.198
40.0025 0.781
40.0220 1.510
40.0416 0.781
40.0611 0.781
40.0806 0.781
40.1002 0.781
40.1197 0.729
40.1392 0.625
40.1588 0.781
40.1783 1.406
40.1978 0.990
40.2174 1.250
40.2369 1.094
40.2564 0.937
40.2760 0.677
40.2955 0.937
40.3150 0.729
40.3346 0.937
40.3541 1.250
40.3736 1.094
40.3932 1.302
40.4127 1.094
40.4322 1.250
40.4518 0.729
40.4713 1.198
40.4908 0.990
40.5104 1.042
40.5299 1.198
40.5494 0.885
40.5690 0.781
40.5885 1.094
40.6080 0.990
40.6276 0.885
40.6471 1.042
40.6666 1.250
40.6862 1.510
40.7057 0.677
40.7252 1.042
40.7448 1.146
40.7643 1.354
40.7838 1.146
40.8033 0.937
40.8229 0.781
40.8424 1.250
40.8619 1.042
40.8815 0.729
40.9010 0.729
40.9205 0.937
40.9401 0.729
40.9596 1.302
40.9791 1.719
40.9987 0.625
41.0182 1.146
41.0377 0.885
41.0573 1.250
41.0768 1.302
41.0963 0.990
41.1159 1.302
41.1354 1.146
41.1549 1.146
41.1745 0.469
41.1940 0.677
41.2135 0.937
41.2331 1.250
41.2526 0.990
41.2721 1.042
41.2917 0.990
41.3112 1.250
41.3307 0.885
41.3503 0.990
41.3698 0.990
41.3893 0.729
41.4089 0.937
41.4284 0.729
41.4479 0.937
41.4675 0.781
41.4870 0.833
41.5065 1.198
41.5261 1.198
41.5456 1.146
41.5651 0.729
41.5847 1.042
41.6042 0.937
41.6237 0.833
41.6433 0.677
41.6628 0.781
41.6823 0.885
41.7019 1.094
41.7214 0.937
41.7409 0.677
41.7604 1.094
41.7800 1.198
41.7995 1.094
41.8190 0.677
41.8386 0.677
41.8581 1.042
41.8776 0.885
41.8972 1.302
41.9167 1.250
41.9362 0.833
41.9558 1.510
41.9753 1.198
41.9948 1.250
42.0144 0.833
42.0339 0.521
42.0534 0.885
42.0730 0.729
42.0925 1.198
42.1120 1.094
42.1316 1.615
42.1511 0.833
42.1706 1.042
42.1902 1.198
42.2097 1.458
42.2292 1.094
42.2488 1.250
42.2683 1.198
42.2878 0.885
42.3074 1.198
42.3269 1.042
42.3464 0.885
42.3660 1.458
42.3855 0.833
42.4050 1.146
42.4246 1.146
42.4441 0.573
42.4636 1.198
42.4832 1.302
42.5027 0.885
42.5222 0.677
42.5418 1.198
42.5613 1.198
42.5808 0.833
42.6004 1.406
42.6199 1.562
42.6394 1.771
42.6590 1.094
42.6785 1.458
42.6980 1.094
42.7175 0.833
42.7371 1.042
42.7566 1.458
42.7761 1.146
42.7957 1.250
42.8152 0.781
42.8347 1.042
42.8543 1.198
42.8738 0.990
42.8933 0.937
42.9129 1.406
42.9324 0.990
42.9519 1.302
42.9715 0.729
42.9910 1.094
43.0105 0.990
43.0301 0.990
43.0496 1.302
43.0691 1.042
43.0887 1.250
43.1082 0.885
43.1277 1.198
43.1473 1.510
43.1668 0.625
43.1863 1.250
43.2059 1.198
43.2254 0.990
43.2449 1.198
43.2645 0.937
43.2840 1.354
43.3035 1.146
43.3231 1.458
43.3426 1.042
43.3621 1.094
43.3817 1.198
43.4012 1.094
43.4207 0.833
43.4403 1.198
43.4598 1.354
43.4793 1.302
43.4989 1.094
43.5184 0.937
43.5379 1.146
43.5575 1.198
43.5770 0.885
43.5965 1.354
43.6161 0.677
43.6356 0.885
43.6551 0.990
43.6746 0.937
43.6942 1.042
43.7137 1.146
43.7332 1.302
43.7528 0.937
43.7723 0.781
43.7918 1.354
43.8114 0.521
43.8309 1.667
43.8504 0.729
43.8700 1.146
43.8895 1.198
43.9090 1.042
43.9286 0.885
43.9481 1.458
43.9676 1.198
43.9872 1.042
44.0067 1.042
44.0262 0.885
44.0458 0.833
44.0653 1.146
44.0848 1.042
44.1044 1.562
44.1239 1.042
44.1434 1.562
44.1630 1.198
44.1825 0.833
44.2020 0.833
44.2216 0.885
44.2411 0.677
44.2606 1.458
44.2802 0.990
44.2997 1.615
44.3192 0.625
44.3388 1.146
44.3583 1.302
44.3778 1.562
44.3974 1.406
44.4169 1.198
44.4364 1.094
44.4560 0.677
44.4755 0.990
44.4950 1.406
44.5146 0.677
44.5341 1.042
44.5536 0.781
44.5732 0.990
44.5927 0.990
44.6122 1.250
44.6317 1.667
44.6513 0.625
44.6708 1.510
44.6903 1.094
44.7099 0.990
44.7294 0.885
44.7489 1.042
44.7685 0.625
44.7880 1.354
44.8075 0.729
44.8271 1.094
44.8466 1.198
44.8661 0.833
44.8857 1.198
44.9052 0.729
44.9247 1.042
44.9443 1.094
44.9638 0.885
44.9833 0.937
45.0029 1.302
45.0224 1.354
45.0419 0.833
45.0615 1.146
45.0810 1.094
45.1005 0.937
45.1201 1.198
45.1396 0.885
45.1591 1.406
45.1787 1.615
45.1982 1.302
45.2177 2.344
45.2373 3.542
45.2568 7.292
45.2763 16.667
45.2959 30.677
45.3154 40.625
45.3349 42.917
45.3545 39.010
45.3740 28.594
45.3935 15.677
45.4131 8.646
45.4326 5.469
45.4521 3.333
45.4717 2.500
45.4912 1.927
45.5107 2.292
45.5303 1.719
45.5498 1.510
45.5693 0.937
45.5888 0.937
45.6084 1.458
45.6279 0.990
45.6474 1.094
45.6670 1.510
45.6865 1.042
45.7060 1.042
45.7256 1.354
45.7451 1.198
45.7646 0.833
45.7842 1.094
45.8037 1.042
45.8232 1.042
45.8428 1.094
45.8623 0.677
45.8818 1.042
45.9014 0.573
45.9209 0.937
45.9404 1.146
45.9600 0.833
45.9795 0.469
45.9990 0.937
46.0186 1.406
46.0381 1.094
46.0576 0.885
46.0772 0.990
46.0967 1.146
46.1162 0.937
46.1358 1.250
46.1553 0.781
46.1748 0.417
46.1944 1.042
46.2139 1.250
46.2334 1.250
46.2530 0.833
46.2725 0.833
46.2920 1.042
46.3116 0.573
46.3311 1.146
46.3506 1.094
46.3702 0.937
46.3897 0.990
46.4092 1.042
46.4288 0.833
46.4483 0.990
46.4678 0.885
46.4874 1.094
46.5069 0.625
46.5264 1.406
46.5459 1.250
46.5655 0.781
46.5850 1.042
46.6045 0.990
46.6241 0.990
46.6436 0.833
46.6631 0.990
46.6827 0.625
46.7022 0.937
46.7217 0.729
46.7413 1.042
46.7608 1.094
46.7803 0.990
46.7999 1.042
46.8194 1.146
46.8389 0.885
46.8585 1.094
46.8780 1.250
46.8975 0.990
46.9171 0.781
46.9366 0.990
46.9561 0.990
46.9757 0.625
46.9952 0.729
47.0147 0.417
47.0343 1.146
47.0538 0.781
47.0733 1.146
47.0929 1.042
47.1124 0.781
47.1319 1.250
47.1515 1.406
47.1710 1.042
47.1905 1.042
47.2101 0.990
47.2296 0.885
47.2491 0.833
47.2687 0.885
47.2882 0.729
47.3077 0.469
47.3273 1.042
47.3468 0.521
47.3663 0.833
47.3859 1.042
47.4054 0.937
47.4249 1.198
47.4444 1.250
47.4640 0.885
47.4835 0.521
47.5030 0.781
47.5226 1.042
47.5421 0.781
47.5616 0.729
47.5812 0.833
47.6007 1.302
47.6202 0.625
47.6398 1.198
47.6593 1.042
47.6788 0.990
47.6984 0.833
47.7179 0.833
47.7374 0.729
47.7570 0.729
47.7765 0.937
47.7960 1.250
47.8156 0.781
47.8351 0.781
47.8546 1.250
47.8742 1.146
47.8937 0.937
47.9132 0.937
47.9328 0.729
47.9523 0.781
47.9718 1.042
47.9914 1.250
48.0109 1.146
48.0304 0.990
48.0500 1.354
48.0695 1.042
48.0890 0.625
48.1086 0.990
48.1281 0.677
48.1476 1.354
48.1672 1.042
48.1867 0.833
48.2062 0.990
48.2258 1.146
48.2453 0.729
48.2648 1.042
48.2844 0.781
48.3039 0.677
48.3234 0.937
48.3430 0.417
48.3625 0.781
48.3820 1.146
48.4015 0.990
48.4211 0.521
48.4406 0.937
48.4601 1.042
48.4797 1.146
48.4992 0.833
48.5187 0.833
48.5383 0.937
48.5578 1.146
48.5773 0.885
48.5969 0.573
48.6164 0.729
48.6359 0.937
48.6555 0.833
48.6750 0.833
48.6945 1.042
48.7141 0.729
48.7336 1.094
48.7531 0.937
48.7727 0.885
48.7922 1.094
48.8117 0.885
48.8313 0.885
48.8508 0.625
48.8703 0.885
48.8899 0.885
48.9094 1.250
48.9289 0.729
48.9485 0.885
48.9680 0.469
48.9875 1.302
49.0071 0.990
49.0266 1.198
49.0461 1.146
49.0657 0.937
49.0852 1.094
49.1047 0.625
49.1243 0.781
49.1438 0.990
49.1633 0.833
49.1829 0.677
49.2024 0.990
49.2219 1.042
49.2415 1.042
49.2610 0.885
49.2805 1.354
49.3001 1.146
49.3196 0.937
49.3391 0.833
49.3586 0.573
49.3782 0.729
49.3977 0.833
49.4172 0.990
49.4368 0.677
49.4563 1.094
49.4758 1.094
49.4954 0.781
49.5149 0.990
49.5344 0.990
49.5540 0.937
49.5735 1.250
49.5930 1.250
49.6126 1.042
49.6321 0.469
49.6516 0.885
49.6712 1.146
49.6907 0.833
49.7102 0.937
49.7298 1.354
49.7493 1.094
49.7688 1.198
49.7884 0.885
49.8079 0.885
49.8274 0.937
49.8470 0.677
49.8665 0.990
49.8860 0.781
49.9056 0.781
49.9251 1.042
49.9446 1.562
49.9642 0.833
49.9837 0.781
50.0032 0.677
50.0228 0.365
50.0423 0.781
50.0618 0.937
50.0814 1.094
50.1009 1.042
50.1204 0.833
50.1400 0.885
50.1595 0.625
50.1790 0.885
50.1986 0.625
50.2181 0.885
50.2376 1.146
50.2572 0.937
50.2767 0.885
50.2962 0.677
50.3157 1.146
50.3353 0.990
50.3548 0.937
50.3743 0.729
50.3939 1.094
50.4134 1.250
50.4329 1.094
50.4525 1.042
50.4720 1.250
50.4915 1.042
50.5111 1.302
50.5306 0.417
50.5501 0.677
50.5697 1.042
50.5892 0.781
50.6087 1.042
50.6283 1.198
50.6478 1.354
50.6673 0.885
50.6869 0.937
50.7064 0.937
50.7259 0.781
50.7455 1.042
50.7650 1.094
50.7845 0.365
50.8041 0.625
50.8236 1.094
50.8431 1.562
50.8627 1.042
50.8822 0.833
50.9017 0.625
50.9213 0.885
50.9408 0.885
50.9603 1.250
50.9799 2.135
50.9994 4.427
51.0189 6.510
51.0385 7.500
51.0580 6.823
51.0775 4.635
51.0971 3.385
51.1166 2.760
51.1361 2.135
51.1557 1.406
51.1752 1.302
51.1947 1.354
51.2143 1.250
51.2338 0.729
51.2533 1.042
51.2728 1.146
51.2924 1.042
51.3119 0.677
51.3314 1.094
51.3510 0.781
51.3705 1.510
51.3900 1.302
51.4096 1.146
51.4291 0.833
51.4486 1.094
51.4682 0.885
51.4877 0.677
51.5072 0.885
51.5268 0.833
51.5463 1.510
51.5658 0.729
51.5854 1.042
51.6049 0.781
51.6244 0.885
51.6440 0.469
51.6635 0.833
51.6830 0.937
51.7026 0.937
51.7221 1.146
51.7416 0.781
51.7612 1.042
51.7807 0.781
51.8002 0.937
51.8198 1.042
51.8393 1.094
51.8588 0.833
51.8784 0.990
51.8979 1.042
51.9174 0.833
51.9370 0.885
51.9565 1.042
51.9760 1.094
51.9956 1.042
52.0151 0.781
52.0346 0.729
52.0542 0.990
52.0737 1.094
52.0932 1.198
52.1128 1.094
52.1323 0.521
52.1518 0.937
52.1714 1.406
52.1909 1.146
52.2104 0.729
52.2299 0.729
52.2495 0.937
52.2690 0.937
52.2885 0.469
52.3081 1.094
52.3276 0.677
52.3471 0.781
52.3667 0.833
52.3862 0.833
52.4057 0.365
52.4253 0.937
52.4448 0.677
52.4643 1.406
52.4839 1.146
52.5034 0.990
52.5229 0.677
52.5425 0.833
52.5620 0.833
52.5815 0.729
52.6011 1.354
52.6206 0.729
52.6401 0.729
52.6597 0.885
52.6792 0.781
52.6987 0.990
52.7183 0.885
52.7378 0.833
52.7573 1.094
52.7769 0.677
52.7964 1.094
52.8159 0.833
52.8355 0.781
52.8550 0.937
52.8745 0.990
52.8941 0.677
52.9136 1.042
52.9331 0.937
52.9527 1.302
52.9722 1.042
52.9917 0.573
53.0113 1.406
53.0308 0.677
53.0503 0.885
53.0699 1.094
53.0894 0.677
53.1089 0.521
53.1285 0.990
53.1480 0.937
53.1675 1.042
53.1870 1.146
53.2066 0.937
53.2261 0.885
53.2456 1.042
53.2652 1.042
53.2847 0.833
53.3042 0.781
53.3238 0.781
53.3433 0.729
53.3628 1.094
53.3824 1.042
53.4019 0.990
53.4214 1.146
53.4410 0.937
53.4605 1.146
53.4800 0.990
53.4996 0.729
53.5191 1.250
53.5386 0.833
53.5582 0.729
53.5777 0.990
53.5972 0.990
53.6168 1.094
53.6363 1.198
53.6558 0.677
53.6754 0.625
53.6949 0.885
53.7144 0.937
53.7340 1.042
53.7535 1.042
53.7730 0.885
53.7926 0.781
53.8121 0.990
53.8316 0.990
53.8512 1.146
53.8707 1.198
53.8902 0.990
53.9098 0.677
53.9293 0.990
53.9488 0.833
53.9684 0.937
53.9879 0.937
54.0074 0.885
54.0270 0.937
54.0465 1.250
54.0660 0.677
54.0856 0.729
54.1051 0.781
54.1246 0.990
54.1441 0.781
54.1637 1.094
54.1832 1.094
54.2027 0.937
54.2223 0.573
54.2418 0.521
54.2613 0.937
54.2809 1.146
54.3004 1.146
54.3199 1.042
54.3395 0.625
54.3590 1.146
54.3785 0.781
54.3981 1.302
54.4176 0.781
54.4371 0.990
54.4567 0.885
54.4762 0.677
54.4957 0.781
54.5153 0.990
54.5348 1.198
54.5543 0.990
54.5739 1.042
54.5934 0.885
54.6129 0.885
54.6325 1.094
54.6520 1.406
54.6715 1.146
54.6911 0.937
54.7106 0.781
54.7301 1.094
54.7497 0.521
54.7692 0.781
54.7887 0.885
54.8083 1.094
54.8278 0.729
54.8473 0.729
54.8669 1.094
54.8864 0.573
54.9059 1.094
54.9255 0.990
54.9450 0.729
54.9645 0.521
54.9841 0.937
55.0036 0.990
55.0231 0.833
55.0427 1.042
55.0622 0.833
55.0817 1.094
55.1012 0.833
55.1208 0.729
55.1403 0.573
55.1598 1.250
55.1794 1.406
55.1989 0.885
55.2184 0.990
55.2380 0.885
55.2575 1.250
55.2770 0.885
55.2966 1.042
55.3161 0.729
55.3356 0.417
55.3552 0.937
55.3747 0.521
55.3942 1.198
55.4138 0.885
55.4333 1.146
55.4528 0.937
55.4724 0.937
55.4919 0.521
55.5114 0.990
55.5310 0.729
55.5505 0.937
55.5700 0.729
55.5896 0.781
55.6091 0.781
55.6286 0.885
55.6482 0.937
55.6677 1.510
55.6872 0.781
55.7068 0.833
55.7263 1.250
55.7458 0.885
55.7654 1.094
55.7849 0.990
55.8044 1.042
55.8240 0.469
55.8435 0.781
55.8630 0.729
55.8826 1.042
55.9021 0.677
55.9216 1.198
55.9412 0.937
55.9607 0.990
55.9802 0.885
55.9998 0.729
56.0193 0.677
56.0388 0.885
56.0583 1.094
56.0779 0.833
56.0974 1.302
56.1169 0.729
56.1365 0.417
56.1560 1.198
56.1755 0.469
56.1951 1.667
56.2146 2.031
56.2341 2.448
56.2537 4.323
56.2732 6.927
56.2927 13.021
56.3123 15.885
56.3318 12.396
56.3513 10.677
56.3709 7.083
56.3904 4.792
56.4099 3.385
56.4295 2.760
56.4490 1.667
56.4685 2.083
56.4881 0.990
56.5076 1.250
56.5271 1.042
56.5467 0.833
56.5662 1.042
56.5857 1.250
56.6053 1.146
56.6248 0.781
56.6443 1.458
56.6639 1.198
56.6834 1.198
56.7029 0.885
56.7225 0.885
56.7420 1.250
56.7615 0.885
56.7811 1.146
56.8006 0.677
56.8201 0.833
56.8397 1.042
56.8592 0.937
56.8787 0.833
56.8983 0.885
56.9178 0.521
56.9373 1.094
56.9569 1.198
56.9764 1.094
56.9959 0.885
57.0154 0.937
57.0350 1.094
57.0545 0.937
57.0740 0.937
57.0936 0.885
57.1131 0.885
57.1326 0.833
57.1522 1.146
57.1717 1.042
57.1912 0.885
57.2108 0.729
57.2303 1.042
57.2498 1.094
57.2694 1.250
57.2889 0.833
57.3084 1.198
57.3280 1.094
57.3475 0.990
57.3670 0.729
57.3866 1.146
57.4061 0.677
57.4256 0.781
57.4452 0.573
57.4647 1.198
57.4842 0.781
57.5038 0.625
57.5233 0.990
57.5428 1.198
57.5624 0.937
57.5819 0.937
57.6014 0.469
57.6210 1.146
57.6405 0.573
57.6600 0.885
57.6796 0.625
57.6991 0.833
57.7186 0.990
57.7382 1.094
57.7577 0.885
57.7772 0.781
57.7968 0.937
57.8163 0.625
57.8358 0.625
57.8554 0.677
57.8749 0.573
57.8944 1.094
57.9140 0.885
57.9335 1.094
57.9530 1.094
57.9725 0.573
57.9921 0.990
58.0116 0.833
58.0311 1.302
58.0507 0.729
58.0702 0.885
58.0897 0.781
58.1093 0.885
58.1288 0.885
58.1483 0.937
58.1679 0.990
58.1874 0.937
58.2069 0.573
58.2265 0.677
58.2460 1.198
58.2655 0.781
58.2851 0.625
58.3046 0.833
58.3241 0.937
58.3437 1.146
58.3632 1.146
58.3827 0.781
58.4023 0.833
58.4218 0.990
58.4413 0.990
58.4609 1.042
58.4804 0.573
58.4999 0.833
58.5195 0.937
58.5390 0.677
58.5585 0.625
58.5781 0.781
58.5976 0.885
58.6171 0.729
58.6367 0.781
58.6562 0.781
58.6757 0.990
58.6953 0.729
58.7148 0.937
58.7343 0.781
58.7539 1.042
58.7734 1.198
58.7929 1.250
58.8125 0.781
58.8320 0.781
58.8515 0.990
58.8711 1.510
58.8906 0.833
58.9101 0.990
58.9296 0.677
58.9492 1.094
58.9687 0.937
58.9882 1.458
59.0078 0.833
59.0273 0.729
59.0468 0.677
59.0664 0.990
59.0859 0.990
59.1054 1.146
59.1250 0.417
59.1445 1.042
59.1640 0.573
59.1836 0.781
59.2031 1.094
59.2226 1.198
59.2422 0.833
59.2617 1.042
59.2812 1.250
59.3008 0.781
59.3203 0.833
59.3398 0.729
59.3594 0.521
59.3789 1.146
59.3984 0.833
59.4180 1.042
59.4375 1.354
59.4570 0.729
59.4766 0.729
59.4961 0.937
59.5156 1.250
59.5352 1.302
59.5547 0.885
59.5742 0.885
59.5938 0.833
59.6133 0.677
59.6328 1.146
59.6524 0.833
59.6719 0.573
59.6914 0.885
59.7110 0.990
59.7305 0.677
59.7500 1.146
59.7696 0.677
59.7891 0.885
59.8086 0.990
59.8282 0.937
59.8477 0.937
59.8672 1.146
59.8867 0.625
59.9063 0.990
59.9258 1.094
59.9453 1.042
59.9649 0.885
59.9844 1.198
60.0039 1.198
60.0235 1.094
60.0430 0.677
60.0625 0.729
60.0821 0.469
60.1016 0.990
60.1211 0.990
60.1407 0.781
60.1602 0.990
60.1797 1.042
60.1993 1.198
60.2188 1.250
60.2383 0.781
60.2579 1.198
60.2774 0.729
60.2969 0.990
60.3165 1.250
60.3360 1.406
60.3555 0.677
60.3751 0.781
60.3946 0.729
60.4141 1.198
60.4337 0.833
60.4532 1.094
60.4727 1.250
60.4923 0.885
60.5118 0.885
60.5313 0.781
60.5509 1.042
60.5704 1.302
60.5899 1.198
60.6095 0.833
60.6290 0.781
60.6485 1.302
60.6681 1.094
60.6876 1.094
60.7071 0.677
60.7267 0.729
60.7462 0.990
60.7657 1.302
60.7853 0.781
60.8048 0.990
60.8243 1.042
60.8438 0.990
60.8634 1.146
60.8829 1.146
60.9024 1.354
60.9220 0.990
60.9415 0.677
60.9610 0.990
60.9806 1.094
61.0001 0.677
61.0196 0.885
61.0392 0.833
61.0587 0.990
61.0782 1.094
61.0978 0.937
61.1173 0.625
61.1368 0.781
61.1564 0.885
61.1759 1.146
61.1954 1.667
61.2150 0.625
61.2345 0.990
61.2540 0.833
61.2736 0.729
61.2931 0.990
61.3126 0.781
61.3322 0.833
61.3517 0.677
61.3712 1.042
61.3908 0.990
61.4103 1.198
61.4298 0.937
61.4494 0.833
61.4689 0.729
61.4884 0.677
61.5080 0.729
61.5275 1.042
61.5470 1.094
61.5666 0.833
61.5861 0.833
61.6056 1.198
61.6252 1.042
61.6447 1.094
61.6642 0.885
61.6838 1.146
61.7033 0.990
61.7228 1.354
61.7424 0.937
61.7619 0.833
61.7814 0.417
61.8009 0.729
61.8205 0.677
61.8400 1.042
61.8595 0.573
61.8791 1.250
61.8986 1.146
61.9181 0.885
61.9377 1.198
61.9572 0.885
61.9767 1.198
61.9963 1.094
62.0158 0.990
62.0353 0.625
62.0549 1.094
62.0744 0.990
62.0939 0.990
62.1135 0.885
62.1330 0.937
62.1525 0.885
62.1721 0.625
62.1916 0.833
62.2111 0.729
62.2307 0.990
62.2502 0.781
62.2697 0.625
62.2893 0.937
62.3088 1.198
62.3283 0.729
62.3479 0.729
62.3674 0.781
62.3869 0.729
62.4065 0.885
62.4260 0.833
62.4455 0.521
62.4651 0.990
62.4846 1.146
62.5041 0.937
62.5237 1.354
62.5432 0.312
62.5627 1.198
62.5823 0.677
62.6018 1.406
62.6213 1.042
62.6409 0.990
62.6604 0.781
62.6799 0.885
62.6995 0.990
62.7190 0.729
62.7385 0.625
62.7580 0.990
62.7776 0.937
62.7971 0.833
62.8166 0.937
62.8362 0.625
62.8557 0.937
62.8752 0.625
62.8948 0.573
62.9143 0.729
62.9338 1.042
62.9534 0.833
62.9729 0.833
62.9924 0.625
63.0120 0.990
63.0315 0.677
63.0510 1.094
63.0706 0.990
63.0901 1.042
63.1096 1.250
63.1292 0.990
63.1487 1.146
63.1682 1.146
63.1878 1.198
63.2073 1.094
63.2268 0.990
63.2464 0.833
63.2659 0.729
63.2854 0.833
63.3050 1.094
63.3245 1.094
63.3440 0.729
63.3636 0.781
63.3831 0.990
63.4026 0.833
63.4222 0.885
63.4417 0.885
63.4612 0.833
63.4808 1.354
63.5003 0.781
63.5198 0.417
63.5394 1.042
63.5589 1.094
63.5784 0.781
63.5980 0.937
63.6175 0.781
63.6370 1.146
63.6566 1.042
63.6761 1.302
63.6956 0.885
63.7151 0.990
63.7347 1.042
63.7542 0.990
63.7737 0.990
63.7933 0.417
63.8128 1.094
63.8323 1.042
63.8519 0.833
63.8714 0.937
63.8909 0.677
63.9105 0.781
63.9300 1.094
63.9495 0.729
63.9691 0.781
63.9886 0.781
64.0081 0.729
64.0277 0.885
64.0472 0.729
64.0667 0.781
64.0863 1.198
64.1058 0.937
64.1253 1.042
64.1449 0.781
64.1644 0.729
64.1839 1.354
64.2035 0.677
64.2230 1.042
64.2425 0.781
64.2621 1.510
64.2816 1.146
64.3011 0.417
64.3207 0.937
64.3402 0.937
64.3597 0.990
64.3793 0.625
64.3988 0.781
64.4183 1.094
64.4379 0.885
64.4574 1.458
64.4769 1.354
64.4965 0.937
64.5160 0.833
64.5355 1.146
64.5551 1.146
64.5746 0.885
64.5941 1.042
64.6136 1.094
64.6332 1.146
64.6527 1.615
64.6722 0.990
64.6918 0.990
64.7113 0.781
64.7308 0.990
64.7504 0.625
64.7699 1.302
64.7894 0.990
64.8090 0.677
64.8285 0.833
64.8480 1.406
64.8676 0.990
64.8871 0.521
64.9066 0.885
64.9262 0.885
64.9457 0.781
64.9652 0.990
64.9848 0.833
65.0043 1.198
65.0238 0.677
65.0434 0.885
65.0629 0.990
65.0824 0.833
65.1020 0.885
65.1215 0.729
65.1410 0.885
65.1606 1.094
65.1801 0.833
65.1996 0.990
65.2192 1.146
65.2387 1.042
65.2582 1.198
65.2778 0.729
65.2973 0.469
65.3168 0.677
65.3364 1.042
65.3559 1.094
65.3754 0.833
65.3950 1.042
65.4145 0.781
65.4340 0.573
65.4536 0.677
65.4731 0.781
65.4926 0.729
65.5122 0.833
65.5317 0.885
65.5512 0.677
65.5707 0.990
65.5903 1.094
65.6098 0.677
65.6293 0.937
65.6489 0.937
65.6684 1.042
65.6879 0.729
65.7075 0.677
65.7270 0.990
65.7465 1.406
65.7661 0.937
65.7856 1.042
65.8051 0.990
65.8247 1.042
65.8442 0.885
65.8637 0.573
65.8833 1.094
65.9028 1.562
65.9223 2.396
65.9419 3.385
65.9614 5.208
65.9809 8.698
66.0005 12.656
66.0200 13.490
66.0395 13.073
66.0591 9.635
66.0786 7.396
66.0981 5.312
66.1177 3.385
66.1372 2.656
66.1567 2.344
66.1763 2.031
66.1958 1.458
66.2153 1.615
66.2349 1.406
66.2544 1.406
66.2739 1.615
66.2935 1.510
66.3130 0.937
66.3325 1.094
66.3521 1.458
66.3716 1.198
66.3911 1.146
66.4107 1.146
66.4302 1.302
66.4497 0.573
66.4693 1.198
66.4888 1.146
66.5083 0.677
66.5278 0.937
66.5474 1.146
66.5669 1.042
66.5864 0.833
66.6060 0.885
66.6255 0.937
66.6450 0.833
66.6646 0.833
66.6841 0.625
66.7036 0.833
66.7232 1.042
66.7427 0.729
66.7622 1.250
66.7818 0.833
66.8013 0.885
66.8208 0.937
66.8404 0.990
66.8599 1.198
66.8794 0.990
66.8990 0.833
66.9185 1.146
66.9380 1.094
66.9576 0.729
66.9771 0.677
66.9966 1.354
67.0162 0.677
67.0357 0.885
67.0552 1.302
67.0748 1.198
67.0943 0.885
67.1138 0.781
67.1334 0.781
67.1529 1.042
67.1724 0.729
67.1920 0.260
67.2115 0.833
67.2310 0.729
67.2506 0.729
67.2701 0.885
67.2896 0.677
67.3092 1.250
67.3287 1.146
67.3482 0.833
67.3678 0.573
67.3873 1.094
67.4068 0.781
67.4264 0.677
67.4459 1.094
67.4654 0.781
67.4849 0.990
67.5045 0.990
67.5240 0.729
67.5435 1.042
67.5631 0.677
67.5826 1.094
67.6021 0.573
67.6217 1.146
67.6412 1.198
67.6607 0.573
67.6803 0.781
67.6998 1.042
67.7193 1.146
67.7389 0.833
67.7584 0.677
67.7779 0.781
67.7975 0.833
67.8170 0.729
67.8365 0.885
67.8561 0.885
67.8756 0.833
67.8951 0.833
67.9147 0.990
67.9342 0.885
67.9537 0.885
67.9733 0.781
67.9928 1.406
68.0123 0.885
68.0319 0.625
68.0514 1.042
68.0709 0.885
68.0905 1.094
68.1100 0.885
68.1295 0.833
68.1491 0.990
68.1686 0.990
68.1881 1.302
68.2077 0.677
68.2272 1.354
68.2467 1.094
68.2663 0.312
68.2858 0.677
68.3053 0.417
68.3249 1.302
68.3444 0.885
68.3639 0.781
68.3835 0.833
68.4030 0.885
68.4225 0.781
68.4420 0.729
68.4616 0.677
68.4811 0.417
68.5006 1.354
68.5202 1.146
68.5397 0.729
68.5592 0.885
68.5788 1.042
68.5983 0.677
68.6178 0.781
68.6374 0.781
68.6569 1.250
68.6764 0.990
68.6960 0.781
68.7155 0.990
68.7350 0.885
68.7546 0.833
68.7741 0.417
68.7936 1.094
68.8132 0.885
68.8327 0.937
68.8522 0.885
68.8718 0.729
68.8913 0.990
68.9108 0.573
68.9304 1.042
68.9499 0.677
68.9694 1.094
68.9890 0.885
69.0085 0.729
69.0280 0.781
69.0476 0.937
69.0671 0.729
69.0866 0.625
69.1062 0.781
69.1257 0.729
69.1452 0.729
69.1648 0.677
69.1843 0.729
69.2038 0.833
69.2234 0.937
69.2429 1.250
69.2624 0.990
69.2820 0.833
69.3015 1.094
69.3210 0.885
69.3406 0.521
69.3601 1.198
69.3796 1.354
69.3991 0.625
69.4187 0.781
69.4382 0.885
69.4577 0.573
69.4773 0.677
69.4968 0.833
69.5163 1.146
69.5359 0.677
69.5554 0.469
69.5749 0.885
69.5945 0.885
69.6140 0.781
69.6335 1.042
69.6531 0.677
69.6726 1.042
69.6921 0.729
69.7117 0.885
69.7312 0.573
69.7507 1.042
69.7703 0.937
69.7898 1.198
69.8093 0.677
69.8289 0.833
69.8484 0.729
69.8679 0.781
69.8875 0.625
69.9070 0.781
69.9265 0.833
69.9461 0.833
69.9656 0.990
69.9851 1.094
70.0047 0.833
70.0242 0.885
70.0437 0.729
70.0633 0.781
70.0828 1.042
70.1023 0.625
70.1219 1.354
70.1414 0.729
70.1609 0.833
70.1805 0.833
70.2000 1.198
70.2195 1.094
70.2391 0.990
70.2586 0.521
70.2781 0.833
70.2977 1.198
70.3172 0.781
70.3367 0.677
70.3562 0.990
70.3758 0.833
70.3953 0.781
70.4148 0.781
70.4344 0.937
70.4539 1.198
70.4734 1.198
70.4930 0.885
70.5125 1.198
70.5320 1.406
70.5516 3.021
70.5711 3.542
70.5906 3.437
70.6102 3.385
70.6297 1.823
70.6492 1.875
70.6688 1.458
70.6883 1.510
70.7078 1.354
70.7274 1.510
70.7469 1.667
70.7664 1.406
70.7860 0.885
70.8055 1.094
70.8250 1.042
70.8446 1.042
70.8641 0.990
70.8836 0.885
70.9032 0.937
70.9227 1.094
70.9422 0.521
70.9618 0.729
70.9813 1.146
71.0008 1.198
71.0204 0.521
71.0399 0.781
71.0594 0.781
71.0790 0.833
71.0985 0.937
71.1180 0.729
71.1376 1.250
71.1571 0.677
71.1766 0.625
71.1962 1.094
71.2157 1.146
71.2352 0.781
71.2548 0.781
71.2743 0.885
71.2938 0.729
71.3133 0.990
71.3329 0.625
71.3524 1.198
71.3719 0.885
71.3915 0.885
71.4110 0.573
71.4305 0.521
71.4501 0.677
71.4696 0.417
71.4891 0.729
71.5087 0.521
71.5282 0.677
71.5477 0.677
71.5673 0.885
71.5868 0.469
71.6063 0.937
71.6259 1.094
71.6454 0.833
71.6649 0.521
71.6845 0.937
71.7040 0.937
71.7235 1.094
71.7431 0.417
71.7626 0.833
71.7821 0.625
71.8017 0.833
71.8212 0.521
71.8407 1.042
71.8603 1.146
71.8798 0.625
71.8993 0.885
71.9189 1.146
71.9384 1.146
71.9579 0.885
71.9775 0.677
71.9970 0.781
72.0165 1.250
72.0361 0.781
72.0556 0.625
72.0751 0.885
72.0947 0.729
72.1142 1.094
72.1337 0.833
72.1533 1.094
72.1728 0.573
72.1923 0.573
72.2119 0.833
72.2314 1.042
72.2509 0.573
72.2704 0.729
72.2900 1.042
72.3095 0.573
72.3290 1.042
72.3486 0.833
72.3681 1.250
72.3876 0.677
72.4072 0.833
72.4267 0.573
72.4462 0.729
72.4658 0.885
72.4853 0.937
72.5048 0.677
72.5244 0.469
72.5439 1.042
72.5634 0.729
72.5830 0.833
72.6025 0.833
72.6220 1.042
72.6416 0.990
72.6611 1.094
72.6806 0.990
72.7002 0.469
72.7197 0.990
72.7392 1.042
72.7588 0.885
72.7783 0.990
72.7978 1.146
72.8174 0.573
72.8369 0.625
72.8564 0.885
72.8760 0.781
72.8955 0.937
72.9150 1.198
72.9346 0.885
72.9541 0.885
72.9736 1.042
72.9932 0.937
73.0127 0.990
73.0322 0.729
73.0518 0.833
73.0713 0.833
73.0908 0.729
73.1104 0.833
73.1299 0.833
73.1494 0.833
73.1690 0.573
73.1885 0.990
73.2080 1.146
73.2275 0.937
73.2471 1.198
73.2666 0.781
73.2861 0.729
73.3057 0.833
73.3252 0.937
73.3447 0.937
73.3643 0.885
73.3838 0.937
73.4033 0.677
73.4229 0.885
73.4424 1.094
73.4619 0.677
73.4815 0.729
73.5010 0.625
73.5205 1.510
73.5401 0.677
73.5596 0.937
73.5791 1.094
73.5987 0.729
73.6182 0.469
73.6377 0.885
73.6573 0.573
73.6768 0.937
73.6963 0.833
73.7159 0.781
73.7354 0.521
73.7549 0.677
73.7745 0.521
73.7940 1.042
73.8135 0.729
73.8331 0.573
73.8526 1.042
73.8721 0.781
73.8917 0.625
73.9112 1.146
73.9307 0.469
73.9503 0.573
73.9698 0.677
73.9893 0.990
74.0089 0.469
74.0284 0.729
74.0479 0.885
74.0675 0.677
74.0870 0.885
74.1065 0.937
74.1261 0.729
74.1456 0.833
74.1651 0.937
74.1846 1.042
74.2042 0.573
74.2237 0.729
74.2432 0.729
74.2628 0.521
74.2823 0.990
74.3018 1.094
74.3214 0.729
74.3409 0.937
74.3604 0.677
74.3800 1.042
74.3995 1.198
74.4190 0.521
74.4386 0.937
74.4581 0.833
74.4776 0.677
74.4972 0.573
74.5167 0.781
74.5362 0.521
74.5558 0.937
74.5753 0.990
74.5948 1.094
74.6144 0.417
74.6339 0.677
74.6534 1.094
74.6730 0.469
74.6925 0.781
74.7120 0.781
74.7316 0.417
74.7511 0.729
74.7706 0.625
74.7902 0.781
74.8097 0.990
74.8292 0.625
74.8488 1.042
74.8683 0.885
74.8878 1.146
74.9074 1.198
74.9269 1.406
74.9464 1.302
74.9660 2.448
74.9855 3.073
75.0050 4.010
75.0246 5.521
75.0441 5.156
75.0636 3.490
75.0832 2.812
75.1027 2.292
75.1222 1.979
75.1417 1.094
75.1613 1.562
75.1808 0.990
75.2003 1.510
75.2199 0.990
75.2394 1.302
75.2589 1.198
75.2785 0.885
75.2980 1.042
75.3175 0.833
75.3371 0.833
75.3566 0.521
75.3761 1.094
75.3957 1.042
75.4152 0.937
75.4347 0.937
75.4543 0.677
75.4738 1.198
75.4933 0.729
75.5129 1.302
75.5324 0.573
75.5519 1.354
75.5715 0.885
75.5910 1.042
75.6105 0.937
75.6301 0.729
75.6496 0.677
75.6691 0.937
75.6887 0.677
75.7082 1.042
75.7277 0.990
75.7473 0.469
75.7668 0.573
75.7863 0.469
75.8059 0.781
75.8254 1.094
75.8449 0.937
75.8645 0.677
75.8840 0.990
75.9035 0.885
75.9231 0.677
75.9426 1.094
75.9621 1.094
75.9817 0.729
76.0012 0.521
76.0207 0.937
76.0403 0.677
76.0598 0.781
76.0793 0.521
76.0988 0.937
76.1184 0.677
76.1379 0.521
76.1574 1.042
76.1770 1.146
76.1965 0.469
76.2160 0.677
76.2356 0.625
76.2551 0.573
76.2746 0.677
76.2942 0.833
76.3137 0.729
76.3332 0.417
76.3528 0.573
76.3723 0.833
76.3918 0.573
76.4114 0.469
76.4309 0.781
76.4504 1.094
76.4700 1.146
76.4895 0.833
76.5090 0.885
76.5286 0.885
76.5481 0.677
76.5676 0.573
76.5872 0.937
76.6067 0.312
76.6262 1.146
76.6458 1.146
76.6653 0.885
76.6848 0.521
76.7044 1.094
76.7239 0.521
76.7434 1.042
76.7630 0.833
76.7825 1.042
76.8020 0.573
76.8216 1.042
76.8411 0.781
76.8606 0.365
76.8802 0.729
76.8997 0.833
76.9192 0.885
76.9388 0.625
76.9583 0.573
76.9778 1.094
76.9974 0.885
77.0169 0.729
77.0364 0.729
77.0559 0.990
77.0755 0.729
77.0950 0.833
77.1145 0.885
77.1341 0.625
77.1536 1.198
77.1731 0.365
77.1927 0.833
77.2122 0.729
77.2317 0.677
77.2513 0.833
77.2708 0.677
77.2903 1.094
77.3099 0.781
77.3294 0.885
77.3489 0.573
77.3685 0.937
77.3880 0.833
77.4075 0.729
77.4271 0.573
77.4466 0.833
77.4661 0.781
77.4857 0.833
77.5052 0.781
77.5247 0.885
77.5443 0.781
77.5638 0.573
77.5833 0.677
77.6029 0.781
77.6224 0.573
77.6419 0.990
77.6615 0.833
77.6810 0.937
77.7005 0.729
77.7201 0.990
77.7396 0.625
77.7591 0.417
77.7787 1.042
77.7982 1.042
77.8177 0.781
77.8373 1.094
77.8568 0.990
77.8763 0.469
77.8959 0.729
77.9154 0.625
77.9349 0.781
77.9545 0.885
77.9740 0.937
77.9935 0.573
78.0130 0.417
78.0326 0.885
78.0521 0.625
78.0716 0.729
78.0912 0.885
78.1107 0.625
78.1302 1.354
78.1498 0.781
78.1693 1.042
78.1888 0.990
78.2084 0.729
78.2279 0.937
78.2474 1.042
78.2670 1.094
78.2865 0.833
78.3060 0.469
78.3256 0.990
78.3451 0.781
78.3646 0.625
78.3842 0.573
78.4037 0.417
78.4232 0.937
78.4428 0.729
78.4623 0.833
78.4818 0.625
78.5014 0.781
78.5209 1.354
78.5404 0.937
78.5600 0.937
78.5795 0.885
78.5990 1.094
78.6186 0.677
78.6381 0.573
78.6576 1.094
78.6772 0.833
78.6967 0.937
78.7162 1.510
78.7358 0.833
78.7553 0.729
78.7748 0.521
78.7944 0.573
78.8139 0.781
78.8334 1.094
78.8530 0.573
78.8725 0.781
78.8920 0.729
78.9116 0.781
78.9311 1.042
78.9506 0.885
78.9701 0.885
78.9897 0.625
79.0092 1.094
79.0287 1.094
79.0483 0.729
79.0678 0.729
79.0873 0.573
79.1069 1.042
79.1264 0.625
79.1459 0.781
79.1655 1.250
79.1850 1.042
79.2045 0.885
79.2241 1.094
79.2436 0.885
79.2631 1.406
79.2827 1.771
79.3022 2.083
79.3217 3.958
79.3413 5.312
79.3608 8.021
79.3803 10.885
79.3999 9.062
79.4194 6.771
79.4389 5.729
79.4585 3.854
79.4780 3.906
79.4975 2.552
79.5171 2.083
79.5366 1.250
79.5561 1.094
79.5757 0.990
79.5952 1.354
79.6147 1.198
79.6343 0.937
79.6538 1.094
79.6733 0.729
79.6929 1.406
79.7124 0.937
79.7319 1.146
79.7515 1.042
79.7710 0.677
79.7905 0.833
79.8101 1.146
79.8296 0.937
79.8491 0.781
79.8687 1.042
79.8882 0.885
79.9077 0.885
79.9272 1.406
79.9468 0.729
79.9663 0.417
79.9858 0.937
80.0054 0.729
80.0249 0.573
80.0444 0.677
80.0640 0.573
80.0835 0.625
80.1030 0.469
80.1226 0.885
80.1421 0.677
80.1616 0.677
80.1812 0.885
80.2007 0.729
80.2202 0.990
80.2398 0.990
80.2593 0.573
80.2788 0.729
80.2984 1.250
80.3179 0.781
80.3374 0.417
80.3570 0.729
80.3765 1.094
80.3960 0.833
80.4156 0.885
80.4351 0.937
80.4546 0.990
80.4742 0.885
80.4937 0.365
80.5132 0.625
80.5328 1.146
80.5523 0.833
80.5718 0.885
80.5914 0.729
80.6109 0.469
80.6304 0.937
80.6500 0.469
80.6695 0.677
80.6890 0.833
80.7086 0.521
80.7281 0.625
80.7476 0.573
80.7672 0.521
80.7867 0.625
80.8062 0.677
80.8258 0.521
80.8453 0.885
80.8648 0.937
80.8843 0.729
80.9039 0.521
80.9234 0.729
80.9429 0.625
80.9625 0.833
80.9820 0.729
81.0015 0.729
81.0211 0.625
81.0406 0.937
81.0601 0.625
81.0797 1.094
81.0992 0.781
81.1187 0.573
81.1383 0.573
81.1578 0.417
81.1773 1.250
81.1969 0.781
81.2164 0.990
81.2359 1.146
81.2555 0.781
81.2750 0.833
81.2945 0.937
81.3141 0.833
81.3336 0.937
81.3531 0.990
81.3727 0.990
81.3922 0.417
81.4117 0.990
81.4313 0.781
81.4508 0.990
81.4703 0.365
81.4899 0.885
81.5094 0.469
81.5289 1.042
81.5485 0.729
81.5680 0.625
81.5875 1.198
81.6071 0.885
81.6266 0.885
81.6461 0.729
81.6657 1.198
81.6852 0.729
81.7047 0.781
81.7243 0.729
81.7438 0.729
81.7633 0.677
81.7828 0.781
81.8024 0.469
81.8219 0.573
81.8414 0.729
81.8610 0.573
81.8805 1.094
81.9000 0.521
81.9196 1.042
81.9391 0.729
81.9586 0.937
81.9782 1.094
81.9977 0.781
82.0172 0.990
82.0368 0.781
82.0563 0.729
82.0758 0.677
82.0954 0.990
82.1149 0.625
82.1344 0.729
82.1540 0.729
82.1735 0.677
82.1930 0.417
82.2126 0.573
82.2321 0.625
82.2516 0.625
82.2712 0.677
82.2907 0.729
82.3102 0.781
82.3298 1.094
82.3493 0.677
82.3688 0.729
82.3884 1.146
82.4079 0.573
82.4274 0.417
82.4470 0.729
82.4665 0.625
82.4860 0.729
82.5056 0.521
82.5251 0.729
82.5446 0.521
82.5642 0.729
82.5837 0.573
82.6032 0.521
82.6228 0.521
82.6423 0.990
82.6618 0.625
82.6814 0.677
82.7009 0.885
82.7204 0.521
82.7399 0.573
82.7595 0.677
82.7790 0.625
82.7985 1.094
82.8181 0.729
82.8376 0.625
82.8571 0.729
82.8767 0.677
82.8962 0.573
82.9157 0.573
82.9353 0.885
82.9548 0.885
82.9743 0.729
82.9939 0.781
83.0134 0.833
83.0329 0.365
83.0525 0.937
83.0720 0.833
83.0915 1.042
83.1111 1.406
83.1306 0.729
83.1501 0.781
83.1697 1.042
83.1892 0.885
83.2087 0.990
83.2283 0.885
83.2478 0.625
83.2673 0.573
83.2869 0.781
83.3064 0.885
83.3259 0.625
83.3455 0.833
83.3650 0.573
83.3845 0.885
83.4041 0.729
83.4236 0.573
83.4431 0.469
83.4627 0.677
83.4822 0.729
83.5017 0.469
83.5213 0.781
83.5408 0.521
83.5603 1.250
83.5799 1.302
83.5994 1.458
83.6189 2.083
83.6385 2.448
83.6580 3.437
83.6775 3.542
83.6970 2.812
83.7166 2.760
83.7361 1.823
83.7556 1.927
83.7752 1.667
83.7947 1.146
83.8142 1.562
83.8338 0.990
83.8533 1.458
83.8728 0.677
83.8924 0.625
83.9119 0.677
83.9314 0.937
83.9510 0.937
83.9705 0.573
83.9900 0.365
84.0096 0.885
84.0291 0.833
84.0486 0.521
84.0682 0.729
84.0877 0.937
84.1072 0.417
84.1268 0.625
84.1463 0.156
84.1658 1.042
84.1854 0.677
84.2049 0.729
84.2244 0.573
84.2440 0.521
84.2635 0.625
84.2830 0.885
84.3026 0.573
84.3221 0.885
84.3416 0.781
84.3612 0.625
84.3807 0.781
84.4002 0.885
84.4198 0.521
84.4393 0.937
84.4588 0.469
84.4784 0.521
84.4979 0.417
84.5174 0.781
84.5370 0.469
84.5565 0.781
84.5760 0.573
84.5956 0.521
84.6151 0.677
84.6346 0.833
84.6541 0.573
84.6737 0.677
84.6932 0.990
84.7127 0.469
84.7323 0.625
84.7518 0.937
84.7713 0.885
84.7909 0.990
84.8104 0.677
84.8299 0.781
84.8495 0.365
84.8690 0.781
84.8885 0.729
84.9081 0.260
84.9276 0.625
84.9471 0.729
84.9667 0.885
84.9862 0.625
85.0057 0.677
85.0253 0.469
85.0448 0.781
85.0643 0.573
85.0839 0.677
85.1034 0.625
85.1229 0.781
85.1425 0.521
85.1620 0.990
85.1815 0.469
85.2011 0.729
85.2206 0.417
85.2401 1.042
85.2597 0.781
85.2792 0.729
85.2987 0.833
85.3183 0.833
85.3378 0.729
85.3573 0.625
85.3769 0.677
85.3964 0.469
85.4159 0.729
85.4355 0.781
85.4550 0.573
85.4745 0.573
85.4941 0.521
85.5136 0.677
85.5331 0.781
85.5527 0.469
85.5722 0.677
85.5917 0.521
85.6112 0.885
85.6308 0.469
85.6503 0.260
85.6698 0.677
85.6894 0.781
85.7089 0.521
85.7284 0.417
85.7480 0.729
85.7675 0.573
85.7870 0.729
85.8066 0.833
85.8261 0.365
85.8456 0.781
85.8652 0.729
85.8847 0.990
85.9042 0.625
85.9238 0.990
85.9433 0.677
85.9628 0.833
85.9824 0.885
86.0019 0.833
86.0214 0.521
86.0410 0.312
86.0605 0.729
86.0800 0.573
86.0996 0.469
86.1191 0.625
86.1386 0.469
86.1582 0.833
86.1777 0.729
86.1972 0.417
86.2168 0.625
86.2363 0.729
86.2558 0.417
86.2754 0.781
86.2949 0.729
86.3144 0.937
86.3340 0.729
86.3535 0.781
86.3730 0.781
86.3926 0.573
86.4121 0.937
86.4316 0.625
86.4512 0.677
86.4707 0.417
86.4902 0.417
86.5098 0.729
86.5293 0.521
86.5488 0.729
86.5683 0.625
86.5879 0.729
86.6074 1.042
86.6269 0.469
86.6465 0.729
86.6660 0.885
86.6855 0.990
86.7051 0.833
86.7246 0.729
86.7441 0.625
86.7637 0.677
86.7832 0.885
86.8027 0.833
86.8223 0.625
86.8418 0.990
86.8613 0.729
86.8809 0.781
86.9004 0.521
86.9199 0.729
86.9395 0.469
86.9590 0.521
86.9785 0.417
86.9981 0.365
87.0176 0.573
87.0371 0.729
87.0567 0.677
87.0762 0.625
87.0957 0.937
87.1153 0.417
87.1348 0.781
87.1543 0.729
87.1739 0.521
87.1934 0.573
87.2129 0.729
87.2325 0.885
87.2520 0.781
87.2715 0.781
87.2911 0.990
87.3106 0.625
87.3301 0.260
87.3497 0.833
87.3692 0.573
87.3887 0.521
87.4083 0.365
87.4278 0.625
87.4473 0.677
87.4669 0.625
87.4864 0.521
87.5059 0.833
87.5254 0.521
87.5450 0.625
87.5645 0.521
87.5840 0.573
87.6036 0.625
87.6231 0.729
87.6426 0.625
87.6622 0.677
87.6817 0.781
87.7012 0.573
87.7208 0.625
87.7403 0.521
87.7598 0.677
87.7794 0.625
87.7989 0.625
87.8184 0.885
87.8380 0.885
87.8575 1.198
87.8770 1.354
87.8966 1.510
87.9161 1.354
87.9356 1.979
87.9552 1.510
87.9747 1.250
87.9942 0.937
88.0138 0.677
88.0333 0.781
88.0528 0.937
88.0724 0.781
88.0919 1.302
88.1114 0.729
88.1310 0.260
88.1505 0.729
88.1700 0.521
88.1896 0.781
88.2091 0.937
88.2286 0.729
88.2482 0.677
88.2677 0.573
88.2872 0.625
88.3068 0.365
88.3263 0.885
88.3458 0.937
88.3654 0.625
88.3849 0.469
88.4044 0.885
88.4240 0.729
88.4435 0.573
88.4630 0.729
88.4825 0.677
88.5021 0.573
88.5216 0.573
88.5411 0.521
88.5607 0.781
88.5802 0.521
88.5997 0.885
88.6193 0.729
88.6388 0.677
88.6583 0.521
88.6779 0.521
88.6974 0.625
88.7169 0.677
88.7365 0.677
88.7560 0.365
88.7755 0.677
88.7951 0.833
88.8146 0.781
88.8341 0.469
88.8537 0.729
88.8732 0.312
88.8927 0.833
88.9123 0.833
88.9318 0.417
88.9513 0.417
88.9709 0.625
88.9904 0.469
89.0099 0.365
89.0295 1.198
89.0490 0.729
89.0685 0.625
89.0881 0.625
89.1076 0.677
89.1271 0.573
89.1467 0.781
89.1662 0.469
89.1857 0.729
89.2053 0.781
89.2248 0.365
89.2443 0.781
89.2639 0.469
89.2834 0.365
89.3029 0.417
89.3225 0.573
89.3420 0.781
89.3615 0.781
89.3811 0.521
89.4006 0.260
89.4201 0.729
89.4396 0.521
89.4592 0.469
89.4787 0.417
89.4982 0.365
89.5178 0.417
89.5373 0.469
89.5568 0.417
89.5764 0.625
89.5959 0.625
89.6154 0.573
89.6350 0.677
89.6545 0.677
89.6740 0.312
89.6936 0.573
89.7131 0.729
89.7326 0.781
89.7522 0.677
89.7717 0.365
89.7912 0.312
89.8108 0.312
89.8303 0.573
89.8498 0.365
89.8694 0.625
89.8889 0.208
89.9084 0.781
89.9280 0.625
89.9475 0.521
89.9670 0.469
89.9866 0.417
90.0061 0.469
90.0256 0.521
90.0452 0.781
90.0647 0.729
90.0842 0.573
90.1038 0.885
90.1233 0.573
90.1428 0.312
90.1624 0.573
90.1819 0.469
90.2014 0.625
90.2210 0.469
90.2405 0.677
90.2600 0.729
90.2796 0.625
90.2991 0.469
90.3186 0.521
90.3382 0.781
90.3577 0.573
90.3772 0.885
90.3967 0.312
90.4163 0.365
90.4358 0.990
90.4553 0.729
90.4749 0.729
90.4944 0.365
90.5139 0.573
90.5335 0.521
90.5530 0.417
90.5725 0.781
90.5921 0.260
90.6116 0.521
90.6311 0.573
90.6507 0.990
90.6702 0.365
90.6897 0.469
90.7093 0.469
90.7288 0.677
90.7483 0.365
90.7679 0.677
90.7874 0.833
90.8069 0.365
90.8265 0.573
90.8460 0.365
90.8655 0.417
90.8851 0.365
90.9046 0.729
90.9241 0.885
90.9437 0.573
90.9632 0.625
90.9827 0.937
91.0023 0.625
91.0218 0.573
91.0413 0.365
91.0609 0.573
91.0804 0.677
91.0999 0.625
91.1195 0.312
91.1390 0.521
91.1585 0.417
91.1781 0.417
91.1976 0.521
91.2171 0.781
91.2367 0.365
91.2562 0.521
91.2757 0.885
91.2953 0.417
91.3148 0.729
91.3343 0.677
91.3538 0.677
91.3734 0.521
91.3929 0.573
91.4124 0.625
91.4320 0.625
91.4515 0.677
91.4710 0.521
91.4906 0.469
91.5101 0.417
91.5296 0.677
91.5492 0.417
91.5687 0.625
91.5882 0.469
91.6078 0.312
91.6273 0.521
91.6468 0.469
91.6664 0.677
91.6859 0.625
91.7054 0.573
91.7250 0.365
91.7445 0.781
91.7640 0.469
91.7836 0.729
91.8031 0.833
91.8226 0.677
91.8422 0.365
91.8617 0.677
91.8812 0.521
91.9008 0.781
91.9203 0.208
91.9398 0.521
91.9594 0.573
91.9789 0.521
91.9984 0.573
92.0180 0.729
92.0375 0.469
92.0570 1.094
92.0766 0.781
92.0961 1.146
92.1156 2.396
92.1352 3.073
92.1547 2.708
92.1742 3.646
92.1938 3.229
