'Id: "" Comment: "" Operator: "Lab Manager" Anode: "Cu" Scantype: "Coupled TwoTheta/Theta" TimePerStep: "19.2" X: "9999" Y: "9999" Z: "9999" 
5.0000 1.562
5.0195 1.615
5.0391 2.083
5.0586 1.823
5.0781 1.354
5.0977 1.458
5.1172 2.031
5.1367 1.667
5.1563 2.344
5.1758 2.187
5.1953 1.562
5.2149 1.302
5.2344 1.719
5.2539 1.771
5.2735 1.615
5.2930 1.615
5.3125 1.615
5.3321 1.927
5.3516 1.406
5.3711 1.198
5.3907 1.927
5.4102 2.083
5.4297 1.302
5.4493 1.510
5.4688 1.667
5.4883 1.875
5.5078 1.510
5.5274 2.031
5.5469 0.990
5.5664 1.979
5.5860 1.510
5.6055 1.719
5.6250 1.510
5.6446 1.510
5.6641 1.250
5.6836 2.031
5.7032 1.823
5.7227 1.562
5.7422 2.031
5.7618 1.667
5.7813 1.615
5.8008 1.510
5.8204 1.615
5.8399 1.406
5.8594 1.615
5.8790 1.562
5.8985 1.302
5.9180 1.562
5.9376 1.615
5.9571 1.927
5.9766 1.198
5.9962 1.771
6.0157 1.719
6.0352 1.458
6.0548 1.354
6.0743 1.302
6.0938 1.875
6.1134 1.927
6.1329 1.510
6.1524 1.875
6.1720 2.187
6.1915 1.927
6.2110 1.510
6.2306 1.719
6.2501 1.667
6.2696 1.719
6.2892 1.927
6.3087 1.719
6.3282 1.250
6.3478 1.354
6.3673 1.771
6.3868 1.823
6.4064 1.771
6.4259 1.562
6.4454 1.875
6.4649 1.354
6.4845 1.354
6.5040 1.354
6.5235 1.354
6.5431 2.344
6.5626 1.406
6.5821 1.719
6.6017 1.510
6.6212 1.823
6.6407 1.979
6.6603 1.302
6.6798 1.615
6.6993 1.250
6.7189 1.354
6.7384 1.510
6.7579 1.615
6.7775 1.875
6.7970 1.615
6.8165 1.354
6.8361 1.406
6.8556 1.875
6.8751 1.667
6.8947 1.615
6.9142 0.937
6.9337 1.667
6.9533 1.302
6.9728 1.615
6.9923 1.719
7.0119 1.615
7.0314 1.094
7.0509 1.458
7.0705 1.771
7.0900 1.927
7.1095 1.667
7.1291 1.562
7.1486 1.667
7.1681 1.719
7.1877 1.406
7.2072 1.719
7.2267 1.302
7.2463 1.458
7.2658 1.771
7.2853 1.875
7.3049 1.354
7.3244 1.667
7.3439 1.250
7.3635 1.771
7.3830 1.510
7.4025 1.667
7.4220 1.406
7.4416 1.615
7.4611 1.458
7.4806 1.510
7.5002 1.250
7.5197 1.042
7.5392 1.667
7.5588 2.031
7.5783 1.250
7.5978 1.510
7.6174 1.719
7.6369 1.771
7.6564 1.406
7.6760 1.771
7.6955 1.510
7.7150 1.406
7.7346 1.667
7.7541 1.823
7.7736 2.135
7.7932 1.510
7.8127 1.094
7.8322 1.302
7.8518 1.042
7.8713 1.406
7.8908 1.719
7.9104 1.823
7.9299 1.458
7.9494 2.292
7.9690 2.240
7.9885 1.250
8.0080 1.406
8.0276 1.510
8.0471 1.719
8.0666 1.406
8.0862 1.667
8.1057 1.979
8.1252 1.667
8.1448 1.146
8.1643 1.406
8.1838 1.667
8.2034 1.771
8.2229 2.500
8.2424 1.562
8.2620 1.875
8.2815 2.083
8.3010 1.771
8.3206 1.458
8.3401 2.083
8.3596 1.198
8.3791 1.562
8.3987 1.771
8.4182 1.719
8.4377 1.979
8.4573 1.667
8.4768 1.510
8.4963 1.458
8.5159 1.823
8.5354 1.562
8.5549 1.719
8.5745 1.615
8.5940 1.510
8.6135 1.615
8.6331 1.667
8.6526 1.979
8.6721 1.823
8.6917 1.823
8.7112 1.719
8.7307 1.719
8.7503 1.510
8.7698 1.094
8.7893 1.771
8.8089 1.458
8.8284 1.615
8.8479 1.562
8.8675 1.562
8.8870 1.927
8.9065 1.667
8.9261 1.667
8.9456 1.823
8.9651 1.927
8.9847 1.927
9.0042 2.187
9.0237 1.927
9.0433 1.562
9.0628 1.510
9.0823 1.667
9.1019 1.510
9.1214 1.250
9.1409 1.979
9.1605 1.979
9.1800 1.979
9.1995 1.979
9.2191 1.771
9.2386 1.510
9.2581 1.562
9.2777 2.187
9.2972 2.135
9.3167 1.250
9.3362 1.667
9.3558 1.823
9.3753 1.458
9.3948 1.510
9.4144 1.979
9.4339 1.823
9.4534 2.083
9.4730 1.615
9.4925 1.875
9.5120 1.823
9.5316 1.719
9.5511 1.771
9.5706 1.406
9.5902 2.135
9.6097 1.771
9.6292 2.031
9.6488 1.927
9.6683 1.927
9.6878 2.240
9.7074 2.240
9.7269 1.615
9.7464 1.927
9.7660 1.771
9.7855 1.562
9.8050 1.562
9.8246 1.771
9.8441 2.396
